# k  (h/Mpc)    Pcb(k)  (Mpc/h)^3    Pcb_linear(k) (Mpc/h)^3   ShotnoiseSubtracted = true
      0.0200456         22010.2         22395.9 
      0.0350414           15700         15147.9 
      0.0492313         10110.9         10254.4 
      0.0637834         8057.46         8385.69 
      0.0800726         6453.52         6856.64 
       0.096163         5099.02          4855.2 
       0.111083         3959.23         3645.77 
       0.126058         3251.29         3205.94 
       0.142273         2917.66         2844.68 
       0.158546         2386.91         2246.59 
        0.17375         2072.51          1792.4 
       0.188953         1945.12          1591.8 
       0.204907         1681.18         1463.06 
       0.220756         1525.55         1261.43 
        0.23588         1347.33         1061.31 
         0.2514         1208.61         936.686 
       0.267535         1169.62         862.909 
       0.283568          1038.2         778.581 
       0.299022         986.142         684.763 
       0.314451         1023.64         611.319 
       0.330372         892.221         561.776 
       0.346141         819.454          518.12 
       0.361624         785.525         470.886 
       0.377134         751.251         427.369 
       0.392932         715.185         393.344 
       0.408854         685.488         365.194 
       0.424564         668.066         337.881 
       0.440253         614.011         311.464 
       0.455999         586.369         288.637 
       0.471626         598.362         269.525 
        0.48727         562.488         251.997 
       0.502856         535.723         235.297 
       0.518488          521.76          219.92 
       0.534347          498.65         206.182 
       0.550082         474.668         193.877 
       0.565732         469.231         182.464 
       0.581496         457.905         171.717 
       0.597222         446.774         161.945 
       0.612804         434.994         153.113 
       0.628434         417.743         144.916 
       0.644267         404.111          137.16 
       0.660051         399.601         129.975 
       0.675724         390.258         123.391 
       0.691403          381.86         117.278 
       0.707174         368.518         111.543 
       0.722871         364.288         106.213 
        0.73838         355.808         101.286 
       0.754018         345.182          96.634 
       0.769845         343.257         92.2222 
        0.78569         334.903         88.0812 
       0.801365         323.511         84.2349 
       0.817031         322.075         80.6212 
       0.832809         315.509         77.1972 
       0.848511         310.038         73.9884 
       0.864097         300.819         70.9853 
       0.879701         300.481         68.1471 
       0.895507         290.488         65.4318 
       0.911279         284.432          62.871 
        0.92691         282.302         60.4694 
       0.942635         278.313         58.1808 
       0.958396         270.206         56.0066 
       0.974128         267.782         53.9481 
       0.989692         258.769          52.014 
        1.00528         257.478         50.1725 
        1.02113         254.328         48.3918 
        1.03692         249.251         46.7045 
        1.05264         245.044         45.1059 
        1.06832         242.203         43.5849 
        1.08405         238.051         42.1303 
        1.09979         234.301         40.7415 
        1.11537         230.326         39.4294 
        1.13105         226.159         38.1674 
        1.14679         224.109         36.9561 
        1.16256         221.652         35.7953 
        1.17828         218.433         34.6883 
        1.19395         213.151          33.632 
         1.2097         212.899         32.6146 
        1.22537         209.562         31.6443 
          1.241         203.248         30.7166 
        1.25666         202.769          29.824 
        1.27241         199.537         28.9627 
        1.28819         196.527         28.1342 
        1.30392         195.235         27.3406 
        1.31957         189.838         26.5813 
        1.33529         186.865         25.8482 
        1.35108         186.547         25.1399 
        1.36674         181.195         24.4634 
         1.3824         180.274         23.8125 
        1.39811         179.099         23.1831 
        1.41389         174.496         22.5743 
        1.42964         171.884         21.9884 
        1.44531         171.141         21.4262 
        1.46101          167.68         20.8826 
        1.47667         166.467         20.3595 
        1.49229         164.193         19.8558 
        1.50793         161.285         19.3686 
        1.52367         159.259         18.8947 
        1.53953          156.37         18.4335 
        1.55526         155.141         17.9915 
        1.57092         154.174         17.5658 
        1.58662          150.62          17.153 
        1.60235         149.205         16.7526 
        1.61809         146.921         16.3649 
        1.63369         144.369         15.9929 
        1.64941         143.273         15.6299 
        1.66519         141.304         15.2768 
        1.68085         139.104         14.9373 
        1.69652         137.855         14.6079 
        1.71228         135.515         14.2867 
        1.72806         134.724         13.9748 
        1.74368         133.058         13.6755 
        1.75933         131.721         13.3843 
        1.77505         129.978         13.1003 
        1.79081         127.494         12.8241 
         1.8065         125.908          12.557 
        1.82218          123.81         12.2978 
        1.83797         123.126         12.0441 
        1.85367         121.657          11.799 
        1.86928         120.405         11.5622 
        1.88497         118.745         11.3307 
        1.90073         117.892         11.1046 
        1.91647         115.841          10.885 
        1.93218         114.506         10.6717 
        1.94787         112.599         10.4645 
        1.96363         112.122          10.262 
        1.97935         110.703         10.0653 
        1.99499          109.46         9.87487 
        2.01064         107.404          9.6891 
         2.0264         106.543         9.50695 
        2.04216         105.099         9.32959 
        2.05781         103.758         9.15788 
        2.07353           102.9         8.98989 
        2.08928         101.459         8.82576 
        2.10499         100.686         8.66617 
        2.12065          99.313         8.51102 
        2.13633         98.5236         8.35954 
        2.15211         96.9185         8.21078 
        2.16785         95.8118         8.06606 
        2.18349         94.1868         7.92575 
        2.19916         93.7607         7.78848 
        2.21489         92.8101         7.65402 
        2.23063         91.2068         7.52265 
         2.2463         90.2986         7.39496 
        2.26194         89.5668         7.27056 
        2.27765         88.0825         7.14838 
        2.29341          87.202         7.02871 
        2.30914          85.943         6.91202 
        2.32486         84.8319         6.79806 
        2.34061         83.9369         6.68648 
        2.35635         83.2405          6.5775 
        2.37203         81.8874         6.47134 
        2.38768         81.0638         6.36775 
        2.40339         80.2213         6.26605 
        2.41914         79.2625         6.16634 
        2.43483         78.4756         6.06916 
         2.4505         77.3872         5.97423 
        2.46622         76.5445         5.88102 
        2.48195         75.9732         5.78979 
        2.49759         74.8804         5.70099 
        2.51328         73.8971         5.61382 
        2.52906         72.9431         5.52793 
        2.54479         72.2662         5.44415 
        2.56049          71.174         5.36228 
        2.57618         70.6062         5.28216 
        2.59189         69.8605         5.20357 
        2.60758         68.7505          5.1267 
        2.62325         68.1947         5.05148 
        2.63898         67.7172          4.9775 
        2.65468         66.8784         4.90517 
        2.67044         66.0069         4.83397 
        2.68618         65.5726         4.76434 
        2.70184         64.6477         4.69637 
        2.71755         63.9061         4.62955 
        2.73329         63.0819         4.56394 
        2.74897         62.6503         4.49981 
        2.76462         61.8997         4.43706 
        2.78034         61.1067         4.37525 
        2.79607         60.6315         4.31455 
        2.81179         60.0849         4.25508 
        2.82749         59.5812         4.19679 
        2.84321         58.8121         4.13953 
        2.85893         58.1355         4.08336 
        2.87462         57.5838         4.02833 
        2.89033         56.9224         3.97426 
        2.90605         56.2698         3.92114 
        2.92176          55.746         3.86902 
        2.93747         55.3958         3.81788 
        2.95318         54.6112         3.76765 
        2.96891         53.9816          3.7183 
        2.98456         53.3479         3.67006 
        3.00023         52.9438          3.6226 
        3.01596         52.2617         3.57583 
        3.03164          51.699         3.53003 
        3.04738         51.2665         3.48489 
         3.0631         50.5958         3.44056 
        3.07883          49.979           3.397 
        3.09456         49.5251          3.3542 
        3.11026         49.0898         3.31221 
        3.12596         48.5274         3.27094 
        3.14163         48.0085         3.23047 
        3.15734         47.4548         3.19059 
        3.17308         47.0784         3.15128 
        3.18879         46.7483         3.11275 
        3.20447         46.3461         3.07492 
         3.2202         45.6064          3.0376 
         3.2359         45.2387         3.00097 
        3.25157         44.8857         2.96503 
        3.26729         44.3508         2.92957 
        3.28304         43.9312         2.89462 
        3.29877          43.445         2.86029 
        3.31446         43.0341         2.82659 
        3.33014         42.6776         2.79346 
        3.34585         42.1074         2.76082 
        3.36158         41.8191         2.72865 
        3.37727         41.3237         2.69709 
        3.39294         41.0222         2.66606 
        3.40867          40.608          2.6354 
        3.42439         40.2511         2.60525 
        3.44008         39.6977         2.57563 
        3.45578         39.4291         2.54644 
        3.47153         38.9137         2.51765 
        3.48724         38.5305         2.48935 
        3.50292         38.2631         2.46155 
        3.51859         37.8554         2.43419 
        3.53431         37.5514         2.40716 
        3.55007         37.1603         2.38048 
        3.56577         36.8816          2.3543 
        3.58146          36.512         2.32853 
        3.59719          36.128         2.30309 
        3.61292         35.8524         2.27804 
        3.62859         35.4848         2.25345 
        3.64429         35.1657         2.22918 
        3.66003         34.9424          2.2052 
        3.67578         34.4803         2.18157 
        3.69146         34.2617         2.15839 
        3.70712         33.8345         2.13558 
        3.72284         33.5537         2.11301 
        3.73853         33.3522         2.09082 
        3.75422         32.9201         2.06893 
        3.76993         32.7154         2.04734 
        3.78564         32.3871         2.02606 
        3.80137         32.0965         2.00505 
        3.81707         31.7183         1.98439 
        3.83279         31.5832           1.964 
        3.84853         31.1515         1.94386 
        3.86424         30.9004         1.92405 
        3.87992         30.7068         1.90454 
        3.89561         30.3567          1.8853 
        3.91134         30.0698         1.86628 
        3.92704         29.8153         1.84756 
        3.94273         29.5192          1.8291 
        3.95845         29.2981         1.81087 
        3.97418         28.9794         1.79288 
        3.98988         28.7093         1.77516 
        4.00554         28.5488         1.75773 
        4.02125         28.2628         1.74048 
        4.03698         27.9242         1.72344 
        4.05268         27.7212         1.70666 
        4.06839         27.4598          1.6901 
         4.0841         27.2507         1.67376 
        4.09983         26.9377         1.65761 
        4.11555         26.6488         1.64168 
        4.13124         26.5701         1.62601 
        4.14693         26.3526         1.61053 
        4.16266         26.0084         1.59521 
        4.17839         25.8667          1.5801 
        4.19408         25.6788         1.56523 
        4.20977         25.4267         1.55053 
        4.22551         25.1887         1.53599 
        4.24123         24.9504         1.52166 
        4.25691         24.7089         1.50754 
        4.27259         24.6408          1.4936 
        4.28831         24.3567         1.47981 
        4.30404         24.1816         1.46618 
        4.31974         23.9711         1.45275 
        4.33543         23.7599         1.43949 
        4.35116         23.5339         1.42637 
        4.36688         23.4141         1.41342 
        4.38255           23.16         1.40068 
        4.39825         22.9357         1.38807 
        4.41398         22.7486         1.37559 
         4.4297         22.5888         1.36327 
        4.44541         22.3852         1.35111 
        4.46111          22.186          1.3391 
        4.47683         22.0061         1.32724 
        4.49251         21.7762         1.31554 
        4.50819          21.705         1.30398 
         4.5239         21.4614         1.29255 
        4.53962         21.3109         1.28124 
        4.55535         21.0922         1.27006 
        4.57106         20.9879         1.25903 
        4.58678         20.7445         1.24813 
         4.6025         20.6101         1.23735 
        4.61821         20.4153         1.22671 
        4.63391         20.2688          1.2162 
         4.6496         20.0979         1.20582 
        4.66532         19.9287         1.19555 
        4.68103         19.7784          1.1854 
        4.69673         19.6052         1.17537 
        4.71241         19.4854         1.16548 
        4.72811         19.2938         1.15568 
        4.74384         19.1654         1.14598 
        4.75955         19.0188         1.13641 
        4.77525         18.8655         1.12695 
        4.79096         18.7233         1.11759 
        4.80669         18.5657         1.10833 
         4.8224         18.3944         1.09919 
        4.83809         18.2567         1.09015 
        4.85379          18.117         1.08122 
         4.8695         18.0325         1.07238 
        4.88521         17.8146         1.06364 
        4.90093         17.6618         1.05499 
        4.91663         17.5806         1.04645 
        4.93234         17.4076           1.038 
        4.94807          17.301         1.02963 
        4.96377         17.1671         1.02138 
        4.97943         17.0446         1.01323 
        4.99514         16.9282         1.00514 
        5.01086         16.7285        0.997143 
        5.02654         16.6587         0.98925 
        5.04227         16.5088        0.981419 
          5.058         16.3847         0.97367 
        5.07371         16.2824         0.96602 
        5.08942         16.1709        0.958451 
        5.10513         16.0224        0.950962 
        5.12084         15.9243        0.943549 
        5.13656         15.7458        0.936217 
        5.15225         15.6638        0.928976 
        5.16796         15.5382        0.921799 
        5.18369         15.4379        0.914692 
         5.1994         15.3145        0.907672 
        5.21509         15.2068        0.900733 
        5.23079         15.1017        0.893858 
        5.24649         14.9536         0.88706 
        5.26217         14.8402        0.880338 
        5.27788         14.7441        0.873676 
        5.29359          14.646        0.867081 
        5.30933         14.5354        0.860546 
        5.32504         14.4539        0.854088 
        5.34073         14.3215        0.847704 
        5.35646         14.2288        0.841373 
        5.37218         14.1407        0.835105 
        5.38789         14.0206         0.82891 
        5.40357         13.9071        0.822786 
        5.41929         13.8277        0.816711 
        5.43502         13.6841        0.810695 
         5.4507         13.5966        0.804755 
        5.46639         13.5203        0.798874 
        5.48212         13.4104        0.793038 
        5.49786         13.2953        0.787253 
        5.51353         13.2331        0.781554 
        5.52921         13.1192        0.775906 
        5.54495         13.0103        0.770298 
        5.56066         12.9347         0.76475 
        5.57637         12.8542        0.759259 
        5.59207         12.7671        0.753826 
        5.60778         12.6652        0.748444 
        5.62346         12.5616        0.743123 
        5.63916         12.4992        0.737848 
        5.65487         12.3743        0.732621 
         5.6706          12.313         0.72744 
        5.68633         12.2406        0.722306 
        5.70203         12.1288        0.717232 
        5.71773         12.0356        0.712209 
        5.73344         11.9726         0.70723 
        5.74916          11.902        0.702295 
        5.76486         11.8292        0.697413 
        5.78054         11.7308        0.692586 
        5.79626         11.6448         0.68779 
          5.812         11.5619        0.683036 
         5.8277         11.4756         0.67834 
        5.84339         11.4028        0.673688 
        5.85911         11.3333        0.669071 
        5.87484         11.2246        0.664498 
        5.89053         11.1519        0.659977 
        5.90623         11.0827        0.655496 
        5.92195         11.0028        0.651049 
        5.93767         10.9136        0.646645 
        5.95336         10.8678         0.64229 
        5.96905         10.7799        0.637976 
        5.98476         10.7307        0.633696 
        6.00048         10.6366        0.629453 
        6.01617         10.5693        0.625256 
        6.03185         10.4897        0.621101 
        6.04756         10.4342        0.616975 
        6.06331         10.3499        0.612877 
        6.07903         10.2888        0.608825 
        6.09473         10.2105        0.604813 
        6.11044         10.1378        0.600834 
        6.12616         10.0451        0.596892 
        6.14186           9.998        0.592988 
        6.15755         9.94077         0.58912 
        6.17326         9.86845        0.585284 
        6.18898         9.81416        0.581479 
        6.20467         9.72992        0.577716 
        6.22036         9.66688        0.573986 
         6.2361         9.61917        0.570279 
         6.2518         9.55794        0.566611 
        6.26748         9.48873        0.562983 
        6.28319         9.44296        0.559376 
        6.29893         9.35294        0.555799 
        6.31463         9.31333        0.552258 
        6.33033         9.25833         0.54875 
        6.34604          9.1852         0.54527 
        6.36177         9.14112        0.541816 
        6.37747         9.06955        0.538399 
