# k  (h/Mpc)    Pcb(k)  (Mpc/h)^3    Pcb_linear(k) (Mpc/h)^3   ShotnoiseSubtracted = true
      0.0200456         551.837         559.476 
      0.0350414         378.104         378.411 
      0.0492313          257.74         256.168 
      0.0637834         211.636         209.484 
      0.0800726         171.561         171.287 
       0.096163         121.151         121.288 
       0.111083         91.1029         91.0754 
       0.126058         80.4692         80.0881 
       0.142273         71.2022         71.0634 
       0.158546         56.5598         56.1223 
        0.17375         44.8415         44.7761 
       0.188953          40.079         39.7651 
       0.204907         37.3206         36.5488 
       0.220756         31.8172          31.512 
        0.23588         26.8959         26.5128 
         0.2514         23.6078         23.3995 
       0.267535         21.7524         21.5564 
       0.283568          19.649         19.4498 
       0.299022         17.4241         17.1061 
       0.314451         15.3516         15.2714 
       0.330372          14.199         14.0338 
       0.346141         13.0709         12.9432 
       0.361624         11.9452         11.7633 
       0.377134         10.9463         10.6761 
       0.392932         9.80243         9.82618 
       0.408854         9.32425         9.12297 
       0.424564         8.58317         8.44065 
       0.440253         7.91878         7.78073 
       0.455999         7.39246         7.21049 
       0.471626         6.93455         6.73304 
        0.48727         6.44971         6.29518 
       0.502856         5.99539         5.87799 
       0.518488         5.69066         5.49386 
       0.534347          5.3929         5.15067 
       0.550082         4.95371         4.84327 
       0.565732         4.58406         4.55815 
       0.581496         4.42983         4.28969 
       0.597222         4.20583         4.04558 
       0.612804          3.9358         3.82492 
       0.628434         3.77489         3.62017 
       0.644267          3.5629         3.42642 
       0.660051         3.35755         3.24693 
       0.675724         3.19549         3.08245 
       0.691403         3.06427         2.92973 
       0.707174         2.89556         2.78647 
       0.722871           2.754         2.65332 
        0.73838         2.64376         2.53025 
       0.754018         2.54929         2.41403 
       0.769845         2.41264         2.30381 
        0.78569         2.31346         2.20037 
       0.801365         2.20521         2.10428 
       0.817031         2.12247         2.01401 
       0.832809         2.03274         1.92847 
       0.848511         1.93182         1.84831 
       0.864097         1.84756         1.77329 
       0.879701         1.77822         1.70239 
       0.895507         1.71221         1.63456 
       0.911279          1.6653         1.57059 
        0.92691         1.59607         1.51059 
       0.942635          1.5305         1.45342 
       0.958396         1.46877         1.39911 
       0.974128         1.41832         1.34768 
       0.989692         1.37871         1.29937 
        1.00528         1.32213         1.25337 
        1.02113          1.2672         1.20888 
        1.03692         1.23868         1.16673 
        1.05264         1.19266          1.1268 
        1.06832         1.15778          1.0888 
        1.08405         1.10297         1.05246 
        1.09979         1.07353         1.01777 
        1.11537         1.04508         0.98499 
        1.13105          1.0143        0.953466 
        1.14679        0.986881        0.923206 
        1.16256        0.944883        0.894206 
        1.17828        0.919287        0.866552 
        1.19395        0.891073        0.840166 
         1.2097        0.854364        0.814749 
        1.22537        0.838781        0.790511 
          1.241         0.81522        0.767336 
        1.25666        0.801926        0.745036 
        1.27241        0.765273        0.723522 
        1.28819        0.744925        0.702824 
        1.30392        0.728847           0.683 
        1.31957        0.709388        0.664031 
        1.33529        0.686663        0.645717 
        1.35108        0.667302        0.628024 
        1.36674         0.64355        0.611123 
         1.3824        0.634204        0.594862 
        1.39811        0.615031        0.579141 
        1.41389        0.601459        0.563931 
        1.42964        0.587081        0.549294 
        1.44531        0.567514         0.53525 
        1.46101        0.557161         0.52167 
        1.47667        0.535368        0.508603 
        1.49229        0.529744         0.49602 
        1.50793        0.512902         0.48385 
        1.52367        0.502788        0.472011 
        1.53953        0.487793        0.460491 
        1.55526        0.477633        0.449448 
        1.57092         0.46448        0.438814 
        1.58662        0.456139        0.428501 
        1.60235        0.445329          0.4185 
        1.61809         0.43112        0.408814 
        1.63369        0.428687        0.399521 
        1.64941        0.414449        0.390452 
        1.66519        0.404718        0.381633 
        1.68085        0.393718        0.373149 
        1.69652        0.385637        0.364922 
        1.71228        0.379373        0.356897 
        1.72806        0.367661        0.349107 
        1.74368        0.363683        0.341629 
        1.75933        0.353667        0.334356 
        1.77505        0.346046        0.327261 
        1.79081        0.339774         0.32036 
         1.8065        0.329227        0.313688 
        1.82218        0.324926        0.307212 
        1.83797        0.317238        0.300875 
        1.85367        0.313637        0.294753 
        1.86928         0.30578        0.288838 
        1.88497        0.299135        0.283053 
        1.90073        0.292243        0.277406 
        1.91647        0.287732        0.271919 
        1.93218        0.280669        0.266592 
        1.94787        0.275618        0.261416 
        1.96363        0.269817        0.256357 
        1.97935         0.26401        0.251443 
        1.99499        0.259495        0.246686 
        2.01064        0.254369        0.242045 
         2.0264        0.248225        0.237494 
        2.04216        0.245982        0.233064 
        2.05781        0.240538        0.228774 
        2.07353        0.234236        0.224578 
        2.08928        0.229611        0.220477 
        2.10499        0.226815        0.216491 
        2.12065        0.223388        0.212615 
        2.13633         0.21871        0.208831 
        2.15211        0.215043        0.205115 
        2.16785        0.210335        0.201499 
        2.18349         0.20583        0.197994 
        2.19916        0.203391        0.194565 
        2.21489        0.199151        0.191206 
        2.23063        0.196399        0.187924 
         2.2463         0.19261        0.184734 
        2.26194        0.187915        0.181627 
        2.27765        0.185368        0.178575 
        2.29341        0.182527        0.175585 
        2.30914        0.179447         0.17267 
        2.32486        0.176156        0.169823 
        2.34061        0.173223        0.167036 
        2.35635        0.169557        0.164313 
        2.37203        0.166973        0.161661 
        2.38768        0.164161        0.159074 
        2.40339        0.161994        0.156533 
        2.41914        0.159494        0.154042 
        2.43483        0.156643        0.151614 
         2.4505        0.153069        0.149243 
        2.46622         0.15092        0.146915 
        2.48195        0.148715        0.144636 
        2.49759        0.146855        0.142417 
        2.51328        0.144073         0.14024 
        2.52906        0.141992        0.138094 
        2.54479        0.139187        0.136001 
        2.56049        0.136786        0.133956 
        2.57618        0.134751        0.131954 
        2.59189        0.133206        0.129991 
        2.60758        0.131486        0.128071 
        2.62325        0.128753        0.126192 
        2.63898        0.127098        0.124344 
        2.65468        0.124522        0.122537 
        2.67044        0.123166        0.120758 
        2.68618        0.121148        0.119019 
        2.70184        0.119239        0.117321 
        2.71755        0.116981        0.115652 
        2.73329        0.115782        0.114012 
        2.74897         0.11428         0.11241 
        2.76462        0.112322        0.110843 
        2.78034        0.110791        0.109299 
        2.79607         0.10879        0.107782 
        2.81179        0.107986        0.106297 
        2.82749        0.105833        0.104841 
        2.84321        0.104374         0.10341 
        2.85893        0.103208        0.102007 
        2.87462        0.101638        0.100632 
        2.89033        0.100251       0.0992816 
        2.90605       0.0984569       0.0979546 
        2.92176       0.0974572       0.0966526 
        2.93747        0.095791       0.0953749 
        2.95318       0.0946791       0.0941201 
        2.96891       0.0932947       0.0928873 
        2.98456       0.0920277       0.0916821 
        3.00023       0.0909472       0.0904966 
        3.01596       0.0895117       0.0893283 
        3.03164       0.0887752        0.088184 
        3.04738       0.0870289       0.0870565 
         3.0631       0.0862196       0.0859491 
        3.07883       0.0849196       0.0848609 
        3.09456        0.083822       0.0837917 
        3.11026       0.0827076       0.0827427 
        3.12596       0.0816724       0.0817117 
        3.14163       0.0806155       0.0807007 
        3.15734       0.0798498       0.0797044 
        3.17308       0.0789109       0.0787226 
        3.18879       0.0778038       0.0777601 
        3.20447        0.076607        0.076815 
         3.2202       0.0761604       0.0758828 
         3.2359       0.0749669       0.0749676 
        3.25157       0.0739881       0.0740698 
        3.26729        0.072884        0.073184 
        3.28304       0.0724775       0.0723109 
        3.29877       0.0714643       0.0714533 
        3.31446       0.0706384       0.0706114 
        3.33014       0.0700327       0.0697839 
        3.34585       0.0693077       0.0689683 
        3.36158       0.0685199       0.0681646 
        3.37727       0.0677951       0.0673763 
        3.39294       0.0667582       0.0666011 
        3.40867       0.0660209       0.0658353 
        3.42439       0.0654239       0.0650821 
        3.44008       0.0644148       0.0643421 
        3.45578       0.0639267        0.063613 
        3.47153       0.0631708       0.0628937 
        3.48724        0.062686       0.0621867 
        3.50292       0.0619508       0.0614923 
        3.51859        0.061196       0.0608088 
        3.53431       0.0604916       0.0601336 
        3.55007       0.0600754        0.059467 
        3.56577       0.0594227       0.0588132 
        3.58146       0.0589806       0.0581694 
        3.59719       0.0584246       0.0575339 
        3.61292       0.0578475        0.056908 
        3.62859       0.0571776       0.0562938 
        3.64429       0.0565905       0.0556875 
        3.66003       0.0562484       0.0550884 
        3.67578       0.0555002       0.0544982 
        3.69146       0.0549342       0.0539189 
        3.70712       0.0546364       0.0533491 
        3.72284       0.0542568       0.0527855 
        3.73853       0.0536125       0.0522309 
        3.75422       0.0532543       0.0516842 
        3.76993       0.0525371       0.0511448 
        3.78564       0.0521852       0.0506133 
        3.80137       0.0516348       0.0500885 
        3.81707        0.051235       0.0495722 
        3.83279       0.0509367       0.0490629 
        3.84853       0.0504303       0.0485598 
        3.86424       0.0500104       0.0480648 
        3.87992       0.0494387       0.0475775 
        3.89561       0.0490471       0.0470968 
        3.91134       0.0487231       0.0466219 
        3.92704        0.048244        0.046154 
        3.94273       0.0477682       0.0456931 
        3.95845       0.0473189       0.0452376 
        3.97418       0.0471148       0.0447882 
        3.98988       0.0464152       0.0443455 
        4.00554       0.0461603         0.04391 
        4.02125       0.0455499       0.0434791 
        4.03698        0.044906       0.0430534 
        4.05268       0.0442484       0.0426343 
        4.06839       0.0437956       0.0422205 
         4.0841        0.043106       0.0418123 
        4.09983       0.0425168        0.041409 
        4.11555       0.0418431       0.0410111 
        4.13124       0.0412947       0.0406195 
        4.14693        0.040805       0.0402328 
        4.16266       0.0402931       0.0398502 
        4.17839       0.0398221       0.0394728 
        4.19408       0.0393556       0.0391011 
        4.20977       0.0388684       0.0387341 
        4.22551       0.0384027       0.0383709 
        4.24123       0.0379295       0.0380127 
        4.25691       0.0374601       0.0376601 
        4.27259       0.0371517       0.0373118 
        4.28831       0.0367174       0.0369673 
        4.30404       0.0364876       0.0366268 
        4.31974       0.0361102       0.0362913 
        4.33543       0.0357735       0.0359602 
        4.35116       0.0354893       0.0356325 
        4.36688        0.035082       0.0353089 
        4.38255       0.0348314       0.0349906 
        4.39825       0.0345677       0.0346755 
        4.41398       0.0344493       0.0343637 
         4.4297       0.0342172       0.0340561 
        4.44541       0.0339227       0.0337522 
        4.46111       0.0337918       0.0334523 
        4.47683       0.0335959       0.0331559 
        4.49251       0.0334106       0.0328636 
        4.50819       0.0332129        0.032575 
         4.5239       0.0330565       0.0322894 
        4.53962       0.0329645       0.0320068 
        4.55535       0.0328539       0.0317275 
        4.57106       0.0328003        0.031452 
        4.58678       0.0325921       0.0311797 
         4.6025       0.0326097       0.0309105 
        4.61821        0.032633       0.0306445 
        4.63391       0.0325733       0.0303821 
         4.6496       0.0324759       0.0301228 
        4.66532       0.0325214       0.0298661 
        4.68103       0.0324749       0.0296126 
        4.69673         0.03251       0.0293622 
        4.71241       0.0325218        0.029115 
        4.72811       0.0325536       0.0288702 
        4.74384       0.0326515       0.0286279 
        4.75955       0.0327876       0.0283888 
        4.77525       0.0328973       0.0281525 
        4.79096       0.0329193       0.0279186 
        4.80669       0.0329889       0.0276873 
         4.8224       0.0332943       0.0274589 
        4.83809       0.0334184       0.0272333 
        4.85379       0.0334253       0.0270101 
         4.8695       0.0337588       0.0267892 
        4.88521       0.0338272       0.0265709 
        4.90093       0.0341455       0.0263549 
        4.91663         0.03427       0.0261416 
        4.93234       0.0344288       0.0259304 
        4.94807       0.0347363       0.0257214 
        4.96377       0.0350339       0.0255151 
        4.97943       0.0354511       0.0253115 
        4.99514       0.0355606       0.0251096 
        5.01086       0.0359613       0.0249098 
        5.02654       0.0362883       0.0247126 
        5.04227        0.036554        0.024517 
          5.058       0.0370192       0.0243234 
        5.07371       0.0373969       0.0241323 
        5.08942       0.0376159       0.0239432 
        5.10513       0.0381477       0.0237561 
        5.12084        0.038623       0.0235709 
        5.13656       0.0390106       0.0233878 
        5.15225       0.0395726       0.0232069 
        5.16796       0.0401138       0.0230276 
        5.18369       0.0405745         0.02285 
         5.1994       0.0411302       0.0226747 
        5.21509       0.0415063       0.0225013 
        5.23079        0.042005       0.0223296 
        5.24649       0.0426821       0.0221598 
        5.26217        0.043493       0.0219918 
        5.27788       0.0441092       0.0218254 
        5.29359       0.0446741       0.0216607 
        5.30933       0.0453443       0.0214974 
        5.32504       0.0460097       0.0213361 
        5.34073        0.046791       0.0211766 
        5.35646       0.0476154       0.0210184 
        5.37218       0.0483075       0.0208619 
        5.38789       0.0492817       0.0207071 
        5.40357       0.0497737       0.0205541 
        5.41929       0.0508514       0.0204024 
        5.43502       0.0515458       0.0202521 
         5.4507       0.0524474       0.0201037 
        5.46639       0.0536833       0.0199568 
        5.48212       0.0543748        0.019811 
        5.49786       0.0554811       0.0196665 
        5.51353       0.0568369       0.0195241 
        5.52921       0.0575579        0.019383 
        5.54495       0.0586368       0.0192429 
        5.56066       0.0596989       0.0191043 
        5.57637       0.0609115       0.0189671 
        5.59207       0.0624758       0.0188314 
        5.60778       0.0635286        0.018697 
        5.62346       0.0646438        0.018564 
        5.63916       0.0661056       0.0184323 
        5.65487         0.06731       0.0183017 
         5.6706       0.0684813       0.0181723 
        5.68633       0.0700255        0.018044 
        5.70203       0.0709607       0.0179173 
        5.71773       0.0732408       0.0177918 
        5.73344       0.0745011       0.0176674 
        5.74916         0.07627       0.0175441 
        5.76486       0.0778153       0.0174222 
        5.78054       0.0790251       0.0173016 
        5.79626       0.0805109       0.0171818 
          5.812       0.0827614        0.017063 
         5.8277       0.0843807       0.0169457 
        5.84339       0.0860794       0.0168295 
        5.85911       0.0883364       0.0167141 
        5.87484        0.089939       0.0165999 
        5.89053       0.0924828        0.016487 
        5.90623       0.0943169        0.016375 
        5.92195       0.0967274       0.0162639 
        5.93767       0.0989197       0.0161539 
        5.95336        0.100727       0.0160451 
        5.96905         0.10326       0.0159374 
        5.98476        0.105705       0.0158304 
        6.00048        0.107552       0.0157245 
        6.01617        0.109861       0.0156196 
        6.03185        0.113106       0.0155158 
        6.04756        0.115475       0.0154127 
        6.06331        0.117658       0.0153104 
        6.07903        0.120872       0.0152091 
        6.09473        0.124297       0.0151089 
        6.11044        0.126552       0.0150095 
        6.12616        0.129364        0.014911 
        6.14186        0.132324       0.0148135 
        6.15755        0.135359       0.0147169 
        6.17326        0.139304        0.014621 
        6.18898        0.140909        0.014526 
        6.20467         0.14601        0.014432 
        6.22036        0.148122       0.0143388 
         6.2361        0.152152       0.0142462 
         6.2518        0.155476       0.0141546 
        6.26748        0.158334       0.0140639 
        6.28319          0.1624       0.0139739 
        6.29893        0.166729       0.0138845 
        6.31463        0.169912        0.013796 
        6.33033        0.174809       0.0137084 
        6.34604        0.178716       0.0136215 
        6.36177        0.181746       0.0135352 
        6.37747        0.187045       0.0134498 
