# k  (h/Mpc)    Pcb(k)  (Mpc/h)^3    Pcb_linear(k) (Mpc/h)^3   ShotnoiseSubtracted = true
      0.0200456         384.514         389.558 
      0.0350414         266.337         263.484 
      0.0492313          179.45         178.367 
      0.0637834         145.615         145.862 
      0.0800726         117.948         119.265 
       0.096163         85.3991          84.452 
       0.111083         64.5481          63.415 
       0.126058         55.6649         55.7646 
       0.142273         48.9886         49.4808 
       0.158546         39.1372         39.0774 
        0.17375         31.6003         31.1772 
       0.188953         27.8556         27.6881 
       0.204907         25.0615         25.4486 
       0.220756         21.9335         21.9415 
        0.23588         18.5339         18.4606 
         0.2514         16.3865         16.2928 
       0.267535         15.0771         15.0095 
       0.283568         13.5677         13.5427 
       0.299022          11.992         11.9109 
       0.314451          10.855         10.6334 
       0.330372         9.87322         9.77161 
       0.346141         9.08731         9.01225 
       0.361624         8.24881         8.19066 
       0.377134         7.47859          7.4337 
       0.392932         7.02756         6.84188 
       0.408854         6.40356         6.35224 
       0.424564          6.0208         5.87714 
       0.440253         5.50061         5.41765 
       0.455999         5.04949          5.0206 
       0.471626         4.71771         4.68816 
        0.48727         4.48057         4.38327 
       0.502856         4.19349         4.09279 
       0.518488          3.8579         3.82532 
       0.534347         3.59873         3.58636 
       0.550082         3.43356         3.37232 
       0.565732         3.26602          3.1738 
       0.581496         3.04998         2.98687 
       0.597222         2.87226          2.8169 
       0.612804         2.70642         2.66326 
       0.628434         2.57247         2.52069 
       0.644267         2.44472         2.38578 
       0.660051         2.31546         2.26081 
       0.675724         2.18236         2.14628 
       0.691403         2.08128         2.03994 
       0.707174         1.97786         1.94019 
       0.722871         1.91891         1.84748 
        0.73838         1.79254         1.76179 
       0.754018         1.71043         1.68086 
       0.769845         1.61898         1.60412 
        0.78569          1.5671          1.5321 
       0.801365         1.50069         1.46519 
       0.817031         1.44003         1.40234 
       0.832809         1.36687         1.34278 
       0.848511         1.31647         1.28696 
       0.864097         1.26847         1.23473 
       0.879701         1.22551         1.18536 
       0.895507          1.1612         1.13813 
       0.911279         1.12431         1.09359 
        0.92691         1.09014         1.05181 
       0.942635         1.03326           1.012 
       0.958396        0.999837        0.974186 
       0.974128        0.964944        0.938381 
       0.989692        0.928415        0.904739 
        1.00528        0.891796        0.872707 
        1.02113        0.869168        0.841733 
        1.03692        0.842842        0.812384 
        1.05264        0.804743        0.784577 
        1.06832        0.781087        0.758121 
        1.08405        0.749597        0.732819 
        1.09979        0.730251        0.708663 
        1.11537        0.702146         0.68584 
        1.13105        0.675546         0.66389 
        1.14679        0.659943         0.64282 
        1.16256        0.639953        0.622627 
        1.17828        0.622222        0.603372 
        1.19395        0.602019           0.585 
         1.2097        0.581683        0.567303 
        1.22537        0.561922        0.550426 
          1.241        0.547209        0.534289 
        1.25666        0.535182        0.518762 
        1.27241        0.516948        0.503781 
        1.28819        0.499701         0.48937 
        1.30392        0.487947        0.475566 
        1.31957        0.473666        0.462359 
        1.33529        0.460006        0.449607 
        1.35108        0.446906        0.437287 
        1.36674         0.43455        0.425519 
         1.3824        0.425576        0.414197 
        1.39811        0.411237        0.403251 
        1.41389        0.402069         0.39266 
        1.42964        0.391305        0.382468 
        1.44531        0.380162         0.37269 
        1.46101        0.369084        0.363234 
        1.47667        0.361291        0.354135 
        1.49229        0.350777        0.345374 
        1.50793        0.343597          0.3369 
        1.52367        0.333227        0.328657 
        1.53953        0.324602        0.320635 
        1.55526        0.317792        0.312947 
        1.57092         0.31257        0.305542 
        1.58662        0.304714        0.298361 
        1.60235        0.296846        0.291397 
        1.61809        0.288276        0.284653 
        1.63369        0.280843        0.278183 
        1.64941        0.275775        0.271868 
        1.66519        0.270284        0.265727 
        1.68085         0.26226        0.259821 
        1.69652        0.257019        0.254092 
        1.71228        0.250516        0.248504 
        1.72806        0.245991         0.24308 
        1.74368        0.240112        0.237873 
        1.75933        0.235383        0.232809 
        1.77505        0.230766        0.227869 
        1.79081         0.22398        0.223063 
         1.8065        0.220806        0.218418 
        1.82218        0.214595        0.213909 
        1.83797        0.208946        0.209497 
        1.85367        0.206314        0.205234 
        1.86928        0.201148        0.201115 
        1.88497        0.196583        0.197087 
        1.90073        0.193061        0.193156 
        1.91647          0.1895        0.189335 
        1.93218        0.186429        0.185626 
        1.94787        0.181246        0.182021 
        1.96363        0.178002        0.178499 
        1.97935        0.174193        0.175077 
        1.99499        0.170713        0.171765 
        2.01064        0.167566        0.168534 
         2.0264        0.164472        0.165365 
        2.04216        0.160338         0.16228 
        2.05781        0.157641        0.159293 
        2.07353        0.154913        0.156371 
        2.08928        0.152392        0.153516 
        2.10499        0.148639        0.150741 
        2.12065        0.146238        0.148042 
        2.13633        0.143458        0.145407 
        2.15211        0.141176        0.142819 
        2.16785        0.138037        0.140302 
        2.18349        0.135695        0.137861 
        2.19916        0.132576        0.135474 
        2.21489        0.130103        0.133135 
        2.23063        0.128199         0.13085 
         2.2463        0.125981        0.128629 
        2.26194        0.123776        0.126465 
        2.27765        0.121363         0.12434 
        2.29341        0.119064        0.122258 
        2.30914         0.11678        0.120229 
        2.32486        0.114881        0.118246 
        2.34061         0.11286        0.116305 
        2.35635        0.111073         0.11441 
        2.37203        0.109894        0.112563 
        2.38768        0.107544        0.110761 
        2.40339        0.105543        0.108992 
        2.41914        0.103853        0.107258 
        2.43483        0.102116        0.105568 
         2.4505        0.100215        0.103917 
        2.46622       0.0985735        0.102295 
        2.48195       0.0969885        0.100708 
        2.49759       0.0955769       0.0991637 
        2.51328       0.0931324       0.0976475 
        2.52906       0.0922505       0.0961535 
        2.54479        0.090716       0.0946963 
        2.56049       0.0889989       0.0932722 
        2.57618       0.0880859       0.0918787 
        2.59189       0.0861645       0.0905116 
        2.60758       0.0852183       0.0891745 
        2.62325       0.0835335        0.087866 
        2.63898       0.0826206       0.0865793 
        2.65468       0.0809057       0.0853211 
        2.67044       0.0797436       0.0840826 
        2.68618       0.0784443       0.0828716 
        2.70184       0.0776088       0.0816893 
        2.71755         0.07615       0.0805271 
        2.73329        0.075091       0.0793858 
        2.74897       0.0738848       0.0782703 
        2.76462       0.0725731       0.0771788 
        2.78034       0.0716636       0.0761037 
        2.79607       0.0707354       0.0750479 
        2.81179       0.0692725       0.0740133 
        2.82749       0.0685368       0.0729995 
        2.84321       0.0675516       0.0720036 
        2.85893       0.0662764       0.0710265 
        2.87462       0.0657211       0.0700693 
        2.89033        0.064454       0.0691289 
        2.90605       0.0636803       0.0682049 
        2.92176       0.0629106       0.0672983 
        2.93747        0.061775       0.0664087 
        2.95318       0.0612123        0.065535 
        2.96891       0.0602584       0.0646766 
        2.98456       0.0594478       0.0638374 
        3.00023       0.0586695       0.0630119 
        3.01596       0.0575957       0.0621985 
        3.03164       0.0568143       0.0614017 
        3.04738       0.0561279       0.0606166 
         3.0631       0.0551362       0.0598455 
        3.07883       0.0545358       0.0590879 
        3.09456       0.0539347       0.0583434 
        3.11026       0.0530219        0.057613 
        3.12596       0.0526242       0.0568951 
        3.14163       0.0517962       0.0561911 
        3.15734       0.0512162       0.0554975 
        3.17308        0.050477       0.0548138 
        3.18879       0.0498509       0.0541436 
        3.20447       0.0490536       0.0534856 
         3.2202       0.0485488       0.0528365 
         3.2359       0.0480318       0.0521993 
        3.25157       0.0473301       0.0515741 
        3.26729       0.0467412       0.0509573 
        3.28304       0.0463323       0.0503494 
        3.29877       0.0456014       0.0497523 
        3.31446       0.0449496       0.0491661 
        3.33014        0.044699       0.0485899 
        3.34585        0.043921        0.048022 
        3.36158       0.0434333       0.0474624 
        3.37727       0.0428527       0.0469135 
        3.39294       0.0425113       0.0463737 
        3.40867       0.0420295       0.0458405 
        3.42439       0.0415382       0.0453161 
        3.44008       0.0411405       0.0448008 
        3.45578       0.0407643       0.0442932 
        3.47153       0.0402647       0.0437923 
        3.48724       0.0397334          0.0433 
        3.50292       0.0394655       0.0428165 
        3.51859       0.0389469       0.0423406 
        3.53431       0.0385214       0.0418705 
        3.55007       0.0381454       0.0414063 
        3.56577        0.037817       0.0409511 
        3.58146       0.0373415       0.0405028 
        3.59719       0.0369322       0.0400603 
        3.61292       0.0364659       0.0396245 
        3.62859       0.0361606       0.0391969 
        3.64429       0.0358598       0.0387747 
        3.66003       0.0355996       0.0383575 
        3.67578       0.0352292       0.0379466 
        3.69146       0.0349055       0.0375433 
        3.70712       0.0345601       0.0371465 
        3.72284       0.0341126        0.036754 
        3.73853       0.0339982       0.0363679 
        3.75422       0.0334683       0.0359872 
        3.76993       0.0332463       0.0356116 
        3.78564       0.0329853       0.0352416 
        3.80137       0.0327162       0.0348761 
        3.81707       0.0323016       0.0345167 
        3.83279       0.0320761        0.034162 
        3.84853       0.0317999       0.0338117 
        3.86424       0.0316209       0.0334671 
        3.87992       0.0313524       0.0331277 
        3.89561       0.0308981       0.0327931 
        3.91134       0.0306989       0.0324624 
        3.92704       0.0303559       0.0321366 
        3.94273       0.0301126       0.0318157 
        3.95845       0.0298577       0.0314985 
        3.97418       0.0295965       0.0311856 
        3.98988       0.0291717       0.0308774 
        4.00554       0.0290112       0.0305741 
        4.02125        0.028705       0.0302741 
        4.03698       0.0282516       0.0299777 
        4.05268       0.0280175       0.0296859 
        4.06839       0.0275694       0.0293977 
         4.0841       0.0271752       0.0291135 
        4.09983       0.0267657       0.0288327 
        4.11555       0.0264435       0.0285557 
        4.13124       0.0260583        0.028283 
        4.14693       0.0257365       0.0280137 
        4.16266       0.0253601       0.0277473 
        4.17839       0.0251365       0.0274845 
        4.19408       0.0247929       0.0272257 
        4.20977       0.0244949       0.0269702 
        4.22551       0.0242516       0.0267173 
        4.24123       0.0239576       0.0264679 
        4.25691        0.023724       0.0262224 
        4.27259       0.0234999       0.0259799 
        4.28831          0.0233         0.02574 
        4.30404       0.0230296       0.0255029 
        4.31974       0.0228089       0.0252693 
        4.33543       0.0226164       0.0250388 
        4.35116       0.0224222       0.0248106 
        4.36688       0.0223066       0.0245853 
        4.38255       0.0220593       0.0243636 
        4.39825        0.021989       0.0241443 
        4.41398       0.0217869       0.0239271 
         4.4297       0.0216923       0.0237129 
        4.44541       0.0215283       0.0235014 
        4.46111       0.0214216       0.0232926 
        4.47683       0.0213674       0.0230861 
        4.49251       0.0212795       0.0228826 
        4.50819       0.0211839       0.0226816 
         4.5239       0.0210866       0.0224828 
        4.53962       0.0210547       0.0222861 
        4.55535        0.021022       0.0220916 
        4.57106       0.0209471       0.0218997 
        4.58678       0.0209207       0.0217101 
         4.6025       0.0208362       0.0215227 
        4.61821       0.0209249       0.0213375 
        4.63391       0.0208727       0.0211547 
         4.6496       0.0208232       0.0209742 
        4.66532        0.020846       0.0207955 
        4.68103        0.021007       0.0206189 
        4.69673       0.0209494       0.0204446 
        4.71241       0.0209793       0.0202725 
        4.72811       0.0209389        0.020102 
        4.74384       0.0210683       0.0199333 
        4.75955       0.0211491       0.0197668 
        4.77525       0.0212692       0.0196023 
        4.79096       0.0213208       0.0194395 
        4.80669       0.0214578       0.0192784 
         4.8224        0.021565       0.0191194 
        4.83809        0.021605       0.0189623 
        4.85379       0.0218438       0.0188069 
         4.8695       0.0219073       0.0186531 
        4.88521       0.0221174        0.018501 
        4.90093       0.0222518       0.0183507 
        4.91663       0.0223971       0.0182022 
        4.93234        0.022551       0.0180551 
        4.94807       0.0227778       0.0179096 
        4.96377       0.0229473       0.0177659 
        4.97943       0.0232678       0.0176242 
        4.99514       0.0233253       0.0174836 
        5.01086       0.0236447       0.0173444 
        5.02654        0.023849       0.0172071 
        5.04227       0.0241015       0.0170709 
          5.058       0.0243785       0.0169361 
        5.07371       0.0246256       0.0168031 
        5.08942       0.0249708       0.0166714 
        5.10513       0.0252312       0.0165412 
        5.12084       0.0255547       0.0164122 
        5.13656       0.0259603       0.0162847 
        5.15225       0.0262247       0.0161587 
        5.16796       0.0265707       0.0160339 
        5.18369       0.0269944       0.0159103 
         5.1994       0.0272483       0.0157882 
        5.21509       0.0278356       0.0156675 
        5.23079       0.0280696       0.0155479 
        5.24649       0.0286213       0.0154296 
        5.26217       0.0289386       0.0153127 
        5.27788       0.0295083       0.0151968 
        5.29359       0.0299696       0.0150821 
        5.30933       0.0303475       0.0149684 
        5.32504       0.0308694       0.0148561 
        5.34073       0.0313552       0.0147451 
        5.35646       0.0318325       0.0146349 
        5.37218       0.0323824       0.0145259 
        5.38789       0.0329159       0.0144182 
        5.40357       0.0336072       0.0143117 
        5.41929       0.0343337        0.014206 
        5.43502        0.034846       0.0141013 
         5.4507       0.0354535        0.013998 
        5.46639       0.0360674       0.0138957 
        5.48212       0.0366867       0.0137942 
        5.49786       0.0375172       0.0136936 
        5.51353       0.0384762       0.0135945 
        5.52921        0.038736       0.0134962 
        5.54495       0.0397154       0.0133987 
        5.56066       0.0405984       0.0133022 
        5.57637       0.0415247       0.0132066 
        5.59207       0.0421677       0.0131121 
        5.60778        0.042862       0.0130185 
        5.62346       0.0438826        0.012926 
        5.63916       0.0448793       0.0128342 
        5.65487       0.0456092       0.0127433 
         5.6706       0.0464226       0.0126532 
        5.68633       0.0473913       0.0125639 
        5.70203        0.048494       0.0124756 
        5.71773       0.0498764       0.0123883 
        5.73344       0.0508744       0.0123017 
        5.74916       0.0521105       0.0122158 
        5.76486       0.0531533       0.0121309 
        5.78054       0.0547819       0.0120469 
        5.79626       0.0553473       0.0119635 
          5.812       0.0569412       0.0118808 
         5.8277       0.0580144       0.0117991 
        5.84339       0.0594502       0.0117182 
        5.85911       0.0607182       0.0116379 
        5.87484       0.0619276       0.0115584 
        5.89053       0.0638188       0.0114797 
        5.90623       0.0652032       0.0114018 
        5.92195        0.066657       0.0113244 
        5.93767       0.0686178       0.0112478 
        5.95336       0.0694125       0.0111721 
        5.96905       0.0715503        0.011097 
        5.98476       0.0728584       0.0110226 
        6.00048       0.0747976       0.0109488 
        6.01617       0.0770031       0.0108758 
        6.03185       0.0784024       0.0108035 
        6.04756       0.0804349       0.0107317 
        6.06331       0.0827773       0.0106605 
        6.07903       0.0844203         0.01059 
        6.09473       0.0862216       0.0105202 
        6.11044       0.0887697        0.010451 
        6.12616       0.0907682       0.0103824 
        6.14186       0.0929361       0.0103145 
        6.15755       0.0953079       0.0102472 
        6.17326        0.097892       0.0101805 
        6.18898        0.100872       0.0101143 
        6.20467        0.102718       0.0100489 
        6.22036        0.106737      0.00998399 
         6.2361        0.108273       0.0099195 
         6.2518        0.111232       0.0098557 
        6.26748        0.112872      0.00979259 
        6.28319        0.116528      0.00972987 
        6.29893        0.119873      0.00966764 
        6.31463        0.122823      0.00960606 
        6.33033        0.125527      0.00954503 
        6.34604        0.129476      0.00948449 
        6.36177        0.132374      0.00942442 
        6.37747        0.135309      0.00936499 
