# k  (h/Mpc)    Pcb(k)  (Mpc/h)^3    Pcb_linear(k) (Mpc/h)^3   ShotnoiseSubtracted = true
      0.0200456           10631         10823.1 
      0.0350414         7130.96         7320.36 
      0.0492313         4943.18         4955.56 
      0.0637834         4166.05         4052.47 
      0.0800726         3369.47         3313.54 
       0.096163          2308.9         2346.32 
       0.111083         1749.36         1761.85 
       0.126058         1593.55          1549.3 
       0.142273         1423.65         1374.72 
       0.158546         1181.31         1085.69 
        0.17375         914.649         866.195 
       0.188953         868.748         769.255 
       0.204907         828.397         707.036 
       0.220756         705.998           609.6 
        0.23588         612.084          512.89 
         0.2514         527.786         452.663 
       0.267535         511.987         417.009 
       0.283568         466.495         376.257 
       0.299022         431.897         330.918 
       0.314451         399.609         295.426 
       0.330372         368.264         271.484 
       0.346141         331.966         250.387 
       0.361624          319.39         227.561 
       0.377134          296.19          206.53 
       0.392932         276.584         190.087 
       0.408854          264.75         176.484 
       0.424564         252.352         163.284 
       0.440253         241.692         150.518 
       0.455999         226.606         139.487 
       0.471626         210.741         130.251 
        0.48727         203.468          121.78 
       0.502856         196.123          113.71 
       0.518488         192.705         106.279 
       0.534347         182.283         99.6396 
       0.550082         169.842          93.693 
       0.565732         165.419         88.1774 
       0.581496         157.528          82.984 
       0.597222         152.886         78.2617 
       0.612804         146.856         73.9932 
       0.628434         142.272         70.0321 
       0.644267         137.319         66.2841 
       0.660051         135.488         62.8118 
       0.675724         131.505           59.63 
       0.691403         127.438         56.6757 
       0.707174         122.121         53.9043 
       0.722871         120.692         51.3284 
        0.73838         118.152         48.9476 
       0.754018         113.506         46.6993 
       0.769845         110.752         44.5673 
        0.78569          108.32         42.5661 
       0.801365         105.086         40.7074 
       0.817031         101.329          38.961 
       0.832809         100.136         37.3063 
       0.848511         96.8155         35.7557 
       0.864097         94.7518         34.3044 
       0.879701          92.962         32.9328 
       0.895507         90.8201         31.6206 
       0.911279         89.1883         30.3831 
        0.92691         87.6812         29.2224 
       0.942635         85.1123         28.1165 
       0.958396         84.8045         27.0657 
       0.974128         82.4139          26.071 
       0.989692         80.4765         25.1363 
        1.00528         78.6034         24.2464 
        1.02113         77.8485         23.3858 
        1.03692         75.0897         22.5704 
        1.05264         75.0441         21.7979 
        1.06832         72.7721         21.0628 
        1.08405         71.7394         20.3599 
        1.09979         71.3877         19.6887 
        1.11537         68.8676         19.0546 
        1.13105         69.0253         18.4448 
        1.14679         67.6799         17.8594 
        1.16256         66.5649         17.2984 
        1.17828         65.1035         16.7635 
        1.19395         64.1543          16.253 
         1.2097         62.6415         15.7613 
        1.22537         62.8446         15.2924 
          1.241          61.255         14.8441 
        1.25666         59.9534         14.4127 
        1.27241         59.1871         13.9965 
        1.28819         58.1509         13.5961 
        1.30392         57.4918         13.2126 
        1.31957         56.8509         12.8457 
        1.33529         55.6233         12.4914 
        1.35108         55.3514         12.1491 
        1.36674         54.6958         11.8222 
         1.3824         53.3668         11.5076 
        1.39811         52.8974         11.2035 
        1.41389         52.1899         10.9092 
        1.42964         51.5255         10.6261 
        1.44531         50.5244         10.3544 
        1.46101         49.7812         10.0917 
        1.47667         49.6939         9.83892 
        1.49229         48.8698          9.5955 
        1.50793         48.3815         9.36007 
        1.52367         47.4046         9.13106 
        1.53953         46.9832         8.90819 
        1.55526         46.4421         8.69458 
        1.57092         46.0579         8.48887 
        1.58662         45.3051         8.28935 
        1.60235         44.8488         8.09588 
        1.61809         44.1927          7.9085 
        1.63369         43.4878         7.72874 
        1.64941         43.0884          7.5533 
        1.66519         42.2908         7.38269 
        1.68085         42.0991         7.21858 
        1.69652         41.3719         7.05942 
        1.71228         41.0904         6.90417 
        1.72806         40.7003         6.75348 
        1.74368         40.0132         6.60882 
        1.75933         39.6272         6.46812 
        1.77505         39.2284         6.33086 
        1.79081          38.727         6.19736 
         1.8065         38.3721         6.06829 
        1.82218         37.8929         5.94302 
        1.83797         37.3126         5.82043 
        1.85367         36.8969         5.70199 
        1.86928          36.438         5.58757 
        1.88497         36.3556         5.47567 
        1.90073         35.7995         5.36643 
        1.91647         35.3543         5.26027 
        1.93218         35.0704         5.15722 
        1.94787          34.654         5.05709 
        1.96363         34.3128         4.95923 
        1.97935         33.7653         4.86416 
        1.99499         33.5461         4.77213 
        2.01064         33.1975         4.68236 
         2.0264         32.6448         4.59433 
        2.04216         32.4123         4.50862 
        2.05781         31.9339         4.42564 
        2.07353         31.6901         4.34445 
        2.08928           31.55         4.26514 
        2.10499         31.0378         4.18801 
        2.12065          30.635         4.11304 
        2.13633          30.496         4.03983 
        2.15211         30.1225         3.96794 
        2.16785         29.6227         3.89801 
        2.18349         29.4496          3.8302 
        2.19916         29.2172         3.76386 
        2.21489         28.8179         3.69888 
        2.23063         28.4924          3.6354 
         2.2463         28.1624         3.57369 
        2.26194         27.9464         3.51357 
        2.27765         27.6964         3.45453 
        2.29341         27.4178         3.39669 
        2.30914         27.1656          3.3403 
        2.32486         26.7898         3.28523 
        2.34061         26.6081         3.23131 
        2.35635         26.3635         3.17864 
        2.37203         26.1592         3.12734 
        2.38768         25.7784         3.07728 
        2.40339         25.6598         3.02813 
        2.41914         25.3771         2.97995 
        2.43483         25.0354         2.93298 
         2.4505         24.8527         2.88711 
        2.46622         24.5898         2.84206 
        2.48195         24.3704         2.79797 
        2.49759         24.1574         2.75506 
        2.51328         23.8209         2.71293 
        2.52906         23.7535         2.67143 
        2.54479          23.391         2.63094 
        2.56049         23.1635         2.59138 
        2.57618         22.9133         2.55266 
        2.59189         22.8324         2.51468 
        2.60758         22.5831         2.47753 
        2.62325         22.2758         2.44118 
        2.63898          22.197         2.40543 
        2.65468         21.9023         2.37047 
        2.67044         21.7388         2.33606 
        2.68618         21.4509         2.30242 
        2.70184         21.2782         2.26957 
        2.71755         21.1735         2.23728 
        2.73329         20.9141         2.20557 
        2.74897         20.6677         2.17458 
        2.76462         20.5217         2.14425 
        2.78034         20.4047         2.11438 
        2.79607         20.2273         2.08505 
        2.81179          19.959         2.05631 
        2.82749         19.8206         2.02814 
        2.84321         19.6174         2.00047 
        2.85893         19.3381         1.97333 
        2.87462          19.261         1.94673 
        2.89033          19.158          1.9206 
        2.90605         18.9445         1.89493 
        2.92176         18.7347         1.86974 
        2.93747         18.6054         1.84503 
        2.95318          18.384         1.82075 
        2.96891         18.2573         1.79691 
        2.98456         18.0995         1.77359 
        3.00023         17.8571         1.75066 
        3.01596         17.7646         1.72806 
        3.03164         17.5975         1.70592 
        3.04738         17.4407         1.68411 
         3.0631         17.3041         1.66269 
        3.07883         17.1549         1.64163 
        3.09456         16.9336         1.62095 
        3.11026         16.8146         1.60066 
        3.12596         16.6803         1.58071 
        3.14163         16.5641         1.56115 
        3.15734         16.3958         1.54188 
        3.17308         16.2218         1.52289 
        3.18879         16.1076         1.50427 
        3.20447         15.9563         1.48599 
         3.2202         15.8176         1.46795 
         3.2359         15.6494         1.45025 
        3.25157         15.5581         1.43288 
        3.26729         15.4554         1.41574 
        3.28304         15.2828         1.39886 
        3.29877         15.0635         1.38226 
        3.31446         14.9884         1.36598 
        3.33014         14.8574         1.34997 
        3.34585         14.6973         1.33419 
        3.36158         14.6031         1.31865 
        3.37727         14.4645         1.30339 
        3.39294         14.3024          1.2884 
        3.40867         14.1942         1.27359 
        3.42439         14.0877         1.25901 
        3.44008         13.9572          1.2447 
        3.45578         13.8254         1.23059 
        3.47153          13.746         1.21668 
        3.48724         13.5814           1.203 
        3.50292         13.5295         1.18957 
        3.51859         13.3754         1.17635 
        3.53431         13.2776         1.16328 
        3.55007         13.1727         1.15039 
        3.56577         13.0568         1.13774 
        3.58146         12.9594         1.12529 
        3.59719         12.8009         1.11299 
        3.61292         12.7175         1.10089 
        3.62859         12.5978           1.089 
        3.64429         12.5063         1.07728 
        3.66003         12.4119         1.06568 
        3.67578         12.3407         1.05427 
        3.69146         12.2164         1.04306 
        3.70712         12.0822         1.03204 
        3.72284         12.0219         1.02113 
        3.73853          11.891         1.01041 
        3.75422         11.7575         0.99983 
        3.76993         11.7038        0.989395 
        3.78564         11.5682        0.979114 
        3.80137         11.5205        0.968962 
        3.81707         11.4246        0.958975 
        3.83279         11.3009        0.949121 
        3.84853         11.2317         0.93939 
        3.86424         11.0874        0.929814 
        3.87992         11.0155        0.920386 
        3.89561         10.9216        0.911089 
        3.91134         10.8478        0.901901 
        3.92704         10.7578         0.89285 
        3.94273         10.6581        0.883933 
        3.95845         10.5789        0.875121 
        3.97418          10.532        0.866427 
        3.98988         10.3993        0.857864 
        4.00554         10.3569         0.84944 
        4.02125         10.2536        0.841104 
        4.03698          10.142        0.832868 
        4.05268         10.0882        0.824761 
        4.06839          10.008        0.816756 
         4.0841         9.86967         0.80886 
        4.09983          9.8225        0.801057 
        4.11555         9.75949         0.79336 
        4.13124         9.66093        0.785785 
        4.14693         9.60968        0.778303 
        4.16266         9.50179        0.770902 
        4.17839         9.44816        0.763601 
        4.19408         9.36079        0.756411 
        4.20977         9.28759        0.749311 
        4.22551         9.21384        0.742284 
        4.24123         9.14676        0.735356 
        4.25691         9.09516        0.728535 
        4.27259         8.99509        0.721798 
        4.28831         8.92263        0.715132 
        4.30404          8.8524        0.708545 
        4.31974         8.80363        0.702055 
        4.33543         8.73159         0.69565 
        4.35116         8.64547         0.68931 
        4.36688         8.58664        0.683051 
        4.38255         8.51114        0.676893 
        4.39825         8.45861        0.670798 
        4.41398         8.37609        0.664766 
         4.4297         8.31227        0.658814 
        4.44541         8.25163        0.652937 
        4.46111         8.20472        0.647136 
        4.47683         8.13604        0.641401 
        4.49251         8.08051        0.635747 
        4.50819         7.98386        0.630163 
         4.5239         7.94242        0.624638 
        4.53962          7.8953        0.619172 
        4.55535         7.81506        0.613769 
        4.57106         7.75342        0.608439 
        4.58678         7.69498         0.60317 
         4.6025         7.62824        0.597963 
        4.61821         7.57184        0.592819 
        4.63391         7.52449        0.587741 
         4.6496         7.48149        0.582725 
        4.66532         7.40707         0.57776 
        4.68103         7.35696        0.572855 
        4.69673         7.29812        0.568011 
        4.71241         7.24532        0.563229 
        4.72811         7.16533        0.558494 
        4.74384         7.14123        0.553807 
        4.75955         7.08075        0.549181 
        4.77525          7.0429         0.54461 
        4.79096         6.98924        0.540086 
        4.80669         6.91883        0.535611 
         4.8224         6.86128        0.531192 
        4.83809         6.82093        0.526828 
        4.85379         6.76168         0.52251 
         4.8695          6.7189        0.518237 
        4.88521         6.68615        0.514013 
        4.90093         6.60493        0.509836 
        4.91663         6.56402        0.505709 
        4.93234         6.51598        0.501624 
        4.94807          6.4788        0.497581 
        4.96377         6.42594         0.49359 
        4.97943         6.39904        0.489651 
        4.99514         6.32898        0.485745 
        5.01086          6.2843        0.481879 
        5.02654         6.25399        0.478065 
        5.04227         6.20481        0.474281 
          5.058         6.16071        0.470536 
        5.07371         6.11549        0.466839 
        5.08942         6.06769        0.463181 
        5.10513         6.02998        0.459562 
        5.12084         5.97978         0.45598 
        5.13656         5.94462        0.452436 
        5.15225         5.89411        0.448937 
        5.16796         5.86794        0.445469 
        5.18369         5.81711        0.442034 
         5.1994         5.76749        0.438642 
        5.21509         5.74058        0.435288 
        5.23079         5.68606        0.431966 
        5.24649         5.66247        0.428681 
        5.26217         5.62321        0.425432 
        5.27788         5.56872        0.422213 
        5.29359         5.54781        0.419026 
        5.30933          5.5084        0.415867 
        5.32504         5.47685        0.412747 
        5.34073         5.42883        0.409662 
        5.35646         5.38453        0.406602 
        5.37218         5.36109        0.403573 
        5.38789         5.32048        0.400579 
        5.40357         5.27355         0.39762 
        5.41929         5.25022        0.394684 
        5.43502         5.21091        0.391777 
         5.4507          5.1787        0.388906 
        5.46639         5.13393        0.386064 
        5.48212         5.09856        0.383243 
        5.49786         5.07487        0.380448 
        5.51353         5.02501        0.377694 
        5.52921         5.00628        0.374964 
        5.54495         4.97155        0.372254 
        5.56066         4.93567        0.369573 
        5.57637         4.90269        0.366919 
        5.59207         4.86862        0.364294 
        5.60778         4.83035        0.361693 
        5.62346         4.80368        0.359122 
        5.63916          4.7683        0.356572 
        5.65487         4.73875        0.354047 
         5.6706         4.71776        0.351542 
        5.68633         4.67106        0.349062 
        5.70203         4.64841         0.34661 
        5.71773         4.62937        0.344182 
        5.73344         4.58597        0.341776 
        5.74916         4.55364        0.339391 
        5.76486         4.53379        0.337032 
        5.78054         4.49928        0.334699 
        5.79626         4.46266        0.332382 
          5.812         4.44566        0.330084 
         5.8277         4.41163        0.327814 
        5.84339         4.38613        0.325566 
        5.85911          4.3571        0.323335 
        5.87484         4.33254        0.321125 
        5.89053         4.30428         0.31894 
        5.90623         4.26634        0.316775 
        5.92195         4.24929        0.314626 
        5.93767         4.21203        0.312498 
        5.95336         4.19306        0.310393 
        5.96905          4.1711        0.308308 
        5.98476         4.13391         0.30624 
        6.00048         4.12072         0.30419 
        6.01617         4.08668        0.302161 
        6.03185         4.05427        0.300153 
        6.04756         4.03662        0.298159 
        6.06331         4.00901        0.296179 
        6.07903         3.98562        0.294221 
        6.09473         3.96471        0.292282 
        6.11044         3.92801        0.290359 
        6.12616         3.91093        0.288454 
        6.14186          3.8899        0.286568 
        6.15755         3.85916        0.284698 
        6.17326          3.8478        0.282844 
        6.18898         3.81871        0.281006 
        6.20467         3.79652        0.279187 
        6.22036         3.77495        0.277384 
         6.2361         3.74919        0.275593 
         6.2518          3.7238         0.27382 
        6.26748         3.70459        0.272067 
        6.28319         3.68154        0.270324 
        6.29893         3.65259        0.268595 
        6.31463         3.63852        0.266884 
        6.33033           3.616        0.265189 
        6.34604         3.59022        0.263507 
        6.36177         3.57021        0.261838 
        6.37747         3.55591        0.260187 
