# k  (h/Mpc)    Pcb(k)  (Mpc/h)^3    Pcb_linear(k) (Mpc/h)^3   ShotnoiseSubtracted = true
      0.0200456          749.34         759.799 
      0.0350414         512.916         513.903 
      0.0492313         349.976          347.89 
      0.0637834         287.712         284.491 
      0.0800726         233.237         232.617 
       0.096163         164.378         164.716 
       0.111083         123.587         123.685 
       0.126058         109.386         108.764 
       0.142273         96.8554          96.508 
       0.158546         76.9698         76.2172 
        0.17375         60.9237         60.8085 
       0.188953         54.5846         54.0032 
       0.204907         50.9631         49.6353 
       0.220756         43.3711          42.795 
        0.23588         36.6835         36.0058 
         0.2514         32.1727         31.7778 
       0.267535         29.6822         29.2748 
       0.283568          26.824         26.4139 
       0.299022         23.8278         23.2311 
       0.314451         20.9665         20.7395 
       0.330372         19.4146         19.0587 
       0.346141         17.8624         17.5776 
       0.361624         16.3444         15.9752 
       0.377134         15.0124         14.4988 
       0.392932         13.3965         13.3445 
       0.408854         12.7862         12.3895 
       0.424564         11.7889         11.4629 
       0.440253          10.866         10.5667 
       0.455999          10.154         9.79225 
       0.471626         9.53263         9.14385 
        0.48727         8.88011          8.5492 
       0.502856         8.25397         7.98264 
       0.518488         7.84336         7.46096 
       0.534347         7.44758         6.99489 
       0.550082         6.82386         6.57743 
       0.565732         6.30618         6.19022 
       0.581496         6.11799         5.82563 
       0.597222         5.82146         5.49412 
       0.612804         5.43715         5.19446 
       0.628434         5.22236         4.91639 
       0.644267         4.94259         4.65327 
       0.660051         4.65542         4.40951 
       0.675724          4.4266         4.18614 
       0.691403         4.25413         3.97874 
       0.707174         4.02094         3.78418 
       0.722871          3.8322         3.60335 
        0.73838          3.6761         3.43622 
       0.754018         3.55021         3.27838 
       0.769845         3.35707         3.12871 
        0.78569         3.22723         2.98822 
       0.801365         3.07741         2.85773 
       0.817031         2.96466         2.73514 
       0.832809         2.84444         2.61897 
       0.848511         2.69655         2.51011 
       0.864097         2.58387         2.40823 
       0.879701         2.49067         2.31194 
       0.895507         2.39042         2.21982 
       0.911279         2.33678         2.13295 
        0.92691         2.24066         2.05147 
       0.942635         2.14524         1.97383 
       0.958396         2.06107         1.90007 
       0.974128         1.99406         1.83023 
       0.989692         1.94226         1.76462 
        1.00528         1.85779         1.70214 
        1.02113         1.78428         1.64173 
        1.03692          1.7472         1.58449 
        1.05264         1.68138         1.53025 
        1.06832          1.6351         1.47865 
        1.08405         1.55502          1.4293 
        1.09979          1.5182         1.38219 
        1.11537         1.47594         1.33767 
        1.13105         1.43517         1.29486 
        1.14679         1.39546         1.25376 
        1.16256         1.33894         1.21438 
        1.17828         1.30472         1.17683 
        1.19395         1.26673         1.14099 
         1.2097         1.21153         1.10648 
        1.22537          1.1882         1.07356 
          1.241         1.15811         1.04208 
        1.25666         1.14242          1.0118 
        1.27241         1.08715        0.982582 
        1.28819          1.0611        0.954474 
        1.30392         1.03958        0.927551 
        1.31957         1.01242        0.901791 
        1.33529        0.979451         0.87692 
        1.35108        0.953843        0.852892 
        1.36674        0.920076        0.829939 
         1.3824        0.904329        0.807856 
        1.39811        0.878921        0.786506 
        1.41389        0.861054        0.765849 
        1.42964        0.840353        0.745972 
        1.44531        0.814862          0.7269 
        1.46101        0.799255        0.708457 
        1.47667        0.768234         0.69071 
        1.49229        0.761313        0.673622 
        1.50793        0.738093        0.657095 
        1.52367        0.723697        0.641017 
        1.53953        0.700968        0.625372 
        1.55526        0.687045        0.610376 
        1.57092        0.669918        0.595934 
        1.58662        0.657908        0.581928 
        1.60235        0.641334        0.568346 
        1.61809        0.623001        0.555192 
        1.63369        0.619305        0.542572 
        1.64941        0.598629        0.530256 
        1.66519        0.585994        0.518279 
        1.68085        0.569363        0.506758 
        1.69652         0.55844        0.495584 
        1.71228        0.549904        0.484686 
        1.72806        0.533046        0.474107 
        1.74368         0.52729        0.463952 
        1.75933        0.512892        0.454074 
        1.77505         0.50307        0.444438 
        1.79081        0.493259        0.435066 
         1.8065         0.47866        0.426005 
        1.82218        0.472915        0.417211 
        1.83797        0.462502        0.408605 
        1.85367         0.45798        0.400291 
        1.86928        0.446252        0.392258 
        1.88497         0.43584        0.384402 
        1.90073        0.425988        0.376733 
        1.91647        0.421124        0.369281 
        1.93218        0.410679        0.362047 
        1.94787        0.403214        0.355017 
        1.96363        0.394484        0.348147 
        1.97935         0.38699        0.341473 
        1.99499        0.380029        0.335013 
        2.01064        0.372617         0.32871 
         2.0264        0.364879        0.322531 
        2.04216        0.360594        0.316513 
        2.05781        0.352998        0.310688 
        2.07353        0.344828        0.304989 
        2.08928        0.337458        0.299421 
        2.10499        0.334058        0.294006 
        2.12065        0.329368        0.288743 
        2.13633        0.322857        0.283604 
        2.15211        0.316631        0.278557 
        2.16785        0.309924        0.273647 
        2.18349        0.304382        0.268887 
        2.19916        0.300141         0.26423 
        2.21489        0.294174        0.259669 
        2.23063        0.289834        0.255212 
         2.2463         0.28545         0.25088 
        2.26194        0.277442        0.246659 
        2.27765         0.27438        0.242514 
        2.29341        0.270673        0.238454 
        2.30914        0.266975        0.234496 
        2.32486        0.261611        0.230629 
        2.34061        0.257194        0.226844 
        2.35635        0.251569        0.223147 
        2.37203        0.248308        0.219545 
        2.38768        0.244317        0.216031 
        2.40339         0.24121        0.212581 
        2.41914        0.237434        0.209198 
        2.43483        0.233261        0.205901 
         2.4505        0.228462         0.20268 
        2.46622        0.225336        0.199518 
        2.48195        0.222642        0.196423 
        2.49759        0.219155         0.19341 
        2.51328        0.214994        0.190453 
        2.52906         0.21246        0.187539 
        2.54479         0.20828        0.184697 
        2.56049        0.204783        0.181919 
        2.57618        0.202001        0.179201 
        2.59189        0.199726        0.176535 
        2.60758        0.197108        0.173927 
        2.62325        0.193316        0.171375 
        2.63898        0.190797        0.168866 
        2.65468        0.187328        0.166412 
        2.67044        0.184975        0.163996 
        2.68618        0.181899        0.161634 
        2.70184        0.179537        0.159328 
        2.71755        0.176254        0.157061 
        2.73329        0.174222        0.154835 
        2.74897        0.172194         0.15266 
        2.76462         0.16949        0.150531 
        2.78034         0.16711        0.148434 
        2.79607        0.164624        0.146374 
        2.81179        0.162863        0.144357 
        2.82749        0.160017        0.142379 
        2.84321        0.158193        0.140437 
        2.85893         0.15607        0.138531 
        2.87462        0.153567        0.136664 
        2.89033        0.151671         0.13483 
        2.90605        0.149591        0.133028 
        2.92176        0.147612         0.13126 
        2.93747        0.145398        0.129524 
        2.95318        0.143872         0.12782 
        2.96891        0.141835        0.126146 
        2.98456        0.139781        0.124509 
        3.00023        0.138482        0.122899 
        3.01596        0.136287        0.121313 
        3.03164        0.134988        0.119759 
        3.04738         0.13244        0.118228 
         3.0631        0.131403        0.116724 
        3.07883        0.129164        0.115246 
        3.09456        0.127848        0.113794 
        3.11026        0.126539        0.112369 
        3.12596        0.124417        0.110969 
        3.14163        0.123231        0.109596 
        3.15734        0.122107        0.108243 
        3.17308         0.12061         0.10691 
        3.18879        0.119142        0.105602 
        3.20447        0.117026        0.104319 
         3.2202        0.116399        0.103053 
         3.2359        0.114786         0.10181 
        3.25157        0.113533        0.100591 
        3.26729        0.111817       0.0993879 
        3.28304        0.111237       0.0982023 
        3.29877        0.109709       0.0970375 
        3.31446        0.108422       0.0958942 
        3.33014        0.107378       0.0947704 
        3.34585        0.106848       0.0936628 
        3.36158        0.105282       0.0925714 
        3.37727        0.104345       0.0915007 
        3.39294        0.102835        0.090448 
        3.40867        0.101629       0.0894081 
        3.42439        0.100841       0.0883851 
        3.44008       0.0993064       0.0873801 
        3.45578       0.0987809         0.08639 
        3.47153        0.097573       0.0854131 
        3.48724       0.0967314        0.084453 
        3.50292       0.0957234       0.0835099 
        3.51859       0.0944873       0.0825817 
        3.53431       0.0935018       0.0816648 
        3.55007       0.0929996       0.0807595 
        3.56577       0.0917232       0.0798715 
        3.58146       0.0910691       0.0789973 
        3.59719       0.0902939       0.0781342 
        3.61292       0.0895467       0.0772842 
        3.62859       0.0885985       0.0764501 
        3.64429       0.0876082       0.0756268 
        3.66003       0.0870711        0.074813 
        3.67578       0.0860847       0.0740116 
        3.69146       0.0852068       0.0732249 
        3.70712       0.0847072       0.0724511 
        3.72284       0.0840034       0.0716856 
        3.73853       0.0832952       0.0709325 
        3.75422       0.0827274       0.0701899 
        3.76993       0.0816411       0.0694574 
        3.78564       0.0808792       0.0687356 
        3.80137       0.0803232       0.0680229 
        3.81707       0.0795973       0.0673218 
        3.83279       0.0791344       0.0666301 
        3.84853       0.0782324       0.0659469 
        3.86424       0.0775826       0.0652747 
        3.87992       0.0768676       0.0646128 
        3.89561        0.076227       0.0639601 
        3.91134       0.0758174       0.0633151 
        3.92704       0.0749344       0.0626797 
        3.94273       0.0741546       0.0620537 
        3.95845       0.0734265       0.0614351 
        3.97418       0.0733184       0.0608248 
        3.98988       0.0721621       0.0602237 
        4.00554       0.0718297       0.0596322 
        4.02125       0.0709377       0.0590471 
        4.03698       0.0699429       0.0584689 
        4.05268       0.0690973       0.0578998 
        4.06839       0.0682342       0.0573378 
         4.0841       0.0672604       0.0567835 
        4.09983       0.0664993       0.0562357 
        4.11555       0.0655067       0.0556953 
        4.13124       0.0644968       0.0551636 
        4.14693       0.0639535       0.0546383 
        4.16266       0.0631199       0.0541187 
        4.17839       0.0624118       0.0536062 
        4.19408       0.0616135       0.0531015 
        4.20977       0.0610586        0.052603 
        4.22551       0.0604227       0.0521098 
        4.24123       0.0596225       0.0516234 
        4.25691       0.0590033       0.0511445 
        4.27259       0.0584474       0.0506715 
        4.28831       0.0578727       0.0502036 
        4.30404       0.0574419       0.0497412 
        4.31974       0.0569926       0.0492856 
        4.33543       0.0564643        0.048836 
        4.35116       0.0558956       0.0483908 
        4.36688       0.0553826       0.0479515 
        4.38255       0.0547938       0.0475192 
        4.39825        0.054682       0.0470913 
        4.41398       0.0542903       0.0466678 
         4.4297       0.0539305         0.04625 
        4.44541       0.0536948       0.0458374 
        4.46111       0.0533216       0.0454301 
        4.47683       0.0529161       0.0450275 
        4.49251       0.0526884       0.0446306 
        4.50819       0.0523235       0.0442386 
         4.5239       0.0521873       0.0438507 
        4.53962        0.052027        0.043467 
        4.55535        0.051863       0.0430878 
        4.57106       0.0515431       0.0427135 
        4.58678       0.0513567       0.0423437 
         4.6025       0.0514681       0.0419781 
        4.61821       0.0513866        0.041617 
        4.63391       0.0512529       0.0412605 
         4.6496       0.0511292       0.0409084 
        4.66532       0.0510779       0.0405598 
        4.68103       0.0510459       0.0402155 
        4.69673       0.0509534       0.0398755 
        4.71241       0.0510294       0.0395397 
        4.72811       0.0510232       0.0392073 
        4.74384       0.0511016       0.0388783 
        4.75955       0.0513635       0.0385535 
        4.77525       0.0514795       0.0382327 
        4.79096       0.0513752       0.0379151 
        4.80669       0.0514243       0.0376009 
         4.8224       0.0519103       0.0372907 
        4.83809       0.0518827       0.0369843 
        4.85379       0.0519986       0.0366812 
         4.8695       0.0522133       0.0363812 
        4.88521       0.0526289       0.0360847 
        4.90093       0.0527456       0.0357915 
        4.91663       0.0529441       0.0355018 
        4.93234       0.0532304       0.0352149 
        4.94807       0.0537369       0.0349311 
        4.96377       0.0540779       0.0346509 
        4.97943       0.0546149       0.0343744 
        4.99514       0.0546611       0.0341002 
        5.01086       0.0551794       0.0338288 
        5.02654       0.0556035       0.0335611 
        5.04227       0.0560326       0.0332954 
          5.058       0.0565936       0.0330325 
        5.07371       0.0570908        0.032773 
        5.08942       0.0573076       0.0325162 
        5.10513       0.0580534       0.0322621 
        5.12084       0.0585714       0.0320106 
        5.13656       0.0590427       0.0317619 
        5.15225       0.0599412       0.0315162 
        5.16796       0.0606498       0.0312727 
        5.18369        0.061054       0.0310316 
         5.1994       0.0621647       0.0307935 
        5.21509       0.0624959        0.030558 
        5.23079       0.0633972       0.0303248 
        5.24649       0.0640489       0.0300942 
        5.26217       0.0651937       0.0298661 
        5.27788       0.0658994       0.0296401 
        5.29359       0.0667499       0.0294164 
        5.30933       0.0675217       0.0291947 
        5.32504       0.0685674       0.0289756 
        5.34073       0.0693232        0.028759 
        5.35646       0.0702674       0.0285442 
        5.37218       0.0717712       0.0283316 
        5.38789       0.0724768       0.0281214 
        5.40357         0.07343       0.0279137 
        5.41929       0.0746385       0.0277075 
        5.43502       0.0759734       0.0275035 
         5.4507       0.0769694       0.0273019 
        5.46639       0.0783414       0.0271024 
        5.48212       0.0794838       0.0269044 
        5.49786       0.0807954       0.0267081 
        5.51353       0.0824398       0.0265148 
        5.52921       0.0831737       0.0263232 
        5.54495       0.0851038       0.0261329 
        5.56066         0.08616       0.0259447 
        5.57637       0.0879834       0.0257584 
        5.59207         0.08983       0.0255741 
        5.60778       0.0913182       0.0253915 
        5.62346         0.09306        0.025211 
        5.63916       0.0943658       0.0250321 
        5.65487       0.0960251       0.0248547 
         5.6706       0.0981928       0.0246789 
        5.68633       0.0993056       0.0245048 
        5.70203        0.100817       0.0243327 
        5.71773        0.103562       0.0241622 
        5.73344        0.105164       0.0239933 
        5.74916        0.107928       0.0238259 
        5.76486        0.109384       0.0236603 
        5.78054        0.111335       0.0234965 
        5.79626        0.113106       0.0233338 
          5.812        0.115646       0.0231725 
         5.8277        0.118002       0.0230132 
        5.84339        0.119865       0.0228554 
        5.85911        0.122658       0.0226987 
        5.87484         0.12488       0.0225436 
        5.89053        0.128019       0.0223902 
        5.90623        0.130655       0.0222382 
        5.92195        0.132661       0.0220873 
        5.93767        0.135046       0.0219379 
        5.95336        0.138623       0.0217902 
        5.96905        0.140822       0.0216438 
        5.98476        0.143344       0.0214986 
        6.00048        0.146209       0.0213547 
        6.01617        0.148874       0.0212123 
        6.03185        0.153053       0.0210713 
        6.04756        0.155672       0.0209313 
        6.06331        0.158142       0.0207923 
        6.07903        0.162024       0.0206548 
        6.09473        0.165349       0.0205187 
        6.11044         0.16851       0.0203838 
        6.12616        0.170916         0.02025 
        6.14186        0.174105       0.0201176 
        6.15755        0.177598       0.0199864 
        6.17326        0.182701       0.0198562 
        6.18898        0.184855       0.0197271 
        6.20467        0.190247       0.0195995 
        6.22036        0.192388       0.0194729 
         6.2361        0.195978       0.0193471 
         6.2518        0.200544       0.0192227 
        6.26748        0.203678       0.0190996 
        6.28319        0.208225       0.0189773 
        6.29893        0.213324       0.0188559 
        6.31463        0.217664       0.0187358 
        6.33033        0.221577       0.0186168 
        6.34604        0.224178       0.0184987 
        6.36177        0.228933       0.0183815 
        6.37747        0.234662       0.0182656 
