# k  (h/Mpc)    Pcb(k)  (Mpc/h)^3    Pcb_linear(k) (Mpc/h)^3   ShotnoiseSubtracted = true
      0.0200456         24187.8         24624.3 
      0.0350414         17278.9         16655.1 
      0.0492313           11095         11274.8 
      0.0637834         8840.03         9220.07 
      0.0800726          7073.5         7538.87 
       0.096163         5614.99         5338.29 
       0.111083         4364.43         4008.52 
       0.126058         3581.86         3524.93 
       0.142273         3219.25         3127.73 
       0.158546          2631.4         2470.12 
        0.17375         2298.66         1970.74 
       0.188953         2167.41         1750.19 
       0.204907         1872.75         1608.63 
       0.220756         1702.26         1386.94 
        0.23588         1504.81         1166.91 
         0.2514         1355.51         1029.89 
       0.267535         1308.49         948.768 
       0.283568         1166.21         856.049 
       0.299022         1106.32         752.896 
       0.314451          1153.2         672.145 
       0.330372         1012.98         617.673 
       0.346141         929.274         569.673 
       0.361624         891.145         517.739 
       0.377134         855.366         469.891 
       0.392932         811.441         432.482 
       0.408854         779.651         401.531 
       0.424564         761.178           371.5 
       0.440253         703.015         342.455 
       0.455999         671.133         317.357 
       0.471626         684.982         296.343 
        0.48727         643.875         277.071 
       0.502856         619.036         258.709 
       0.518488         598.403         241.802 
       0.534347         576.228         226.697 
       0.550082         547.977         213.168 
       0.565732         540.335         200.619 
       0.581496          528.57         188.803 
       0.597222         517.086         178.059 
       0.612804         503.355         168.347 
       0.628434         482.963         159.335 
       0.644267         468.716         150.808 
       0.660051         464.006         142.908 
       0.675724         453.174         135.669 
       0.691403         441.777         128.947 
       0.707174         427.864         122.641 
       0.722871         424.834         116.781 
        0.73838         413.003         111.364 
       0.754018         402.426         106.249 
       0.769845         399.182         101.398 
        0.78569         390.012         96.8452 
       0.801365         376.602         92.6163 
       0.817031         374.275          88.643 
       0.832809         367.872         84.8783 
       0.848511         362.355         81.3502 
       0.864097         351.586         78.0483 
       0.879701         352.165         74.9278 
       0.895507         338.873         71.9422 
       0.911279         332.951         69.1267 
        0.92691         330.478         66.4861 
       0.942635         325.406         63.9698 
       0.958396         315.518         61.5792 
       0.974128         311.899         59.3159 
       0.989692          303.26         57.1894 
        1.00528         300.051         55.1646 
        1.02113          296.45         53.2067 
        1.03692         291.479         51.3516 
        1.05264         287.461         49.5939 
        1.06832         281.663         47.9215 
        1.08405         279.384         46.3222 
        1.09979         273.638         44.7953 
        1.11537         268.101         43.3526 
        1.13105         264.235         41.9651 
        1.14679         260.761         40.6333 
        1.16256         259.161         39.3569 
        1.17828         254.863         38.1397 
        1.19395         248.844         36.9784 
         1.2097         248.205         35.8597 
        1.22537         244.113         34.7929 
          1.241          237.32         33.7729 
        1.25666         236.374         32.7914 
        1.27241         233.243         31.8445 
        1.28819         228.375         30.9335 
        1.30392         228.508          30.061 
        1.31957         221.626         29.2261 
        1.33529          218.22         28.4201 
        1.35108          218.13         27.6414 
        1.36674         211.607         26.8975 
         1.3824         210.201         26.1818 
        1.39811         208.558         25.4899 
        1.41389          203.72         24.8204 
        1.42964          200.49         24.1762 
        1.44531         199.736         23.5581 
        1.46101         195.672         22.9604 
        1.47667         193.742         22.3852 
        1.49229         191.327         21.8314 
        1.50793         188.369         21.2958 
        1.52367         185.194         20.7747 
        1.53953         182.691         20.2677 
        1.55526         180.589         19.7817 
        1.57092         179.518         19.3136 
        1.58662         175.611         18.8597 
        1.60235         173.814         18.4195 
        1.61809         171.418         17.9932 
        1.63369         168.312         17.5842 
        1.64941         166.605         17.1851 
        1.66519         164.286         16.7969 
        1.68085         161.724         16.4235 
        1.69652         160.673         16.0614 
        1.71228         157.801         15.7082 
        1.72806         156.603         15.3653 
        1.74368         154.359         15.0362 
        1.75933         153.124         14.7161 
        1.77505         151.127         14.4038 
        1.79081         148.337         14.1001 
         1.8065         147.125         13.8064 
        1.82218         143.476         13.5214 
        1.83797         142.954         13.2425 
        1.85367         140.762          12.973 
        1.86928         139.432         12.7127 
        1.88497         138.296         12.4581 
        1.90073         136.951         12.2095 
        1.91647         134.393          11.968 
        1.93218         132.377         11.7336 
        1.94787         130.574         11.5057 
        1.96363         130.197         11.2831 
        1.97935         128.777         11.0668 
        1.99499         126.508         10.8574 
        2.01064         124.381         10.6532 
         2.0264         123.573         10.4529 
        2.04216         121.596         10.2579 
        2.05781         119.869         10.0691 
        2.07353         119.013         9.88438 
        2.08928         117.196         9.70392 
        2.10499          116.44         9.52845 
        2.12065          114.88         9.35786 
        2.13633         113.685         9.19131 
        2.15211          111.74         9.02775 
        2.16785         110.768         8.86863 
        2.18349         109.214         8.71436 
        2.19916         108.629         8.56343 
        2.21489         106.851         8.41559 
        2.23063         105.366         8.27115 
         2.2463         104.296         8.13076 
        2.26194         103.388         7.99397 
        2.27765         102.134         7.85965 
        2.29341         100.912         7.72806 
        2.30914         99.6797         7.59977 
        2.32486         98.5896         7.47446 
        2.34061         97.2834         7.35178 
        2.35635         96.4474         7.23196 
        2.37203          94.818         7.11524 
        2.38768         94.0438         7.00133 
        2.40339         92.8163         6.88952 
        2.41914         91.7872         6.77989 
        2.43483         91.0516         6.67304 
         2.4505         89.7562         6.56867 
        2.46622         88.8059         6.46618 
        2.48195          88.057         6.36587 
        2.49759         86.7255         6.26823 
        2.51328         86.1032         6.17239 
        2.52906         84.9916         6.07795 
        2.54479          83.855         5.98584 
        2.56049         82.5862         5.89582 
        2.57618         82.0719         5.80774 
        2.59189         80.7959         5.72132 
        2.60758         79.7453          5.6368 
        2.62325         79.1222         5.55409 
        2.63898         78.5367         5.47276 
        2.65468         77.5899         5.39323 
        2.67044         76.4785         5.31494 
        2.68618         75.6138         5.23839 
        2.70184         74.9709         5.16366 
        2.71755         74.1841         5.09019 
        2.73329          73.291         5.01805 
        2.74897         72.6685         4.94754 
        2.76462         71.8789         4.87855 
        2.78034         70.6446         4.81058 
        2.79607         69.9886         4.74385 
        2.81179         69.4677         4.67845 
        2.82749         69.0122         4.61437 
        2.84321         67.9446         4.55141 
        2.85893          67.184         4.48965 
        2.87462         66.7184         4.42915 
        2.89033         65.7875          4.3697 
        2.90605         65.2151          4.3113 
        2.92176         64.5953         4.25399 
        2.93747         64.1214         4.19776 
        2.95318         63.0801         4.14253 
        2.96891         62.5177         4.08827 
        2.98456         61.7458         4.03522 
        3.00023          61.261         3.98304 
        3.01596         60.7111         3.93163 
        3.03164         59.9682         3.88126 
        3.04738         59.6817         3.83164 
         3.0631         58.7495         3.78289 
        3.07883         58.1505           3.735 
        3.09456         57.4646         3.68794 
        3.11026         57.0124         3.64177 
        3.12596         56.4253         3.59639 
        3.14163         55.7001          3.5519 
        3.15734          55.004         3.50805 
        3.17308         54.5295         3.46483 
        3.18879           54.18         3.42247 
        3.20447         53.6886         3.38087 
         3.2202         53.0296         3.33984 
         3.2359          52.313         3.29957 
        3.25157         52.0059         3.26005 
        3.26729         51.5383         3.22106 
        3.28304         50.8724         3.18264 
        3.29877         50.4904         3.14489 
        3.31446         49.9022         3.10783 
        3.33014          49.405         3.07141 
        3.34585         48.9408         3.03552 
        3.36158         48.5438         3.00014 
        3.37727          47.943         2.96544 
        3.39294          47.506         2.93133 
        3.40867         47.0962         2.89762 
        3.42439         46.6064         2.86447 
        3.44008         46.1747          2.8319 
        3.45578         45.6872         2.79981 
        3.47153         45.1106         2.76815 
        3.48724         44.7985         2.73704 
        3.50292         44.4433         2.70647 
        3.51859         43.8508         2.67639 
        3.53431         43.4132         2.64667 
        3.55007         43.0846         2.61733 
        3.56577           42.74         2.58856 
        3.58146         42.2631         2.56022 
        3.59719         41.9475         2.53225 
        3.61292         41.4238          2.5047 
        3.62859         41.0974         2.47767 
        3.64429         40.6574         2.45099 
        3.66003         40.4233         2.42461 
        3.67578          40.013         2.39864 
        3.69146         39.5948         2.37314 
        3.70712         39.3105         2.34807 
        3.72284         38.8765         2.32326 
        3.73853         38.5501         2.29885 
        3.75422         38.1726         2.27478 
        3.76993         37.9103         2.25104 
        3.78564         37.4891         2.22765 
        3.80137         37.2863         2.20455 
        3.81707          36.671         2.18183 
        3.83279         36.5552         2.15941 
        3.84853         36.1976         2.13727 
        3.86424         35.7633         2.11549 
        3.87992         35.5572         2.09404 
        3.89561         35.2898         2.07288 
        3.91134         34.9426         2.05198 
        3.92704         34.6876         2.03139 
        3.94273         34.3343          2.0111 
        3.95845         34.0087         1.99105 
        3.97418         33.6858         1.97127 
        3.98988          33.408         1.95179 
        4.00554         33.1241         1.93262 
        4.02125         32.8489         1.91366 
        4.03698          32.502         1.89492 
        4.05268         32.3076         1.87647 
        4.06839         31.9447         1.85826 
         4.0841         31.6794         1.84029 
        4.09983         31.3906         1.82254 
        4.11555         31.0603         1.80503 
        4.13124         30.9267          1.7878 
        4.14693          30.617         1.77077 
        4.16266         30.3322         1.75393 
        4.17839         30.0013         1.73732 
        4.19408         29.7745         1.72096 
        4.20977         29.5821         1.70481 
        4.22551         29.2395         1.68882 
        4.24123          28.963         1.67306 
        4.25691         28.8285         1.65754 
        4.27259         28.5957         1.64221 
        4.28831         28.3221         1.62705 
        4.30404         28.0603         1.61206 
        4.31974         27.8826          1.5973 
        4.33543         27.5952         1.58272 
        4.35116         27.4006          1.5683 
        4.36688         27.1458         1.55406 
        4.38255         26.9153         1.54005 
        4.39825         26.6874         1.52618 
        4.41398          26.501         1.51246 
         4.4297         26.3011         1.49892 
        4.44541         26.0794         1.48554 
        4.46111          25.827         1.47234 
        4.47683         25.6817          1.4593 
        4.49251         25.4189         1.44643 
        4.50819         25.2425         1.43373 
         4.5239          24.972         1.42116 
        4.53962         24.8508         1.40872 
        4.55535         24.6197         1.39643 
        4.57106         24.4034          1.3843 
        4.58678         24.1887         1.37232 
         4.6025         24.0296         1.36047 
        4.61821         23.7504         1.34876 
        4.63391         23.6003         1.33721 
         4.6496         23.4311          1.3258 
        4.66532         23.2323          1.3145 
        4.68103          23.107         1.30334 
        4.69673         22.8556         1.29232 
        4.71241         22.7025         1.28144 
        4.72811         22.4836         1.27067 
        4.74384         22.3386         1.26001 
        4.75955         22.0911         1.24948 
        4.77525         21.9485         1.23908 
        4.79096         21.8076         1.22879 
        4.80669         21.6242         1.21861 
         4.8224         21.4448         1.20855 
        4.83809         21.2674         1.19862 
        4.85379         21.1125          1.1888 
         4.8695         20.9728         1.17908 
        4.88521         20.7865         1.16947 
        4.90093         20.5951         1.15997 
        4.91663         20.4627         1.15058 
        4.93234         20.2997         1.14128 
        4.94807         20.1807         1.13208 
        4.96377         19.9457           1.123 
        4.97943         19.8394         1.11404 
        4.99514          19.665         1.10515 
        5.01086         19.5113         1.09636 
        5.02654         19.4006         1.08768 
        5.04227         19.2441         1.07907 
          5.058         19.0718         1.07055 
        5.07371         18.8981         1.06214 
        5.08942         18.7459         1.05382 
        5.10513         18.6362         1.04558 
        5.12084         18.4784         1.03743 
        5.13656         18.3339         1.02937 
        5.15225         18.2493         1.02141 
        5.16796         18.0972         1.01352 
        5.18369         17.9763          1.0057 
         5.1994         17.8287        0.997985 
        5.21509         17.7239        0.990355 
        5.23079         17.5799        0.982796 
        5.24649         17.3992        0.975322 
        5.26217         17.3182        0.967931 
        5.27788         17.1269        0.960606 
        5.29359           17.05        0.953356 
        5.30933         16.9158        0.946169 
        5.32504         16.7886        0.939069 
        5.34073         16.6455         0.93205 
        5.35646         16.5513        0.925089 
        5.37218         16.3742        0.918197 
        5.38789         16.3227        0.911387 
        5.40357         16.1845        0.904653 
        5.41929          16.053        0.897973 
        5.43502         15.9727        0.891359 
         5.4507         15.8121        0.884828 
        5.46639         15.7298        0.878361 
        5.48212         15.6298        0.871944 
        5.49786         15.4868        0.865584 
        5.51353         15.3888        0.859318 
        5.52921         15.2844        0.853108 
        5.54495         15.1555        0.846942 
        5.56066         15.0512        0.840843 
        5.57637         14.9599        0.834805 
        5.59207         14.8718        0.828831 
        5.60778         14.7187        0.822914 
        5.62346         14.6609        0.817063 
        5.63916         14.5231        0.811263 
        5.65487         14.4018        0.805517 
         5.6706         14.3163        0.799819 
        5.68633         14.2424        0.794175 
        5.70203         14.1154        0.788597 
        5.71773         14.0131        0.783073 
        5.73344          13.922        0.777599 
        5.74916         13.8384        0.772173 
        5.76486         13.7247        0.766806 
        5.78054         13.6525        0.761498 
        5.79626         13.5312        0.756225 
          5.812         13.4661        0.750997 
         5.8277         13.3764        0.745834 
        5.84339         13.2974         0.74072 
        5.85911         13.1588        0.735643 
        5.87484         13.0737        0.730615 
        5.89053         13.0097        0.725644 
        5.90623         12.9016        0.720717 
        5.92195         12.8027        0.715828 
        5.93767         12.7254        0.710986 
        5.95336         12.6236        0.706197 
        5.96905         12.5416        0.701454 
        5.98476         12.4617        0.696748 
        6.00048         12.3667        0.692084 
        6.01617         12.2954        0.687468 
        6.03185         12.2085        0.682901 
        6.04756         12.1419        0.678363 
        6.06331         12.0474        0.673858 
        6.07903         11.9596        0.669403 
        6.09473         11.9134        0.664992 
        6.11044         11.8075        0.660617 
        6.12616         11.7321        0.656282 
        6.14186         11.6476         0.65199 
        6.15755         11.5447        0.647737 
        6.17326         11.4788        0.643519 
        6.18898         11.4105        0.639336 
        6.20467         11.3584        0.635198 
        6.22036         11.2554        0.631097 
         6.2361         11.1926        0.627021 
         6.2518         11.1365        0.622988 
        6.26748         11.0396        0.618999 
        6.28319         10.9715        0.615034 
        6.29893         10.8816          0.6111 
        6.31463         10.8373        0.607208 
        6.33033         10.7615         0.60335 
        6.34604         10.6816        0.599524 
        6.36177         10.6058        0.595727 
        6.37747         10.5561         0.59197 
