# k  (h/Mpc)    Pcb(k)  (Mpc/h)^3    Pcb_linear(k) (Mpc/h)^3   ShotnoiseSubtracted = true
      0.0200456         2544.86         2582.58 
      0.0350414         1731.55         1746.77 
      0.0492313         1187.98         1182.49 
      0.0637834         983.811         966.995 
      0.0800726         797.477         790.672 
       0.096163          556.08         559.877 
       0.111083         418.126         420.411 
       0.126058         374.358         369.693 
       0.142273         332.859         328.034 
       0.158546         266.215         259.065 
        0.17375         208.802          206.69 
       0.188953         190.293         183.559 
       0.204907         179.971         168.712 
       0.220756         152.167         145.462 
        0.23588         129.344         122.385 
         0.2514         112.872         108.014 
       0.267535         105.298         99.5062 
       0.283568         95.5313         89.7819 
       0.299022         85.8713         78.9633 
       0.314451          75.665         70.4941 
       0.330372          70.341         64.7811 
       0.346141         64.2872         59.7469 
       0.361624         59.5238         54.3002 
       0.377134         55.3744         49.2819 
       0.392932         48.9842         45.3584 
       0.408854         47.2394         42.1123 
       0.424564         44.3585         38.9627 
       0.440253         40.7827         35.9165 
       0.455999         38.2188         33.2842 
       0.471626         35.8057         31.0802 
        0.48727           33.96          29.059 
       0.502856         31.7792         27.1333 
       0.518488         30.2733         25.3601 
       0.534347         29.0157         23.7759 
       0.550082          26.458         22.3569 
       0.565732         24.5987         21.0408 
       0.581496         24.0554         19.8015 
       0.597222         23.1677         18.6747 
       0.612804         21.5765         17.6561 
       0.628434         20.7669          16.711 
       0.644267         20.1102         15.8166 
       0.660051         19.0054         14.9881 
       0.675724         17.9932         14.2288 
       0.691403         17.4103         13.5239 
       0.707174         16.6936         12.8626 
       0.722871         16.0255         12.2479 
        0.73838         15.3659         11.6798 
       0.754018         14.8077         11.1433 
       0.769845         14.2323         10.6346 
        0.78569         13.7503         10.1571 
       0.801365          13.192         9.71354 
       0.817031         12.7884         9.29682 
       0.832809         12.4838         8.90198 
       0.848511         11.7086         8.53196 
       0.864097          11.443         8.18566 
       0.879701         11.0957         7.85838 
       0.895507         10.6151         7.54526 
       0.911279         10.4151         7.24996 
        0.92691         10.0857         6.97302 
       0.942635         9.63763         6.70911 
       0.958396         9.38025         6.45839 
       0.974128          9.1196         6.22102 
       0.989692         8.98848         5.99799 
        1.00528         8.68622         5.78563 
        1.02113         8.32375         5.58029 
        1.03692         8.12677         5.38572 
        1.05264         7.94221         5.20137 
        1.06832         7.72973         5.02598 
        1.08405         7.44936         4.85825 
        1.09979         7.28292          4.6981 
        1.11537         7.15149         4.54679 
        1.13105         6.94763         4.40127 
        1.14679         6.80936         4.26159 
        1.16256          6.5732         4.12772 
        1.17828         6.50034         4.00007 
        1.19395         6.25437         3.87827 
         1.2097         6.12499         3.76095 
        1.22537         5.95896         3.64906 
          1.241         5.85765         3.54208 
        1.25666         5.76792         3.43914 
        1.27241         5.58271         3.33983 
        1.28819         5.45275         3.24429 
        1.30392         5.37847         3.15278 
        1.31957         5.25714         3.06522 
        1.33529         5.14289         2.98068 
        1.35108         5.01075         2.89901 
        1.36674         4.97062         2.82099 
         1.3824         4.78163         2.74593 
        1.39811         4.71212         2.67336 
        1.41389         4.63738         2.60315 
        1.42964          4.5498         2.53558 
        1.44531         4.46024         2.47076 
        1.46101         4.36422         2.40807 
        1.47667         4.27685         2.34775 
        1.49229         4.23071         2.28967 
        1.50793         4.11236         2.23349 
        1.52367         4.06632         2.17884 
        1.53953          3.9682         2.12566 
        1.55526         3.90358         2.07469 
        1.57092           3.846          2.0256 
        1.58662         3.75888         1.97799 
        1.60235         3.70733         1.93183 
        1.61809         3.63995         1.88712 
        1.63369         3.57568         1.84422 
        1.64941         3.51683         1.80236 
        1.66519         3.47088         1.76165 
        1.68085         3.39682         1.72249 
        1.69652         3.33305         1.68451 
        1.71228          3.2919         1.64746 
        1.72806         3.23196         1.61151 
        1.74368         3.17255         1.57699 
        1.75933         3.13661         1.54341 
        1.77505         3.09242         1.51066 
        1.79081         3.02751          1.4788 
         1.8065          2.9941         1.44801 
        1.82218         2.95647         1.41811 
        1.83797         2.92359         1.38886 
        1.85367         2.85831          1.3606 
        1.86928         2.82788          1.3333 
        1.88497         2.78285          1.3066 
        1.90073         2.73051         1.28053 
        1.91647         2.69222          1.2552 
        1.93218         2.67075         1.23061 
        1.94787         2.64186         1.20672 
        1.96363           2.588         1.18336 
        1.97935         2.55236         1.16068 
        1.99499          2.5063         1.13872 
        2.01064         2.48452          1.1173 
         2.0264         2.44759         1.09629 
        2.04216         2.42437         1.07584 
        2.05781         2.38227         1.05604 
        2.07353         2.36177         1.03667 
        2.08928          2.3347         1.01774 
        2.10499         2.29299        0.999338 
        2.12065         2.28052        0.981447 
        2.13633         2.24007        0.963979 
        2.15211         2.21306        0.946825 
        2.16785         2.18936        0.930137 
        2.18349         2.15946        0.913956 
        2.19916         2.12157        0.898128 
        2.21489         2.10944        0.882622 
        2.23063         2.07065        0.867473 
         2.2463         2.05538        0.852749 
        2.26194         2.02517        0.838403 
        2.27765         2.01166        0.824315 
        2.29341         1.98193        0.810514 
        2.30914         1.95372        0.797059 
        2.32486         1.94526        0.783917 
        2.34061         1.91475         0.77105 
        2.35635         1.88998        0.758484 
        2.37203         1.87935        0.746242 
        2.38768         1.85463        0.734296 
        2.40339           1.833        0.722568 
        2.41914         1.81084         0.71107 
        2.43483         1.79675        0.699864 
         2.4505         1.76804        0.688918 
        2.46622         1.76064        0.678169 
        2.48195         1.73316        0.667649 
        2.49759         1.71792        0.657409 
        2.51328         1.69766        0.647357 
        2.52906         1.68818        0.637452 
        2.54479         1.66291        0.627791 
        2.56049         1.64829         0.61835 
        2.57618         1.63318        0.609112 
        2.59189         1.62314        0.600049 
        2.60758         1.59778        0.591184 
        2.62325         1.58225         0.58251 
        2.63898         1.56697         0.57398 
        2.65468         1.55254        0.565639 
        2.67044         1.54257        0.557428 
        2.68618         1.51932        0.549399 
        2.70184         1.50893        0.541561 
        2.71755         1.49339        0.533856 
        2.73329         1.47777         0.52629 
        2.74897         1.46608        0.518895 
        2.76462         1.45271        0.511659 
        2.78034         1.43894        0.504531 
        2.79607         1.42373        0.497532 
        2.81179         1.41502        0.490673 
        2.82749         1.39585        0.483952 
        2.84321         1.38833        0.477349 
        2.85893         1.37542        0.470872 
        2.87462         1.36222        0.464526 
        2.89033         1.34512        0.458291 
        2.90605         1.33517        0.452166 
        2.92176         1.32593        0.446156 
        2.93747         1.31219        0.440258 
        2.95318         1.30172        0.434466 
        2.96891         1.29372        0.428775 
        2.98456         1.28177        0.423212 
        3.00023         1.26916        0.417739 
        3.01596          1.2609        0.412346 
        3.03164         1.25427        0.407064 
        3.04738         1.23497         0.40186 
         3.0631         1.22692        0.396748 
        3.07883         1.21846        0.391724 
        3.09456         1.21077        0.386789 
        3.11026         1.20021        0.381947 
        3.12596          1.1882        0.377187 
        3.14163         1.18219        0.372521 
        3.15734         1.17039        0.367922 
        3.17308         1.15942         0.36339 
        3.18879          1.1556        0.358946 
        3.20447         1.14552        0.354584 
         3.2202         1.13325        0.350281 
         3.2359         1.12459        0.346056 
        3.25157         1.11998        0.341912 
        3.26729         1.10638        0.337823 
        3.28304         1.10602        0.333793 
        3.29877         1.08954        0.329834 
        3.31446         1.08317        0.325948 
        3.33014          1.0803        0.322128 
        3.34585         1.07122        0.318363 
        3.36158         1.05939        0.314653 
        3.37727         1.05498        0.311014 
        3.39294         1.04431        0.307436 
        3.40867         1.03524        0.303901 
        3.42439         1.03136        0.300424 
        3.44008         1.02563        0.297008 
        3.45578         1.01771        0.293643 
        3.47153         1.01027        0.290322 
        3.48724         1.00148        0.287059 
        3.50292        0.996949        0.283853 
        3.51859        0.993188        0.280698 
        3.53431        0.983573        0.277581 
        3.55007        0.976382        0.274504 
        3.56577        0.970498        0.271486 
        3.58146        0.967121        0.268515 
        3.59719        0.955961        0.265581 
        3.61292         0.95435        0.262692 
        3.62859        0.946048        0.259857 
        3.64429        0.937293        0.257058 
        3.66003        0.931585        0.254292 
        3.67578        0.925538        0.251568 
        3.69146        0.922136        0.248894 
        3.70712        0.913175        0.246264 
        3.72284         0.90983        0.243662 
        3.73853        0.902873        0.241102 
        3.75422        0.898333        0.238578 
        3.76993        0.893944        0.236088 
        3.78564        0.887333        0.233635 
        3.80137        0.880861        0.231212 
        3.81707         0.87738        0.228829 
        3.83279        0.868535        0.226478 
        3.84853        0.864976        0.224156 
        3.86424        0.857818        0.221871 
        3.87992        0.857588        0.219621 
        3.89561        0.848489        0.217403 
        3.91134        0.844827         0.21521 
        3.92704        0.839203        0.213051 
        3.94273        0.834171        0.210923 
        3.95845        0.829863         0.20882 
        3.97418         0.82223        0.206746 
        3.98988        0.818231        0.204702 
        4.00554        0.812176        0.202692 
        4.02125         0.80655        0.200703 
        4.03698        0.799875        0.198738 
        4.05268         0.79487        0.196803 
        4.06839        0.786183        0.194893 
         4.0841        0.783114        0.193009 
        4.09983        0.776232        0.191147 
        4.11555        0.772392         0.18931 
        4.13124        0.764818        0.187503 
        4.14693        0.759021        0.185718 
        4.16266        0.753728        0.183951 
        4.17839        0.750505        0.182209 
        4.19408        0.746316        0.180494 
        4.20977        0.737471        0.178799 
        4.22551        0.736049        0.177123 
        4.24123         0.73059         0.17547 
        4.25691         0.72522        0.173842 
        4.27259        0.722068        0.172234 
        4.28831        0.717544        0.170644 
        4.30404        0.712127        0.169072 
        4.31974        0.707154        0.167523 
        4.33543        0.702499        0.165995 
        4.35116        0.699662        0.164482 
        4.36688         0.69592        0.162989 
        4.38255        0.690796        0.161519 
        4.39825        0.688855        0.160065 
        4.41398        0.684716        0.158626 
         4.4297        0.679471        0.157205 
        4.44541        0.676509        0.155803 
        4.46111        0.675091        0.154419 
        4.47683        0.671383         0.15305 
        4.49251        0.667784        0.151701 
        4.50819        0.664063        0.150369 
         4.5239        0.659969         0.14905 
        4.53962        0.658798        0.147746 
        4.55535        0.652995        0.146457 
        4.57106        0.653112        0.145185 
        4.58678        0.648011        0.143928 
         4.6025         0.64598        0.142685 
        4.61821        0.643091        0.141458 
        4.63391        0.640559        0.140246 
         4.6496        0.636042        0.139049 
        4.66532        0.636341        0.137864 
        4.68103        0.632057        0.136694 
        4.69673         0.63045        0.135538 
        4.71241        0.627572        0.134397 
        4.72811        0.625788        0.133267 
        4.74384        0.622146        0.132149 
        4.75955         0.62082        0.131045 
        4.77525        0.617682        0.129954 
        4.79096        0.616319        0.128875 
        4.80669        0.615873        0.127807 
         4.8224        0.612843        0.126752 
        4.83809          0.6111        0.125711 
        4.85379        0.609787        0.124681 
         4.8695         0.60904        0.123661 
        4.88521        0.603449        0.122653 
        4.90093        0.603876        0.121656 
        4.91663        0.603004        0.120672 
        4.93234        0.600196        0.119697 
        4.94807        0.599368        0.118732 
        4.96377         0.59634         0.11778 
        4.97943        0.597003         0.11684 
        4.99514        0.595955        0.115908 
        5.01086        0.593429        0.114985 
        5.02654        0.594257        0.114075 
        5.04227        0.591185        0.113172 
          5.058        0.590519        0.112279 
        5.07371        0.589039        0.111396 
        5.08942        0.588062        0.110524 
        5.10513        0.586711         0.10966 
        5.12084        0.586243        0.108805 
        5.13656         0.58609         0.10796 
        5.15225        0.584326        0.107125 
        5.16796        0.583613        0.106297 
        5.18369        0.582501        0.105478 
         5.1994        0.582527        0.104668 
        5.21509        0.581538        0.103868 
        5.23079        0.580276        0.103075 
        5.24649         0.58053        0.102291 
        5.26217        0.578371        0.101516 
        5.27788        0.580178        0.100748 
        5.29359        0.578382       0.0999873 
        5.30933        0.577101       0.0992337 
        5.32504        0.579156        0.098489 
        5.34073        0.578251       0.0977529 
        5.35646        0.576064       0.0970227 
        5.37218          0.5769       0.0962999 
        5.38789         0.57707       0.0955857 
        5.40357        0.577118       0.0948795 
        5.41929        0.575445       0.0941788 
        5.43502        0.576403       0.0934852 
         5.4507        0.576406       0.0928002 
        5.46639        0.575694        0.092122 
        5.48212        0.575657        0.091449 
        5.49786        0.574209       0.0907819 
        5.51353        0.574217       0.0901248 
        5.52921        0.574553       0.0894735 
        5.54495        0.575334       0.0888267 
        5.56066        0.573861       0.0881871 
        5.57637        0.575562       0.0875538 
        5.59207        0.575846       0.0869273 
        5.60778        0.574741       0.0863067 
        5.62346        0.575498       0.0856931 
        5.63916        0.575716       0.0850848 
        5.65487        0.575503       0.0844821 
         5.6706        0.576661       0.0838846 
        5.68633        0.576771       0.0832926 
        5.70203        0.576679       0.0827075 
        5.71773        0.576596       0.0821282 
        5.73344        0.576033       0.0815541 
        5.74916        0.576358        0.080985 
        5.76486        0.577407       0.0804221 
        5.78054        0.576394       0.0798654 
        5.79626        0.576781       0.0793124 
          5.812         0.57825       0.0787641 
         5.8277        0.578789       0.0782226 
        5.84339        0.578191       0.0776862 
        5.85911        0.578774       0.0771538 
        5.87484        0.578444       0.0766265 
        5.89053        0.579216       0.0761051 
        5.90623        0.579881       0.0755884 
        5.92195         0.57899       0.0750756 
        5.93767        0.578598       0.0745678 
        5.95336        0.579898       0.0740655 
        5.96905        0.582036       0.0735681 
        5.98476         0.57977       0.0730745 
        6.00048        0.581356       0.0725853 
        6.01617        0.582044       0.0721012 
        6.03185        0.581876       0.0716222 
        6.04756        0.582798       0.0711463 
        6.06331        0.583731       0.0706738 
        6.07903        0.583372       0.0702065 
        6.09473        0.583084       0.0697439 
        6.11044        0.584052       0.0692851 
        6.12616        0.584817       0.0688305 
        6.14186        0.584331       0.0683804 
        6.15755        0.584683       0.0679343 
        6.17326        0.585725       0.0674919 
        6.18898        0.585668       0.0670532 
        6.20467        0.586752       0.0666192 
        6.22036        0.585307       0.0661891 
         6.2361        0.585942       0.0657616 
         6.2518        0.588888       0.0653386 
        6.26748        0.586157       0.0649202 
        6.28319        0.587592       0.0645044 
        6.29893        0.589383       0.0640918 
        6.31463        0.588369       0.0636836 
        6.33033        0.589136        0.063279 
        6.34604        0.588826       0.0628777 
        6.36177        0.589761       0.0624795 
        6.37747        0.589652       0.0620854 
