# k  (h/Mpc)    Pcb(k)  (Mpc/h)^3    Pcb_linear(k) (Mpc/h)^3   ShotnoiseSubtracted = true
      0.0200456         552.239         559.476 
      0.0350414         382.879         378.411 
      0.0492313         257.681         256.168 
      0.0637834         208.899         209.484 
      0.0800726         169.182         171.287 
       0.096163         122.801         121.288 
       0.111083         92.8823         91.0754 
       0.126058         79.9257         80.0881 
       0.142273         70.3261         71.0634 
       0.158546         56.2516         56.1223 
        0.17375         45.4905         44.7761 
       0.188953         40.0991         39.7651 
       0.204907         35.9655         36.5488 
       0.220756          31.556          31.512 
        0.23588           26.68         26.5128 
         0.2514         23.5942         23.3995 
       0.267535         21.7367         21.5564 
       0.283568         19.5435         19.4498 
       0.299022         17.3056         17.1061 
       0.314451         15.7074         15.2714 
       0.330372         14.2602         14.0338 
       0.346141         13.1232         12.9432 
       0.361624          11.916         11.7633 
       0.377134         10.8038         10.6761 
       0.392932         10.1897         9.82618 
       0.408854         9.26784         9.12297 
       0.424564         8.74198         8.44065 
       0.440253         7.97338         7.78073 
       0.455999         7.30607         7.21049 
       0.471626         6.83285         6.73304 
        0.48727         6.51192         6.29518 
       0.502856          6.0962         5.87799 
       0.518488         5.60013         5.49386 
       0.534347         5.22404         5.15067 
       0.550082         4.99214         4.84327 
       0.565732         4.75491         4.55815 
       0.581496         4.44379         4.28969 
       0.597222         4.18365         4.04558 
       0.612804         3.93874         3.82492 
       0.628434         3.75781         3.62017 
       0.644267         3.56984         3.42642 
       0.660051         3.37902         3.24693 
       0.675724         3.18437         3.08245 
       0.691403         3.04417         2.92973 
       0.707174         2.89165         2.78647 
       0.722871         2.81218         2.65332 
        0.73838          2.6223         2.53025 
       0.754018          2.5026         2.41403 
       0.769845         2.36858         2.30381 
        0.78569         2.29836         2.20037 
       0.801365         2.19925         2.10428 
       0.817031         2.11318         2.01401 
       0.832809         2.00337         1.92847 
       0.848511         1.93372         1.84831 
       0.864097         1.86301         1.77329 
       0.879701         1.80238         1.70239 
       0.895507         1.70974         1.63456 
       0.911279         1.65476         1.57059 
        0.92691         1.60539         1.51059 
       0.942635         1.52145         1.45342 
       0.958396         1.47322         1.39911 
       0.974128         1.42405         1.34768 
       0.989692         1.36779         1.29937 
        1.00528         1.31793         1.25337 
        1.02113         1.28341         1.20888 
        1.03692         1.24682         1.16673 
        1.05264         1.18879          1.1268 
        1.06832         1.15547          1.0888 
        1.08405         1.10927         1.05246 
        1.09979         1.08223         1.01777 
        1.11537         1.04175         0.98499 
        1.13105         1.00167        0.953466 
        1.14679        0.978553        0.923206 
        1.16256        0.947982        0.894206 
        1.17828        0.924737        0.866552 
        1.19395        0.893159        0.840166 
         1.2097        0.863913        0.814749 
        1.22537        0.834602        0.790511 
          1.241        0.814083        0.767336 
        1.25666        0.797195        0.745036 
        1.27241        0.770807        0.723522 
        1.28819        0.743631        0.702824 
        1.30392        0.725964           0.683 
        1.31957        0.707165        0.664031 
        1.33529        0.683268        0.645717 
        1.35108        0.666572        0.628024 
        1.36674        0.647237        0.611123 
         1.3824        0.636185        0.594862 
        1.39811        0.615348        0.579141 
        1.41389        0.600196        0.563931 
        1.42964        0.584434        0.549294 
        1.44531        0.569257         0.53525 
        1.46101        0.552143         0.52167 
        1.47667        0.541305        0.508603 
        1.49229        0.524252         0.49602 
        1.50793        0.513757         0.48385 
        1.52367        0.498837        0.472011 
        1.53953        0.486077        0.460491 
        1.55526        0.477147        0.449448 
        1.57092        0.469503        0.438814 
        1.58662        0.458738        0.428501 
        1.60235        0.445568          0.4185 
        1.61809         0.43358        0.408814 
        1.63369          0.4215        0.399521 
        1.64941        0.414817        0.390452 
        1.66519          0.4069        0.381633 
        1.68085        0.394932        0.373149 
        1.69652        0.386923        0.364922 
        1.71228        0.377421        0.356897 
        1.72806        0.370313        0.349107 
        1.74368        0.361932        0.341629 
        1.75933        0.354971        0.334356 
        1.77505        0.348355        0.327261 
        1.79081        0.337412         0.32036 
         1.8065        0.333638        0.313688 
        1.82218        0.324108        0.307212 
        1.83797        0.315044        0.300875 
        1.85367         0.31238        0.294753 
        1.86928        0.304758        0.288838 
        1.88497        0.297066        0.283053 
        1.90073        0.292974        0.277406 
        1.91647         0.28636        0.271919 
        1.93218         0.28167        0.266592 
        1.94787        0.275081        0.261416 
        1.96363        0.269944        0.256357 
        1.97935        0.264131        0.251443 
        1.99499        0.259146        0.246686 
        2.01064        0.254617        0.242045 
         2.0264        0.248829        0.237494 
        2.04216        0.243403        0.233064 
        2.05781        0.239726        0.228774 
        2.07353        0.235153        0.224578 
        2.08928        0.231623        0.220477 
        2.10499        0.226153        0.216491 
        2.12065        0.222405        0.212615 
        2.13633        0.218407        0.208831 
        2.15211        0.214531        0.205115 
        2.16785        0.210655        0.201499 
        2.18349        0.206871        0.197994 
        2.19916        0.202271        0.194565 
        2.21489        0.198451        0.191206 
        2.23063        0.195412        0.187924 
         2.2463        0.192116        0.184734 
        2.26194        0.188991        0.181627 
        2.27765        0.185271        0.178575 
        2.29341        0.182121        0.175585 
        2.30914        0.178258         0.17267 
        2.32486        0.175605        0.169823 
        2.34061        0.172441        0.167036 
        2.35635        0.169853        0.164313 
        2.37203        0.167982        0.161661 
        2.38768        0.164616        0.159074 
        2.40339        0.161461        0.156533 
        2.41914        0.159244        0.154042 
        2.43483        0.156246        0.151614 
         2.4505        0.153568        0.149243 
        2.46622          0.1512        0.146915 
        2.48195        0.148502        0.144636 
        2.49759        0.147075        0.142417 
        2.51328        0.143318         0.14024 
        2.52906        0.141446        0.138094 
        2.54479         0.13937        0.136001 
        2.56049        0.136578        0.133956 
        2.57618        0.135385        0.131954 
        2.59189        0.132506        0.129991 
        2.60758         0.13122        0.128071 
        2.62325        0.128847        0.126192 
        2.63898        0.127381        0.124344 
        2.65468        0.124442        0.122537 
        2.67044        0.122949        0.120758 
        2.68618        0.120918        0.119019 
        2.70184         0.11952        0.117321 
        2.71755        0.117361        0.115652 
        2.73329        0.116103        0.114012 
        2.74897        0.113834         0.11241 
        2.76462         0.11236        0.110843 
        2.78034        0.110648        0.109299 
        2.79607        0.109309        0.107782 
        2.81179        0.106841        0.106297 
        2.82749        0.105947        0.104841 
        2.84321        0.104579         0.10341 
        2.85893        0.102625        0.102007 
        2.87462        0.101605        0.100632 
        2.89033       0.0997527       0.0992816 
        2.90605        0.098745       0.0979546 
        2.92176        0.097444       0.0966526 
        2.93747       0.0958137       0.0953749 
        2.95318       0.0947863       0.0941201 
        2.96891       0.0935605       0.0928873 
        2.98456       0.0924848       0.0916821 
        3.00023       0.0909125       0.0904966 
        3.01596       0.0895159       0.0893283 
        3.03164       0.0882745        0.088184 
        3.04738       0.0873809       0.0870565 
         3.0631       0.0860563       0.0859491 
        3.07883       0.0848853       0.0848609 
        3.09456       0.0839469       0.0837917 
        3.11026        0.082544       0.0827427 
        3.12596       0.0818169       0.0817117 
        3.14163       0.0807354       0.0807007 
        3.15734       0.0799219       0.0797044 
        3.17308       0.0787351       0.0787226 
        3.18879       0.0777871       0.0777601 
        3.20447       0.0766365        0.076815 
         3.2202       0.0759246       0.0758828 
         3.2359        0.074904       0.0749676 
        3.25157       0.0738845       0.0740698 
        3.26729       0.0731024        0.073184 
        3.28304       0.0724431       0.0723109 
        3.29877       0.0712237       0.0714533 
        3.31446       0.0705593       0.0706114 
        3.33014       0.0698589       0.0697839 
        3.34585       0.0687203       0.0689683 
        3.36158       0.0680375       0.0681646 
        3.37727       0.0672973       0.0673763 
        3.39294       0.0666827       0.0666011 
        3.40867        0.065871       0.0658353 
        3.42439        0.065168       0.0650821 
        3.44008       0.0645993       0.0643421 
        3.45578       0.0640368        0.063613 
        3.47153       0.0632962       0.0628937 
        3.48724       0.0625199       0.0621867 
        3.50292       0.0620204       0.0614923 
        3.51859        0.061253       0.0608088 
        3.53431       0.0606515       0.0601336 
        3.55007       0.0600881        0.059467 
        3.56577       0.0596001       0.0588132 
        3.58146       0.0588455       0.0581694 
        3.59719       0.0581736       0.0575339 
        3.61292       0.0575891        0.056908 
        3.62859       0.0571618       0.0562938 
        3.64429       0.0564238       0.0556875 
        3.66003       0.0562428       0.0550884 
        3.67578       0.0555918       0.0544982 
        3.69146       0.0550871       0.0539189 
        3.70712       0.0545693       0.0533491 
        3.72284       0.0539414       0.0527855 
        3.73853       0.0537235       0.0522309 
        3.75422       0.0530467       0.0516842 
        3.76993        0.052612       0.0511448 
        3.78564       0.0522731       0.0506133 
        3.80137        0.051892       0.0500885 
        3.81707       0.0510932       0.0495722 
        3.83279       0.0508214       0.0490629 
        3.84853       0.0504168       0.0485598 
        3.86424       0.0499829       0.0480648 
        3.87992       0.0496135       0.0475775 
        3.89561       0.0490285       0.0470968 
        3.91134       0.0486288       0.0466219 
        3.92704       0.0481298        0.046154 
        3.94273       0.0476626       0.0456931 
        3.95845       0.0472857       0.0452376 
        3.97418       0.0469709       0.0447882 
        3.98988       0.0461671       0.0443455 
        4.00554       0.0459762         0.04391 
        4.02125        0.045571       0.0434791 
        4.03698       0.0448159       0.0430534 
        4.05268        0.044419       0.0426343 
        4.06839       0.0437453       0.0422205 
         4.0841       0.0430355       0.0418123 
        4.09983       0.0424831        0.041409 
        4.11555        0.041917       0.0410111 
        4.13124       0.0413432       0.0406195 
        4.14693       0.0408016       0.0402328 
        4.16266       0.0402033       0.0398502 
        4.17839       0.0397746       0.0394728 
        4.19408       0.0392654       0.0391011 
        4.20977        0.038856       0.0387341 
        4.22551       0.0383615       0.0383709 
        4.24123        0.037913       0.0380127 
        4.25691       0.0375533       0.0376601 
        4.27259        0.037154       0.0373118 
        4.28831       0.0368769       0.0369673 
        4.30404       0.0363786       0.0366268 
        4.31974       0.0360586       0.0362913 
        4.33543       0.0357712       0.0359602 
        4.35116       0.0355177       0.0356325 
        4.36688       0.0351338       0.0353089 
        4.38255       0.0348286       0.0349906 
        4.39825       0.0347197       0.0346755 
        4.41398       0.0342839       0.0343637 
         4.4297       0.0341256       0.0340561 
        4.44541       0.0339416       0.0337522 
        4.46111       0.0337074       0.0334523 
        4.47683       0.0335773       0.0331559 
        4.49251       0.0334036       0.0328636 
        4.50819       0.0332221        0.032575 
         4.5239       0.0330538       0.0322894 
        4.53962       0.0330179       0.0320068 
        4.55535       0.0329685       0.0317275 
        4.57106       0.0327636        0.031452 
        4.58678       0.0327419       0.0311797 
         4.6025       0.0325681       0.0309105 
        4.61821       0.0326659       0.0306445 
        4.63391       0.0325441       0.0303821 
         4.6496       0.0324406       0.0301228 
        4.66532       0.0325041       0.0298661 
        4.68103       0.0326016       0.0296126 
        4.69673       0.0325079       0.0293622 
        4.71241       0.0325804        0.029115 
        4.72811       0.0325028       0.0288702 
        4.74384       0.0326328       0.0286279 
        4.75955       0.0327724       0.0283888 
        4.77525        0.032818       0.0281525 
        4.79096       0.0329381       0.0279186 
        4.80669       0.0330712       0.0276873 
         4.8224       0.0331465       0.0274589 
        4.83809       0.0332134       0.0272333 
        4.85379       0.0334882       0.0270101 
         4.8695       0.0336961       0.0267892 
        4.88521       0.0338677       0.0265709 
        4.90093       0.0340912       0.0263549 
        4.91663       0.0343446       0.0261416 
        4.93234       0.0343943       0.0259304 
        4.94807       0.0347402       0.0257214 
        4.96377       0.0349898       0.0255151 
        4.97943       0.0353484       0.0253115 
        4.99514       0.0355322       0.0251096 
        5.01086       0.0358934       0.0249098 
        5.02654       0.0362549       0.0247126 
        5.04227       0.0365806        0.024517 
          5.058       0.0369379       0.0243234 
        5.07371       0.0372999       0.0241323 
        5.08942       0.0377593       0.0239432 
        5.10513       0.0380502       0.0237561 
        5.12084       0.0385753       0.0235709 
        5.13656       0.0390281       0.0233878 
        5.15225       0.0395236       0.0232069 
        5.16796       0.0399601       0.0230276 
        5.18369       0.0405556         0.02285 
         5.1994       0.0409198       0.0226747 
        5.21509       0.0416638       0.0225013 
        5.23079       0.0420669       0.0223296 
        5.24649       0.0427387       0.0221598 
        5.26217       0.0432828       0.0219918 
        5.27788       0.0441978       0.0218254 
        5.29359       0.0448033       0.0216607 
        5.30933       0.0453697       0.0214974 
        5.32504       0.0461279       0.0213361 
        5.34073       0.0465491       0.0211766 
        5.35646       0.0474209       0.0210184 
        5.37218       0.0482081       0.0208619 
        5.38789       0.0490796       0.0207071 
        5.40357       0.0499665       0.0205541 
        5.41929       0.0509083       0.0204024 
        5.43502       0.0518753       0.0202521 
         5.4507       0.0524257       0.0201037 
        5.46639        0.053318       0.0199568 
        5.48212       0.0543496        0.019811 
        5.49786       0.0555835       0.0196665 
        5.51353       0.0566813       0.0195241 
        5.52921       0.0574187        0.019383 
        5.54495       0.0585277       0.0192429 
        5.56066       0.0597517       0.0191043 
        5.57637       0.0610288       0.0189671 
        5.59207       0.0618249       0.0188314 
        5.60778       0.0629573        0.018697 
        5.62346       0.0643084        0.018564 
        5.63916       0.0658219       0.0184323 
        5.65487       0.0673972       0.0183017 
         5.6706       0.0677874       0.0181723 
        5.68633       0.0696325        0.018044 
        5.70203       0.0709899       0.0179173 
        5.71773       0.0729983       0.0177918 
        5.73344       0.0745784       0.0176674 
        5.74916       0.0760803       0.0175441 
        5.76486       0.0776633       0.0174222 
        5.78054        0.079626       0.0173016 
        5.79626       0.0808246       0.0171818 
          5.812       0.0829081        0.017063 
         5.8277       0.0845544       0.0169457 
        5.84339       0.0862764       0.0168295 
        5.85911       0.0880748       0.0167141 
        5.87484       0.0898221       0.0165999 
        5.89053       0.0923985        0.016487 
        5.90623       0.0946933        0.016375 
        5.92195       0.0965272       0.0162639 
        5.93767        0.098492       0.0161539 
        5.95336        0.100491       0.0160451 
        5.96905        0.103836       0.0159374 
        5.98476         0.10514       0.0158304 
        6.00048         0.10772       0.0157245 
        6.01617        0.110509       0.0156196 
        6.03185        0.112653       0.0155158 
        6.04756        0.114563       0.0154127 
        6.06331        0.118198       0.0153104 
        6.07903        0.120497       0.0152091 
        6.09473        0.122816       0.0151089 
        6.11044        0.126499       0.0150095 
        6.12616        0.129135        0.014911 
        6.14186        0.132113       0.0148135 
        6.15755        0.134844       0.0147169 
        6.17326        0.138574        0.014621 
        6.18898        0.142018        0.014526 
        6.20467        0.144822        0.014432 
        6.22036        0.148805       0.0143388 
         6.2361        0.150442       0.0142462 
         6.2518        0.156198       0.0141546 
        6.26748        0.158665       0.0140639 
        6.28319        0.162009       0.0139739 
        6.29893          0.1674       0.0138845 
        6.31463        0.170756        0.013796 
        6.33033        0.173655       0.0137084 
        6.34604        0.178512       0.0136215 
        6.36177        0.181919       0.0135352 
        6.37747        0.186068       0.0134498 
