# k  (h/Mpc)    Pcb(k)  (Mpc/h)^3    Pcb_linear(k) (Mpc/h)^3   ShotnoiseSubtracted = true
      0.0200456         4782.95            4848 
      0.0350414         3352.83         3279.03 
      0.0492313         2224.49         2219.76 
      0.0637834         1786.95         1815.23 
      0.0800726         1443.56         1484.24 
       0.096163         1080.96            1051 
       0.111083          825.85         789.192 
       0.126058         694.236         693.983 
       0.142273         612.577         615.782 
       0.158546          497.87         486.314 
        0.17375         410.635         387.997 
       0.188953          366.98         344.574 
       0.204907         320.311         316.704 
       0.220756         287.343         273.059 
        0.23588         246.711          229.74 
         0.2514         217.793         202.762 
       0.267535         206.709         186.792 
       0.283568         182.685         168.538 
       0.299022         168.436         148.229 
       0.314451         159.122         132.331 
       0.330372         139.863         121.606 
       0.346141         129.173         112.156 
       0.361624         120.108         101.932 
       0.377134         109.155         92.5115 
       0.392932          105.51         85.1463 
       0.408854         98.3058         79.0528 
       0.424564          93.557         73.1403 
       0.440253         84.9316          67.422 
       0.455999         77.9464         62.4807 
       0.471626         74.7417         58.3435 
        0.48727         72.3815         54.5493 
       0.502856         66.7797         50.9343 
       0.518488         63.8649         47.6057 
       0.534347         60.0933         44.6318 
       0.550082         58.0492         41.9681 
       0.565732         56.0983         39.4975 
       0.581496         51.9254         37.1712 
       0.597222         49.9062          35.056 
       0.612804         47.8129         33.1439 
       0.628434         46.8819         31.3697 
       0.644267         44.2482         29.6908 
       0.660051         42.4184         28.1355 
       0.675724         40.7339         26.7102 
       0.691403         40.0325         25.3869 
       0.707174         38.4704         24.1455 
       0.722871         37.3063         22.9917 
        0.73838         35.5612         21.9252 
       0.754018         33.6357         20.9181 
       0.769845           33.16         19.9631 
        0.78569         31.9776         19.0667 
       0.801365         30.9759         18.2342 
       0.817031         29.7231         17.4519 
       0.832809         29.1438         16.7107 
       0.848511         28.1987         16.0161 
       0.864097         27.4499          15.366 
       0.879701          26.955         14.7517 
       0.895507         25.9048         14.1639 
       0.911279         25.0598         13.6096 
        0.92691          24.628         13.0897 
       0.942635         24.0497         12.5943 
       0.958396         23.4794         12.1236 
       0.974128         22.8239          11.678 
       0.989692         21.8795         11.2594 
        1.00528         21.6688         10.8607 
        1.02113         21.0284         10.4753 
        1.03692         20.6465           10.11 
        1.05264         20.2135         9.76397 
        1.06832         19.7987         9.43472 
        1.08405         19.2362         9.11985 
        1.09979         18.9354         8.81923 
        1.11537         18.3287         8.53519 
        1.13105          18.061         8.26203 
        1.14679         17.6025         7.99982 
        1.16256         17.3244         7.74852 
        1.17828         17.0149          7.5089 
        1.19395          16.703         7.28025 
         1.2097         16.3531         7.06001 
        1.22537         16.0377         6.84998 
          1.241         15.6807         6.64916 
        1.25666         15.4617         6.45593 
        1.27241          15.215          6.2695 
        1.28819         14.6361         6.09015 
        1.30392         14.7533         5.91837 
        1.31957         14.3442           5.754 
        1.33529         14.1021          5.5953 
        1.35108          13.916         5.44199 
        1.36674         13.6306         5.29554 
         1.3824         13.3732         5.15463 
        1.39811         13.1263         5.01841 
        1.41389         12.9678          4.8866 
        1.42964         12.7909         4.75977 
        1.44531         12.5787         4.63808 
        1.46101         12.4139          4.5204 
        1.47667          12.185         4.40717 
        1.49229         11.8933         4.29814 
        1.50793         11.8129         4.19268 
        1.52367         11.6619          4.0901 
        1.53953         11.4827         3.99027 
        1.55526         11.2347         3.89458 
        1.57092         11.2052         3.80244 
        1.58662         11.0056         3.71307 
        1.60235         10.8614         3.62641 
        1.61809          10.698         3.54247 
        1.63369          10.524         3.46195 
        1.64941         10.3793         3.38337 
        1.66519         10.2739         3.30695 
        1.68085         10.0481         3.23343 
        1.69652         10.0462         3.16214 
        1.71228         9.86631          3.0926 
        1.72806          9.7195         3.02511 
        1.74368         9.61617          2.9603 
        1.75933         9.50207         2.89728 
        1.77505         9.36346          2.8358 
        1.79081         9.25555           2.776 
         1.8065         9.18394         2.71818 
        1.82218         9.09017         2.66207 
        1.83797         8.95777         2.60716 
        1.85367         8.86234         2.55411 
        1.86928         8.73439         2.50285 
        1.88497         8.65451         2.45273 
        1.90073         8.52017          2.4038 
        1.91647         8.32755         2.35625 
        1.93218         8.32826         2.31009 
        1.94787         8.18508         2.26524 
        1.96363         8.12431          2.2214 
        1.97935         8.05268         2.17882 
        1.99499         7.93975         2.13759 
        2.01064         7.85121         2.09738 
         2.0264         7.75389         2.05795 
        2.04216         7.75512         2.01956 
        2.05781         7.64808         1.98239 
        2.07353         7.53939         1.94602 
        2.08928         7.45127         1.91049 
        2.10499         7.37208         1.87595 
        2.12065         7.32812         1.84236 
        2.13633         7.21957         1.80957 
        2.15211         7.16947         1.77737 
        2.16785         7.06314         1.74604 
        2.18349         7.01813         1.71567 
        2.19916         6.95348         1.68596 
        2.21489         6.88735         1.65685 
        2.23063         6.83657         1.62841 
         2.2463         6.72352         1.60077 
        2.26194         6.66154         1.57384 
        2.27765         6.59494          1.5474 
        2.29341         6.50271         1.52149 
        2.30914         6.49689         1.49623 
        2.32486         6.41345         1.47156 
        2.34061         6.37657         1.44741 
        2.35635         6.30006         1.42382 
        2.37203         6.22949         1.40084 
        2.38768         6.17428         1.37841 
        2.40339         6.12339          1.3564 
        2.41914         6.06673         1.33481 
        2.43483         6.04946         1.31378 
         2.4505         5.95896         1.29323 
        2.46622         5.88934         1.27305 
        2.48195         5.88875          1.2533 
        2.49759          5.7854         1.23408 
        2.51328         5.75204         1.21521 
        2.52906         5.69216         1.19662 
        2.54479         5.64802         1.17848 
        2.56049         5.58355         1.16076 
        2.57618         5.56092         1.14342 
        2.59189         5.55809         1.12641 
        2.60758         5.45971         1.10977 
        2.62325         5.39452         1.09348 
        2.63898         5.40598         1.07747 
        2.65468         5.33148         1.06181 
        2.67044         5.29537          1.0464 
        2.68618         5.22564         1.03133 
        2.70184         5.21782         1.01661 
        2.71755         5.15926         1.00215 
        2.73329         5.09551        0.987946 
        2.74897         5.07352        0.974065 
        2.76462         5.03895        0.960481 
        2.78034         4.99421        0.947101 
        2.79607         4.95912        0.933962 
        2.81179         4.91414        0.921087 
        2.82749         4.85961         0.90847 
        2.84321         4.84087        0.896076 
        2.85893         4.79389        0.883916 
        2.87462         4.77643        0.872004 
        2.89033         4.72594          0.8603 
        2.90605         4.69059        0.848802 
        2.92176         4.64322        0.837519 
        2.93747         4.61366        0.826448 
        2.95318         4.57569        0.815575 
        2.96891         4.54111        0.804892 
        2.98456         4.51037        0.794449 
        3.00023         4.48835        0.784176 
        3.01596         4.42774        0.774053 
        3.03164         4.40402        0.764137 
        3.04738         4.37974        0.754367 
         3.0631         4.35345        0.744771 
        3.07883         4.31022        0.735341 
        3.09456         4.26034        0.726077 
        3.11026         4.24831        0.716986 
        3.12596         4.21885        0.708053 
        3.14163         4.18845        0.699292 
        3.15734         4.15233        0.690659 
        3.17308         4.14273        0.682152 
        3.18879         4.09634        0.673811 
        3.20447          4.0773        0.665622 
         3.2202         4.03964        0.657543 
         3.2359         4.00977        0.649614 
        3.25157          3.9871        0.641834 
        3.26729         3.96459        0.634158 
        3.28304         3.92414        0.626593 
        3.29877         3.90553        0.619161 
        3.31446         3.89281        0.611866 
        3.33014         3.84447        0.604695 
        3.34585          3.8262        0.597628 
        3.36158         3.79679        0.590664 
        3.37727         3.76869        0.583832 
        3.39294         3.74931        0.577115 
        3.40867         3.72665         0.57048 
        3.42439         3.69178        0.563953 
        3.44008         3.67404         0.55754 
        3.45578         3.64314        0.551223 
        3.47153         3.61822         0.54499 
        3.48724         3.59807        0.538864 
        3.50292         3.57104        0.532846 
        3.51859         3.54613        0.526924 
        3.53431          3.5247        0.521073 
        3.55007         3.50707        0.515297 
        3.56577         3.47124        0.509631 
        3.58146         3.45921        0.504053 
        3.59719          3.4421        0.498545 
        3.61292         3.41136        0.493122 
        3.62859         3.39513          0.4878 
        3.64429         3.37111        0.482547 
        3.66003          3.3534        0.477355 
        3.67578         3.33211        0.472241 
        3.69146         3.30609        0.467221 
        3.70712         3.29778        0.462284 
        3.72284         3.26986        0.457399 
        3.73853         3.24322        0.452594 
        3.75422         3.21883        0.447856 
        3.76993         3.20744        0.443182 
        3.78564         3.18733        0.438577 
        3.80137          3.1596        0.434029 
        3.81707          3.1455        0.429556 
        3.83279         3.12061        0.425142 
        3.84853         3.09483        0.420783 
        3.86424         3.08034        0.416494 
        3.87992         3.06719        0.412271 
        3.89561         3.04231        0.408106 
        3.91134         3.02135        0.403991 
        3.92704         2.99758        0.399936 
        3.94273         2.98617        0.395942 
        3.95845         2.96731        0.391995 
        3.97418         2.94875        0.388101 
        3.98988          2.9313        0.384265 
        4.00554         2.91071        0.380492 
        4.02125         2.88786        0.376758 
        4.03698         2.87019        0.373069 
        4.05268         2.85098        0.369437 
        4.06839         2.83544        0.365851 
         4.0841         2.81242        0.362314 
        4.09983         2.79915        0.358819 
        4.11555         2.78144        0.355372 
        4.13124         2.76059        0.351979 
        4.14693         2.74633        0.348627 
        4.16266         2.72758        0.345312 
        4.17839         2.70485        0.342042 
        4.19408         2.69725        0.338821 
        4.20977         2.68549        0.335641 
        4.22551         2.65468        0.332493 
        4.24123         2.64272         0.32939 
        4.25691         2.62667        0.326334 
        4.27259         2.60502        0.323317 
        4.28831         2.58711        0.320331 
        4.30404         2.58228         0.31738 
        4.31974         2.55824        0.314473 
        4.33543         2.54945        0.311604 
        4.35116         2.53199        0.308764 
        4.36688         2.51254        0.305961 
        4.38255         2.49977        0.303202 
        4.39825         2.48783        0.300472 
        4.41398         2.47334         0.29777 
         4.4297         2.45977        0.295104 
        4.44541         2.43604        0.292472 
        4.46111         2.42374        0.289873 
        4.47683         2.40705        0.287304 
        4.49251         2.39677        0.284772 
        4.50819         2.37961         0.28227 
         4.5239         2.36822        0.279796 
        4.53962          2.3544        0.277347 
        4.55535          2.3414        0.274927 
        4.57106         2.32641         0.27254 
        4.58678         2.31316         0.27018 
         4.6025         2.30415        0.267847 
        4.61821         2.29086        0.265543 
        4.63391         2.27408        0.263268 
         4.6496         2.25972        0.261021 
        4.66532         2.25005        0.258797 
        4.68103         2.23658          0.2566 
        4.69673         2.22431        0.254431 
        4.71241         2.21498        0.252288 
        4.72811         2.20245        0.250167 
        4.74384         2.18904        0.248068 
        4.75955         2.17681        0.245996 
        4.77525         2.16536        0.243949 
        4.79096          2.1531        0.241922 
        4.80669         2.14432        0.239918 
         4.8224         2.12653        0.237938 
        4.83809         2.12115        0.235983 
        4.85379         2.11129        0.234049 
         4.8695         2.09931        0.232135 
        4.88521         2.07988        0.230243 
        4.90093         2.07749        0.228372 
        4.91663         2.06312        0.226524 
        4.93234         2.05647        0.224694 
        4.94807         2.04225        0.222883 
        4.96377         2.03468        0.221095 
        4.97943          2.0202        0.219331 
        4.99514         2.01247        0.217581 
        5.01086         2.00459        0.215849 
        5.02654         1.99016        0.214141 
        5.04227         1.98116        0.212446 
          5.058         1.97361        0.210768 
        5.07371         1.96411        0.209112 
        5.08942         1.95164        0.207474 
        5.10513         1.94436        0.205853 
        5.12084         1.93005        0.204248 
        5.13656         1.92274        0.202661 
        5.15225         1.90823        0.201093 
        5.16796         1.90413         0.19954 
        5.18369         1.89378        0.198001 
         5.1994          1.8846        0.196482 
        5.21509          1.8724         0.19498 
        5.23079         1.86925        0.193492 
        5.24649          1.8611         0.19202 
        5.26217         1.84912        0.190565 
        5.27788         1.83792        0.189123 
        5.29359         1.83495        0.187695 
        5.30933         1.82131         0.18628 
        5.32504         1.81555        0.184883 
        5.34073         1.81102        0.183501 
        5.35646         1.79597         0.18213 
        5.37218         1.78813        0.180773 
        5.38789         1.77893        0.179432 
        5.40357         1.77248        0.178107 
        5.41929         1.76773        0.176792 
        5.43502         1.75759        0.175489 
         5.4507         1.74882        0.174204 
        5.46639         1.73846        0.172931 
        5.48212         1.73325        0.171667 
        5.49786         1.72309        0.170415 
        5.51353         1.72007        0.169181 
        5.52921         1.70792        0.167959 
        5.54495         1.70144        0.166745 
        5.56066          1.6944        0.165544 
        5.57637         1.68413        0.164355 
        5.59207         1.67719        0.163179 
        5.60778         1.67375        0.162014 
        5.62346         1.66333        0.160862 
        5.63916           1.652         0.15972 
        5.65487         1.64803        0.158589 
         5.6706         1.64166        0.157467 
        5.68633         1.63575        0.156356 
        5.70203         1.62852        0.155258 
        5.71773         1.61951         0.15417 
        5.73344         1.61352        0.153093 
        5.74916         1.60533        0.152024 
        5.76486         1.60258        0.150968 
        5.78054         1.59495        0.149923 
        5.79626         1.58656        0.148884 
          5.812         1.57414        0.147855 
         5.8277         1.57299        0.146839 
        5.84339         1.56714        0.145832 
        5.85911         1.55943        0.144832 
        5.87484         1.55133        0.143842 
        5.89053         1.54959        0.142864 
        5.90623         1.53988        0.141894 
        5.92195         1.53099        0.140931 
        5.93767          1.5295        0.139978 
        5.95336         1.51986        0.139035 
        5.96905         1.51471        0.138101 
        5.98476         1.50999        0.137175 
        6.00048         1.50282        0.136256 
        6.01617         1.49787        0.135348 
        6.03185         1.48987        0.134448 
        6.04756         1.48736        0.133555 
        6.06331         1.47785        0.132668 
        6.07903          1.4717        0.131791 
        6.09473         1.46688        0.130923 
        6.11044         1.46147        0.130061 
        6.12616          1.4563        0.129208 
        6.14186         1.44983        0.128363 
        6.15755         1.44317        0.127526 
        6.17326         1.43686        0.126695 
        6.18898         1.43308        0.125872 
        6.20467         1.42929        0.125057 
        6.22036         1.42424        0.124249 
         6.2361         1.41842        0.123447 
         6.2518         1.41204        0.122653 
        6.26748          1.4064        0.121868 
        6.28319         1.40092        0.121087 
        6.29893         1.39474        0.120313 
        6.31463         1.38864        0.119546 
        6.33033         1.38454        0.118787 
        6.34604         1.37959        0.118033 
        6.36177         1.37564        0.117286 
        6.37747          1.3705        0.116546 
