# k  (h/Mpc)    Pcb(k)  (Mpc/h)^3    Pcb_linear(k) (Mpc/h)^3   ShotnoiseSubtracted = true
      0.0200456         15184.7           15485 
      0.0350414         10127.9         10473.6 
      0.0492313         7042.27         7090.13 
      0.0637834         5975.03         5798.04 
      0.0800726         4824.44         4740.82 
       0.096163         3292.18         3356.99 
       0.111083         2509.46         2520.76 
       0.126058         2290.58         2216.65 
       0.142273         2044.81         1966.87 
       0.158546         1729.98         1553.34 
        0.17375         1339.36          1239.3 
       0.188953         1286.41         1100.61 
       0.204907         1224.07         1011.59 
       0.220756         1051.03          872.18 
        0.23588         920.492         733.814 
         0.2514         791.471         647.644 
       0.267535         778.672         596.633 
       0.283568         708.364         538.327 
       0.299022         662.534         473.459 
       0.314451         623.105         422.678 
       0.330372         572.667         388.424 
       0.346141         523.401         358.239 
       0.361624         504.743         325.581 
       0.377134         466.592         295.491 
       0.392932         444.381         271.966 
       0.408854         427.512         252.503 
       0.424564         402.454         233.618 
       0.440253         392.513         215.353 
       0.455999         368.897          199.57 
       0.471626         348.021         186.355 
        0.48727         334.886         174.236 
       0.502856         324.483         162.689 
       0.518488         321.097         152.057 
       0.534347         300.912         142.559 
       0.550082         284.842         134.051 
       0.565732         281.528         126.159 
       0.581496         265.551         118.729 
       0.597222         260.226         111.972 
       0.612804         252.422         105.865 
       0.628434         242.183         100.198 
       0.644267         234.851         94.8355 
       0.660051         231.004         89.8675 
       0.675724         226.112         85.3152 
       0.691403         219.557         81.0883 
       0.707174         211.444         77.1231 
       0.722871         208.405         73.4377 
        0.73838         204.711         70.0315 
       0.754018         199.513         66.8147 
       0.769845         192.732         63.7643 
        0.78569         191.707         60.9012 
       0.801365         184.715         58.2418 
       0.817031         178.978         55.7432 
       0.832809         177.539         53.3758 
       0.848511         172.181         51.1571 
       0.864097         170.185         49.0807 
       0.879701         166.608         47.1183 
       0.895507         162.128         45.2409 
       0.911279         157.507         43.4703 
        0.92691         157.366         41.8098 
       0.942635         152.936         40.2274 
       0.958396         152.288         38.7241 
       0.974128         148.441         37.3008 
       0.989692         145.191         35.9636 
        1.00528         142.928         34.6903 
        1.02113          141.64         33.4591 
        1.03692         137.572         32.2925 
        1.05264         134.818         31.1871 
        1.06832         132.394         30.1355 
        1.08405         130.554         29.1297 
        1.09979         129.531         28.1695 
        1.11537         126.006         27.2623 
        1.13105         124.528         26.3898 
        1.14679         123.848         25.5522 
        1.16256          121.98         24.7496 
        1.17828         119.619         23.9842 
        1.19395         117.437         23.2539 
         1.2097         116.235         22.5504 
        1.22537         114.855         21.8795 
          1.241         112.718         21.2381 
        1.25666             111         20.6209 
        1.27241         108.883         20.0254 
        1.28819         107.877         19.4526 
        1.30392         105.815         18.9039 
        1.31957         105.254         18.3789 
        1.33529         102.486          17.872 
        1.35108         101.629         17.3823 
        1.36674          100.64         16.9145 
         1.3824          98.738         16.4644 
        1.39811         97.7398         16.0293 
        1.41389         96.4727         15.6083 
        1.42964         94.2854         15.2032 
        1.44531         92.6855         14.8145 
        1.46101         91.7364         14.4386 
        1.47667          91.124          14.077 
        1.49229         89.5079         13.7287 
        1.50793         88.7294         13.3919 
        1.52367         87.3977         13.0642 
        1.53953         86.0356         12.7453 
        1.55526         85.3983         12.4397 
        1.57092         84.6248         12.1454 
        1.58662         82.5361         11.8599 
        1.60235         82.4545         11.5831 
        1.61809         80.8685          11.315 
        1.63369         80.1919         11.0578 
        1.64941         79.6228         10.8068 
        1.66519         77.5417         10.5627 
        1.68085         77.3591         10.3279 
        1.69652         75.5034         10.1002 
        1.71228         75.3806         9.87809 
        1.72806         74.4916          9.6625 
        1.74368         73.3677         9.45552 
        1.75933         72.1821         9.25421 
        1.77505         71.7826         9.05783 
        1.79081         70.5302         8.86682 
         1.8065         69.6482         8.68216 
        1.82218         68.7543         8.50292 
        1.83797         67.8171         8.32754 
        1.85367         67.4373         8.15808 
        1.86928         66.9467         7.99437 
        1.88497         65.6876         7.83427 
        1.90073         64.9102         7.67798 
        1.91647         64.3887          7.5261 
        1.93218         63.4455         7.37866 
        1.94787         62.8753          7.2354 
        1.96363         62.0159         7.09538 
        1.97935         61.4905         6.95936 
        1.99499         60.5716         6.82769 
        2.01064         60.0437         6.69925 
         2.0264         58.9363          6.5733 
        2.04216         58.4806         6.45067 
        2.05781         57.7117         6.33195 
        2.07353          56.763          6.2158 
        2.08928         56.2473         6.10231 
        2.10499         55.6499         5.99197 
        2.12065         55.2567          5.8847 
        2.13633         54.6024         5.77996 
        2.15211           54.17          5.6771 
        2.16785         53.6333         5.57704 
        2.18349         53.0895         5.48003 
        2.19916         52.3169         5.38512 
        2.21489         51.9162         5.29215 
        2.23063          51.496         5.20132 
         2.2463         50.6679         5.11303 
        2.26194         50.0163         5.02701 
        2.27765         49.8885         4.94254 
        2.29341         49.1006         4.85979 
        2.30914         48.4113         4.77912 
        2.32486         47.6333         4.70032 
        2.34061         47.4766         4.62317 
        2.35635         46.7089         4.54782 
        2.37203         46.2657         4.47442 
        2.38768         45.7412         4.40279 
        2.40339         45.3355         4.33248 
        2.41914          44.902         4.26354 
        2.43483         44.5938         4.19634 
         2.4505         44.2238         4.13071 
        2.46622         43.4902         4.06626 
        2.48195          43.198         4.00318 
        2.49759         42.5036         3.94178 
        2.51328         42.0761         3.88151 
        2.52906         41.6879         3.82212 
        2.54479         41.2854          3.7642 
        2.56049         40.7094         3.70759 
        2.57618         40.4973          3.6522 
        2.59189         39.8814         3.59786 
        2.60758         39.7219         3.54471 
        2.62325         39.1023         3.49269 
        2.63898         38.7636         3.44155 
        2.65468         38.2388         3.39154 
        2.67044          37.656          3.3423 
        2.68618         37.4892         3.29416 
        2.70184         37.0526         3.24717 
        2.71755         36.7208         3.20097 
        2.73329         36.3442          3.1556 
        2.74897         35.9051         3.11126 
        2.76462         35.5274         3.06788 
        2.78034         35.3139         3.02514 
        2.79607         34.8793         2.98317 
        2.81179         34.5806         2.94205 
        2.82749         34.0499         2.90175 
        2.84321         33.7814         2.86216 
        2.85893         33.5198         2.82332 
        2.87462         33.1323         2.78527 
        2.89033         32.6994         2.74789 
        2.90605         32.5267         2.71116 
        2.92176         32.0812         2.67512 
        2.93747         31.8521         2.63976 
        2.95318         31.4506         2.60503 
        2.96891         31.1092         2.57091 
        2.98456         30.9181         2.53755 
        3.00023         30.4965         2.50474 
        3.01596         30.2074          2.4724 
        3.03164         29.9933         2.44073 
        3.04738         29.7501         2.40953 
         3.0631         29.3124         2.37887 
        3.07883         29.0475         2.34876 
        3.09456         28.8327         2.31916 
        3.11026         28.5555         2.29013 
        3.12596         28.2105         2.26159 
        3.14163          27.957         2.23361 
        3.15734         27.6362         2.20604 
        3.17308         27.3652         2.17886 
        3.18879         27.2169         2.15222 
        3.20447         26.9127         2.12606 
         3.2202         26.5831         2.10026 
         3.2359         26.4569         2.07493 
        3.25157         26.1129         2.05008 
        3.26729         25.9178         2.02557 
        3.28304         25.6242          2.0014 
        3.29877         25.3177         1.97766 
        3.31446         25.1145         1.95436 
        3.33014          24.911         1.93146 
        3.34585          24.712         1.90889 
        3.36158         24.4118         1.88664 
        3.37727         24.1964         1.86482 
        3.39294         23.9468         1.84337 
        3.40867         23.7342         1.82217 
        3.42439         23.5483         1.80132 
        3.44008         23.3459         1.78084 
        3.45578          23.023         1.76066 
        3.47153         22.8676         1.74075 
        3.48724         22.6418         1.72119 
        3.50292          22.442         1.70197 
        3.51859         22.2103         1.68305 
        3.53431         22.0718         1.66436 
        3.55007         21.7789         1.64591 
        3.56577         21.5948         1.62781 
        3.58146         21.4441            1.61 
        3.59719          21.195         1.59241 
        3.61292         21.0537         1.57508 
        3.62859         20.7992         1.55808 
        3.64429         20.6085          1.5413 
        3.66003         20.4308         1.52472 
        3.67578          20.273         1.50839 
        3.69146         20.1136         1.49235 
        3.70712         19.8695         1.47658 
        3.72284         19.7499         1.46098 
        3.73853         19.5625         1.44563 
        3.75422         19.3892          1.4305 
        3.76993         19.1883         1.41557 
        3.78564         18.9809         1.40086 
        3.80137         18.8477         1.38633 
        3.81707         18.6909         1.37205 
        3.83279         18.5231         1.35795 
        3.84853         18.3272         1.34402 
        3.86424         18.2002         1.33032 
        3.87992         18.0414         1.31684 
        3.89561          17.826         1.30353 
        3.91134         17.7375         1.29039 
        3.92704         17.5448         1.27744 
        3.94273          17.409         1.26468 
        3.95845          17.204         1.25207 
        3.97418         17.1227         1.23963 
        3.98988         16.9168         1.22738 
        4.00554         16.8082         1.21533 
        4.02125         16.6956          1.2034 
        4.03698         16.4758         1.19162 
        4.05268         16.3553         1.18002 
        4.06839         16.1419         1.16857 
         4.0841           16.09         1.15727 
        4.09983         15.9005         1.14611 
        4.11555         15.8008         1.13509 
        4.13124          15.672         1.12426 
        4.14693         15.5455         1.11355 
        4.16266         15.3782         1.10296 
        4.17839         15.2588         1.09252 
        4.19408         15.1179         1.08223 
        4.20977          15.027         1.07207 
        4.22551         14.8401         1.06202 
        4.24123         14.7618          1.0521 
        4.25691         14.6331         1.04235 
        4.27259         14.5367         1.03271 
        4.28831         14.3795         1.02317 
        4.30404         14.2898         1.01375 
        4.31974         14.1337         1.00446 
        4.33543         14.0426        0.995297 
        4.35116         13.8945        0.986225 
        4.36688         13.7941         0.97727 
        4.38255         13.7052         0.96846 
        4.39825          13.583         0.95974 
        4.41398          13.439        0.951109 
         4.4297         13.3389        0.942594 
        4.44541         13.2314        0.934185 
        4.46111         13.1528        0.925884 
        4.47683         13.0059        0.917679 
        4.49251         12.9363         0.90959 
        4.50819         12.7901        0.901601 
         4.5239         12.7205        0.893696 
        4.53962         12.5836        0.885876 
        4.55535         12.5131        0.878146 
        4.57106         12.4163        0.870519 
        4.58678         12.2971        0.862982 
         4.6025         12.1665        0.855532 
        4.61821         12.0717        0.848171 
        4.63391         12.0161        0.840906 
         4.6496         11.9049         0.83373 
        4.66532          11.767        0.826626 
        4.68103         11.6944        0.819608 
        4.69673         11.6356        0.812678 
        4.71241         11.5044        0.805836 
        4.72811         11.4217         0.79906 
        4.74384         11.3257        0.792355 
        4.75955         11.2546        0.785736 
        4.77525         11.1696        0.779197 
        4.79096         11.0789        0.772724 
        4.80669         10.9845        0.766322 
         4.8224         10.8961            0.76 
        4.83809         10.8333        0.753755 
        4.85379         10.7149        0.747577 
         4.8695         10.6711        0.741463 
        4.88521         10.5806        0.735421 
        4.90093         10.4947        0.729445 
        4.91663         10.4012         0.72354 
        4.93234         10.3393        0.717695 
        4.94807         10.2515         0.71191 
        4.96377         10.1639          0.7062 
        4.97943         10.1046        0.700565 
        4.99514         10.0241        0.694977 
        5.01086         9.95355        0.689445 
        5.02654         9.84576        0.683988 
        5.04227         9.79296        0.678574 
          5.058         9.71464        0.673216 
        5.07371         9.66156        0.667926 
        5.08942         9.56541        0.662693 
        5.10513         9.50943        0.657515 
        5.12084         9.43727        0.652389 
        5.13656         9.36452         0.64732 
        5.15225         9.29932        0.642313 
        5.16796          9.2317        0.637351 
        5.18369         9.17183        0.632437 
         5.1994         9.10657        0.627583 
        5.21509         9.02091        0.622785 
        5.23079         8.97385        0.618032 
        5.24649         8.89444        0.613332 
        5.26217         8.81351        0.608684 
        5.27788         8.77419        0.604077 
        5.29359         8.67619        0.599518 
        5.30933         8.62446        0.594999 
        5.32504         8.56598        0.590534 
        5.34073         8.49497         0.58612 
        5.35646          8.4466        0.581742 
        5.37218         8.39138        0.577409 
        5.38789         8.31565        0.573126 
        5.40357         8.27017        0.568891 
        5.41929         8.19776        0.564691 
        5.43502         8.17009        0.560532 
         5.4507         8.07042        0.556424 
        5.46639         8.02081        0.552358 
        5.48212         7.95861        0.548323 
        5.49786         7.90886        0.544323 
        5.51353         7.86726        0.540383 
        5.52921         7.79994        0.536478 
        5.54495         7.73633          0.5326 
        5.56066          7.7037        0.528764 
        5.57637         7.64642        0.524967 
        5.59207         7.58733        0.521211 
        5.60778         7.52835         0.51749 
        5.62346         7.47471         0.51381 
        5.63916          7.4172        0.510163 
        5.65487         7.36655         0.50655 
         5.6706         7.33261        0.502967 
        5.68633          7.2778        0.499417 
        5.70203         7.23867        0.495909 
        5.71773         7.15563        0.492436 
        5.73344         7.12942        0.488994 
        5.74916         7.07146        0.485581 
        5.76486         7.01853        0.482206 
        5.78054         6.98702        0.478868 
        5.79626         6.93704        0.475552 
          5.812         6.88982        0.472265 
         5.8277         6.83866        0.469018 
        5.84339         6.80245        0.465802 
        5.85911         6.74716        0.462609 
        5.87484          6.6955        0.459448 
        5.89053         6.66351        0.456322 
        5.90623         6.60018        0.453223 
        5.92195           6.565        0.450148 
        5.93767         6.53062        0.447104 
        5.95336         6.47313        0.444092 
        5.96905         6.44004         0.44111 
        5.98476         6.38538         0.43815 
        6.00048         6.35845        0.435217 
        6.01617         6.30797        0.432315 
        6.03185         6.26947        0.429442 
        6.04756         6.22288        0.426589 
        6.06331          6.1877        0.423756 
        6.07903         6.14946        0.420954 
        6.09473          6.1034         0.41818 
        6.11044         6.06989        0.415429 
        6.12616         6.02066        0.412703 
        6.14186         5.97974        0.410004 
        6.15755         5.93191         0.40733 
        6.17326         5.89555        0.404677 
        6.18898         5.86109        0.402047 
        6.20467         5.83041        0.399445 
        6.22036         5.77818        0.396866 
         6.2361         5.75061        0.394303 
         6.2518          5.7204        0.391766 
        6.26748          5.6745        0.389258 
        6.28319         5.62981        0.386764 
        6.29893         5.61037        0.384291 
        6.31463          5.5617        0.381843 
        6.33033         5.52654        0.379417 
        6.34604         5.49848        0.377011 
        6.36177         5.46962        0.374623 
        6.37747         5.43311         0.37226 
