# k  (h/Mpc)    Pcb(k)  (Mpc/h)^3    Pcb_linear(k) (Mpc/h)^3   ShotnoiseSubtracted = true
      0.0200456         11275.6         11482.1 
      0.0350414         7556.81         7766.09 
      0.0492313         5241.01          5257.3 
      0.0637834         4421.61         4299.22 
      0.0800726         3575.34          3515.3 
       0.096163         2448.18         2489.19 
       0.111083         1856.38         1869.13 
       0.126058         1691.87         1643.64 
       0.142273         1511.41         1458.43 
       0.158546          1257.7         1151.79 
        0.17375         973.597         918.936 
       0.188953         926.551         816.095 
       0.204907         883.314         750.087 
       0.220756         753.624         646.717 
        0.23588         654.338         544.119 
         0.2514         563.881         480.225 
       0.267535         548.285           442.4 
       0.283568         499.444         399.167 
       0.299022         463.165         351.068 
       0.314451         429.823         313.414 
       0.330372          395.88         288.014 
       0.346141         357.289         265.633 
       0.361624         344.112         241.416 
       0.377134         318.846         219.106 
       0.392932         298.865         201.662 
       0.408854         286.147          187.23 
       0.424564         272.329         173.227 
       0.440253          261.64         159.683 
       0.455999         245.343          147.98 
       0.471626         228.541         138.182 
        0.48727         220.595         129.195 
       0.502856         212.839         120.633 
       0.518488         209.491          112.75 
       0.534347         197.832         105.707 
       0.550082         184.726         99.3979 
       0.565732         180.351         93.5465 
       0.581496         171.485         88.0368 
       0.597222         166.657          83.027 
       0.612804         160.354         78.4985 
       0.628434         155.027         74.2963 
       0.644267         149.706           70.32 
       0.660051         147.879         66.6364 
       0.675724         143.717         63.2608 
       0.691403         139.358         60.1266 
       0.707174         133.533         57.1865 
       0.722871         132.028         54.4537 
        0.73838         129.213          51.928 
       0.754018         124.574         49.5428 
       0.769845         121.309          47.281 
        0.78569         118.869         45.1579 
       0.801365         115.285          43.186 
       0.817031         111.265         41.3333 
       0.832809         109.924         39.5779 
       0.848511         106.429         37.9328 
       0.864097         104.362         36.3931 
       0.879701         102.237          34.938 
       0.895507         99.7732         33.5459 
       0.911279         97.9349          32.233 
        0.92691         96.5386         31.0018 
       0.942635         93.7928         29.8284 
       0.958396         93.4736         28.7137 
       0.974128         90.8307         27.6584 
       0.989692         88.6715         26.6668 
        1.00528         86.6369         25.7227 
        1.02113         85.9387         24.8097 
        1.03692         82.8269         23.9447 
        1.05264         82.6799         23.1251 
        1.06832         80.3345         22.3453 
        1.08405         79.1403         21.5996 
        1.09979         78.7816         20.8876 
        1.11537          76.077         20.2149 
        1.13105         76.0838         19.5679 
        1.14679         74.8025         18.9469 
        1.16256         73.5984         18.3517 
        1.17828         72.0028         17.7842 
        1.19395         70.8441         17.2426 
         1.2097          69.208          16.721 
        1.22537         69.4223         16.2236 
          1.241         67.7559          15.748 
        1.25666         66.2884         15.2903 
        1.27241          65.392         14.8488 
        1.28819         64.3059          14.424 
        1.30392          63.587         14.0171 
        1.31957         62.8711         13.6279 
        1.33529         61.5046          13.252 
        1.35108         61.1304         12.8889 
        1.36674         60.4652          12.542 
         1.3824         59.0897         12.2083 
        1.39811         58.4849         11.8857 
        1.41389         57.7275         11.5735 
        1.42964          57.006         11.2731 
        1.44531         55.8704         10.9849 
        1.46101         55.0756         10.7062 
        1.47667         55.0251          10.438 
        1.49229         54.0236         10.1798 
        1.50793         53.6292            9.93 
        1.52367         52.5026         9.68704 
        1.53953         51.9281         9.45061 
        1.55526         51.4159         9.22398 
        1.57092         51.0814         9.00575 
        1.58662         50.1076         8.79408 
        1.60235         49.6728         8.58883 
        1.61809         48.9788         8.39004 
        1.63369         48.2033         8.19934 
        1.64941         47.7998         8.01321 
        1.66519          46.838         7.83221 
        1.68085         46.6354         7.65811 
        1.69652          45.815         7.48926 
        1.71228         45.5024         7.32456 
        1.72806         45.1039          7.1647 
        1.74368         44.3752         7.01122 
        1.75933          43.942         6.86195 
        1.77505         43.4492         6.71634 
        1.79081         42.9773         6.57471 
         1.8065         42.5652         6.43778 
        1.82218         42.0048         6.30488 
        1.83797         41.3979         6.17483 
        1.85367         40.9816         6.04918 
        1.86928         40.3917         5.92779 
        1.88497         40.3024         5.80908 
        1.90073          39.684         5.69318 
        1.91647         39.2329         5.58057 
        1.93218         38.8847         5.47124 
        1.94787         38.4417         5.36501 
        1.96363          38.037         5.26119 
        1.97935         37.4692         5.16034 
        1.99499         37.1807          5.0627 
        2.01064         36.8238         4.96746 
         2.0264         36.1374         4.87407 
        2.04216          35.972         4.78314 
        2.05781         35.4092         4.69511 
        2.07353         35.1341         4.60898 
        2.08928         34.9001         4.52484 
        2.10499         34.3721         4.44302 
        2.12065         33.9431         4.36347 
        2.13633         33.7839         4.28581 
        2.15211         33.4331         4.20955 
        2.16785         32.8319         4.13535 
        2.18349         32.6091         4.06341 
        2.19916          32.368         3.99304 
        2.21489          31.961          3.9241 
        2.23063         31.5502         3.85675 
         2.2463         31.1841         3.79129 
        2.26194         30.8728         3.72751 
        2.27765          30.611         3.66487 
        2.29341         30.2903         3.60351 
        2.30914         29.9992         3.54369 
        2.32486         29.5864         3.48526 
        2.34061         29.3999         3.42806 
        2.35635         29.1216         3.37219 
        2.37203         28.8551         3.31776 
        2.38768         28.4899         3.26465 
        2.40339         28.3369         3.21251 
        2.41914         28.0546         3.16139 
        2.43483         27.6174         3.11157 
         2.4505         27.4352          3.0629 
        2.46622         27.1253         3.01511 
        2.48195         26.9479         2.96834 
        2.49759         26.6452         2.92281 
        2.51328         26.2883         2.87812 
        2.52906         26.1687         2.83409 
        2.54479         25.7824         2.79114 
        2.56049         25.5581         2.74916 
        2.57618          25.282         2.70809 
        2.59189         25.1589         2.66779 
        2.60758         24.9293         2.62838 
        2.62325         24.5682         2.58982 
        2.63898          24.444         2.55189 
        2.65468         24.1371         2.51481 
        2.67044         23.9646          2.4783 
        2.68618         23.6675         2.44261 
        2.70184         23.4114         2.40776 
        2.71755         23.3095          2.3735 
        2.73329          23.042         2.33986 
        2.74897         22.7687         2.30699 
        2.76462         22.5638         2.27482 
        2.78034         22.4652         2.24313 
        2.79607         22.2792         2.21201 
        2.81179         21.9786         2.18151 
        2.82749         21.8095         2.15163 
        2.84321         21.5307         2.12228 
        2.85893         21.2684         2.09348 
        2.87462         21.1844         2.06526 
        2.89033         21.0447         2.03755 
        2.90605         20.8035         2.01031 
        2.92176         20.6425         1.98359 
        2.93747         20.4535         1.95737 
        2.95318         20.1858         1.93162 
        2.96891         20.0623         1.90632 
        2.98456         19.8533         1.88158 
        3.00023         19.6311         1.85725 
        3.01596         19.4667         1.83328 
        3.03164         19.2959         1.80979 
        3.04738         19.1381         1.78665 
         3.0631          18.986         1.76392 
        3.07883         18.8484         1.74159 
        3.09456          18.575         1.71965 
        3.11026         18.4381         1.69812 
        3.12596         18.2872         1.67696 
        3.14163         18.1681         1.65621 
        3.15734         18.0031         1.63577 
        3.17308         17.8042         1.61562 
        3.18879         17.6731         1.59586 
        3.20447         17.4788         1.57647 
         3.2202         17.3424         1.55733 
         3.2359         17.1376         1.53855 
        3.25157         17.0767         1.52013 
        3.26729         16.9237         1.50195 
        3.28304         16.7613         1.48403 
        3.29877         16.5328         1.46643 
        3.31446          16.404         1.44915 
        3.33014          16.264         1.43217 
        3.34585         16.1036         1.41543 
        3.36158         15.9891         1.39894 
        3.37727         15.8272         1.38276 
        3.39294         15.6679         1.36685 
        3.40867         15.5338         1.35113 
        3.42439         15.4374         1.33567 
        3.44008         15.2913         1.32049 
        3.45578         15.1172         1.30552 
        3.47153         15.0204         1.29076 
        3.48724         14.8531         1.27625 
        3.50292         14.8078           1.262 
        3.51859         14.5961         1.24797 
        3.53431          14.496         1.23412 
        3.55007         14.3929         1.22044 
        3.56577         14.2533         1.20702 
        3.58146         14.1551         1.19381 
        3.59719         13.9853         1.18076 
        3.61292         13.8967         1.16792 
        3.62859         13.7539         1.15531 
        3.64429          13.655         1.14287 
        3.66003         13.5341         1.13057 
        3.67578         13.4453         1.11846 
        3.69146         13.3414         1.10657 
        3.70712         13.1838         1.09488 
        3.72284         13.1147         1.08331 
        3.73853         12.9879         1.07193 
        3.75422         12.8061         1.06071 
        3.76993         12.7515         1.04964 
        3.78564         12.6141         1.03873 
        3.80137         12.5422         1.02796 
        3.81707         12.4243         1.01737 
        3.83279         12.3407         1.00691 
        3.84853         12.2159        0.996588 
        3.86424         12.0939         0.98643 
        3.87992         11.9871        0.976427 
        3.89561         11.8835        0.966564 
        3.91134         11.8048        0.956816 
        3.92704          11.698        0.947215 
        3.94273         11.6043        0.937754 
        3.95845          11.522        0.928406 
        3.97418         11.4346        0.919183 
        3.98988         11.3137        0.910098 
        4.00554         11.2563        0.901161 
        4.02125         11.1614        0.892318 
        4.03698         11.0231        0.883581 
        4.05268         10.9578         0.87498 
        4.06839         10.8776        0.866487 
         4.0841         10.7649         0.85811 
        4.09983          10.657        0.849832 
        4.11555         10.6049        0.841667 
        4.13124         10.5063        0.833631 
        4.14693         10.4448        0.825693 
        4.16266         10.3178        0.817841 
        4.17839          10.251        0.810096 
        4.19408         10.1731        0.802468 
        4.20977         10.0909        0.794935 
        4.22551         9.99208        0.787481 
        4.24123         9.93334        0.780131 
        4.25691          9.8505        0.772894 
        4.27259         9.77471        0.765747 
        4.28831         9.67805        0.758676 
        4.30404         9.60725        0.751688 
        4.31974         9.54214        0.744803 
        4.33543         9.47048        0.738008 
        4.35116         9.38457        0.731281 
        4.36688         9.31444        0.724641 
        4.38255         9.24314        0.718109 
        4.39825         9.17094        0.711642 
        4.41398         9.09087        0.705243 
         4.4297         9.00167        0.698929 
        4.44541         8.94653        0.692694 
        4.46111          8.8922        0.686539 
        4.47683         8.81579        0.680455 
        4.49251         8.74999        0.674457 
        4.50819         8.67554        0.668533 
         4.5239         8.60617        0.662671 
        4.53962         8.55122        0.656873 
        4.55535         8.47829        0.651141 
        4.57106         8.39266        0.645486 
        4.58678         8.33983        0.639897 
         4.6025         8.26676        0.634373 
        4.61821         8.19347        0.628915 
        4.63391         8.13689        0.623528 
         4.6496         8.09978        0.618207 
        4.66532         8.02394        0.612939 
        4.68103         7.96695        0.607735 
        4.69673         7.89868        0.602597 
        4.71241         7.82743        0.597523 
        4.72811         7.75281          0.5925 
        4.74384         7.72477        0.587527 
        4.75955         7.66541         0.58262 
        4.77525         7.62044        0.577771 
        4.79096           7.549        0.572971 
        4.80669         7.48877        0.568224 
         4.8224           7.429        0.563536 
        4.83809         7.38102        0.558906 
        4.85379         7.31017        0.554325 
         4.8695         7.26638        0.549792 
        4.88521         7.22459        0.545311 
        4.90093         7.13869         0.54088 
        4.91663         7.10328        0.536502 
        4.93234         7.04078        0.532167 
        4.94807         6.99865        0.527878 
        4.96377         6.93871        0.523644 
        4.97943         6.91965        0.519466 
        4.99514         6.83586        0.515322 
        5.01086         6.79273         0.51122 
        5.02654         6.73885        0.507174 
        5.04227         6.70224        0.503159 
          5.058         6.64063        0.499186 
        5.07371         6.60205        0.495264 
        5.08942          6.5523        0.491383 
        5.10513         6.49619        0.487544 
        5.12084         6.45725        0.483744 
        5.13656         6.41169        0.479985 
        5.15225         6.35695        0.476272 
        5.16796         6.31512        0.472593 
        5.18369         6.26795        0.468949 
         5.1994         6.21763         0.46535 
        5.21509         6.19302        0.461792 
        5.23079          6.1275        0.458268 
        5.24649         6.09135        0.454783 
        5.26217         6.04673        0.451336 
        5.27788         6.00841        0.447921 
        5.29359         5.97243         0.44454 
        5.30933         5.92775        0.441189 
        5.32504         5.89472        0.437878 
        5.34073         5.84876        0.434605 
        5.35646         5.80875        0.431359 
        5.37218         5.76921        0.428146 
        5.38789         5.72787         0.42497 
        5.40357         5.67328         0.42183 
        5.41929         5.63951        0.418715 
        5.43502         5.60504        0.415632 
         5.4507         5.58231        0.412586 
        5.46639         5.53099        0.409571 
        5.48212         5.49583        0.406579 
        5.49786          5.4562        0.403613 
        5.51353         5.40524        0.400691 
        5.52921         5.38293        0.397796 
        5.54495         5.34729         0.39492 
        5.56066          5.3186        0.392076 
        5.57637            5.27        0.389261 
        5.59207         5.23659        0.386476 
        5.60778         5.19663        0.383716 
        5.62346         5.16395        0.380988 
        5.63916         5.12798        0.378284 
        5.65487         5.09822        0.375604 
         5.6706         5.06915        0.372948 
        5.68633         5.02484        0.370316 
        5.70203         5.00519        0.367714 
        5.71773         4.96682        0.365139 
        5.73344         4.93134        0.362587 
        5.74916          4.8929        0.360056 
        5.76486         4.87082        0.357553 
        5.78054         4.84284        0.355078 
        5.79626         4.79993         0.35262 
          5.812         4.77452        0.350182 
         5.8277         4.74398        0.347775 
        5.84339         4.70942         0.34539 
        5.85911         4.67661        0.343023 
        5.87484         4.65705        0.340678 
        5.89053         4.62607         0.33836 
        5.90623          4.5878        0.336063 
        5.92195         4.55653        0.333783 
        5.93767         4.51925        0.331525 
        5.95336         4.50462        0.329292 
        5.96905         4.47686        0.327081 
        5.98476         4.44301        0.324886 
        6.00048         4.42252        0.322711 
        6.01617         4.38808        0.320559 
        6.03185         4.35535        0.318429 
        6.04756         4.33742        0.316314 
        6.06331         4.29383        0.314213 
        6.07903         4.27618        0.312136 
        6.09473         4.25658        0.310079 
        6.11044         4.21583        0.308039 
        6.12616         4.19387        0.306018 
        6.14186         4.16975        0.304016 
        6.15755         4.13625        0.302033 
        6.17326         4.12552        0.300066 
        6.18898         4.09477        0.298116 
        6.20467         4.06285        0.296186 
        6.22036         4.04233        0.294274 
         6.2361         4.01981        0.292374 
         6.2518         3.98859        0.290493 
        6.26748         3.97014        0.288633 
        6.28319         3.94175        0.286784 
        6.29893         3.91595         0.28495 
        6.31463         3.89446        0.283135 
        6.33033         3.87457        0.281336 
        6.34604         3.85043        0.279552 
        6.36177         3.82464        0.277781 
        6.37747         3.80539        0.276029 
