# k  (h/Mpc)    Pcb(k)  (Mpc/h)^3    Pcb_linear(k) (Mpc/h)^3   ShotnoiseSubtracted = true
      0.0200456         10023.2         10170.4 
      0.0350414         7076.04         6878.92 
      0.0492313         4643.75         4656.72 
      0.0637834         3714.26         3808.09 
      0.0800726         2992.02         3113.72 
       0.096163         2289.35         2204.83 
       0.111083         1761.55         1655.61 
       0.126058         1462.51         1455.87 
       0.142273         1298.02         1291.82 
       0.158546         1062.33         1020.22 
        0.17375         890.992          813.96 
       0.188953         810.676         722.866 
       0.204907         702.382         664.399 
       0.220756         633.419         572.838 
        0.23588         551.811         481.961 
         0.2514         486.978         425.366 
       0.267535         471.554         391.862 
       0.283568         413.047         353.567 
       0.299022         389.939         310.963 
       0.314451         384.277         277.611 
       0.330372         330.072         255.112 
       0.346141         305.782         235.288 
       0.361624         289.933         213.838 
       0.377134         267.262         194.076 
       0.392932         258.935         178.624 
       0.408854         245.621         165.841 
       0.424564          235.37         153.438 
       0.440253         212.144         141.441 
       0.455999         200.237         131.075 
       0.471626         197.817         122.396 
        0.48727         188.619         114.436 
       0.502856          171.95         106.853 
       0.518488         171.259         99.8696 
       0.534347         159.158          93.631 
       0.550082         155.123          88.043 
       0.565732         153.059           82.86 
       0.581496         141.485         77.9797 
       0.597222         138.314         73.5423 
       0.612804         133.344         69.5311 
       0.628434         129.709         65.8089 
       0.644267         122.889         62.2869 
       0.660051         119.734          59.024 
       0.675724         117.575         56.0341 
       0.691403         114.968         53.2579 
       0.707174          110.62         50.6536 
       0.722871         108.652         48.2331 
        0.73838         106.386         45.9959 
       0.754018          99.842         43.8832 
       0.769845         99.5403         41.8797 
        0.78569         96.7131         39.9992 
       0.801365         93.2662         38.2526 
       0.817031         90.5445         36.6115 
       0.832809         88.9375         35.0566 
       0.848511         86.7484         33.5994 
       0.864097         85.1845         32.2357 
       0.879701         83.6781         30.9468 
       0.895507         80.6426         29.7137 
       0.911279         78.9345         28.5508 
        0.92691         77.2154         27.4602 
       0.942635         75.1921         26.4209 
       0.958396         74.9977         25.4336 
       0.974128         73.2118         24.4988 
       0.989692           71.42         23.6205 
        1.00528         70.1761         22.7842 
        1.02113         68.3617         21.9756 
        1.03692         68.2811         21.2093 
        1.05264         67.0501         20.4834 
        1.06832         64.8625         19.7927 
        1.08405         64.1542         19.1321 
        1.09979         63.4853         18.5014 
        1.11537         61.8145         17.9056 
        1.13105         60.6193         17.3325 
        1.14679         59.9069         16.7824 
        1.16256         58.7578         16.2553 
        1.17828         58.2691         15.7526 
        1.19395         56.7114         15.2729 
         1.2097         56.6599         14.8109 
        1.22537         55.2097         14.3702 
          1.241         55.0427          13.949 
        1.25666          53.037         13.5436 
        1.27241         52.9228         13.1525 
        1.28819         52.3458         12.7762 
        1.30392         51.2559         12.4159 
        1.31957          50.988          12.071 
        1.33529         50.1679         11.7381 
        1.35108         49.5477         11.4165 
        1.36674         48.5683         11.1093 
         1.3824         47.9749         10.8137 
        1.39811          47.106         10.5279 
        1.41389         46.4674         10.2514 
        1.42964         46.0676          9.9853 
        1.44531         45.3883         9.73001 
        1.46101         44.9791         9.48314 
        1.47667          44.262         9.24559 
        1.49229         43.5742         9.01686 
        1.50793         43.1604         8.79563 
        1.52367         42.7663         8.58042 
        1.53953         42.2506           8.371 
        1.55526         41.4268         8.17026 
        1.57092         41.2588         7.97696 
        1.58662         40.6792         7.78947 
        1.60235         40.0713         7.60766 
        1.61809         39.5007         7.43159 
        1.63369         38.9279         7.26267 
        1.64941         38.6166         7.09781 
        1.66519         37.9649         6.93748 
        1.68085         37.5585         6.78327 
        1.69652         37.0281         6.63371 
        1.71228         36.7682         6.48782 
        1.72806         36.3658         6.34622 
        1.74368         35.7177         6.21028 
        1.75933         35.6641         6.07806 
        1.77505         35.1656         5.94909 
        1.79081         34.7735         5.82363 
         1.8065         34.3885         5.70235 
        1.82218         33.6187         5.58463 
        1.83797         33.4136         5.46944 
        1.85367         33.0782         5.35814 
        1.86928           32.95         5.25062 
        1.88497          32.327         5.14546 
        1.90073          32.098         5.04281 
        1.91647         31.9262         4.94306 
        1.93218         31.6277         4.84622 
        1.94787         31.1296         4.75213 
        1.96363         30.6571         4.66017 
        1.97935         30.4972         4.57083 
        1.99499         30.1927         4.48435 
        2.01064         29.6668         4.39999 
         2.0264         29.5459         4.31728 
        2.04216         29.2949         4.23673 
        2.05781         28.9626         4.15875 
        2.07353         28.5295         4.08247 
        2.08928         28.4316         4.00793 
        2.10499         28.0949         3.93546 
        2.12065         27.7107           3.865 
        2.13633         27.5809         3.79621 
        2.15211         27.1255         3.72866 
        2.16785         26.8362         3.66294 
        2.18349          26.624         3.59922 
        2.19916         26.3582         3.53689 
        2.21489          26.171         3.47583 
        2.23063         25.8654         3.41617 
         2.2463         25.6981         3.35818 
        2.26194         25.3169         3.30169 
        2.27765          25.093         3.24621 
        2.29341         24.7646         3.19186 
        2.30914         24.5516         3.13887 
        2.32486         24.3644         3.08712 
        2.34061         24.1137         3.03645 
        2.35635         23.8402         2.98696 
        2.37203         23.6956         2.93875 
        2.38768         23.4289         2.89171 
        2.40339         23.2341         2.84552 
        2.41914         23.0415         2.80024 
        2.43483         22.9029         2.75611 
         2.4505         22.5245         2.71301 
        2.46622         22.2733         2.67067 
        2.48195         22.1374         2.62925 
        2.49759          21.828         2.58892 
        2.51328         21.6273         2.54933 
        2.52906         21.4807         2.51033 
        2.54479         21.3407         2.47229 
        2.56049         21.1735         2.43511 
        2.57618         20.9354         2.39872 
        2.59189         20.6704         2.36303 
        2.60758         20.4869         2.32812 
        2.62325         20.2518         2.29396 
        2.63898         20.2097         2.26037 
        2.65468         19.9743         2.22752 
        2.67044         19.7645         2.19519 
        2.68618         19.5042         2.16357 
        2.70184         19.3392          2.1327 
        2.71755         19.1275         2.10236 
        2.73329         18.9728         2.07257 
        2.74897         18.8642         2.04344 
        2.76462         18.7105         2.01495 
        2.78034         18.4192         1.98688 
        2.79607         18.2964         1.95931 
        2.81179         18.1384          1.9323 
        2.82749         17.9426         1.90584 
        2.84321         17.8192         1.87983 
        2.85893         17.6689         1.85433 
        2.87462         17.4866         1.82934 
        2.89033         17.3465         1.80478 
        2.90605         17.1405         1.78066 
        2.92176         16.9304         1.75699 
        2.93747         16.8908         1.73377 
        2.95318         16.7492         1.71096 
        2.96891          16.492         1.68855 
        2.98456         16.4357         1.66664 
        3.00023         16.2679         1.64509 
        3.01596         16.0327         1.62385 
        3.03164         15.9701         1.60305 
        3.04738         15.8689         1.58255 
         3.0631         15.7006         1.56242 
        3.07883         15.5572         1.54264 
        3.09456         15.4101          1.5232 
        3.11026         15.2779         1.50413 
        3.12596         15.0992         1.48539 
        3.14163         15.0083         1.46701 
        3.15734          14.902          1.4489 
        3.17308          14.737         1.43105 
        3.18879         14.5783         1.41356 
        3.20447         14.5294         1.39638 
         3.2202         14.3574         1.37943 
         3.2359         14.2131         1.36279 
        3.25157         14.1194         1.34647 
        3.26729         14.0081         1.33037 
        3.28304         13.9156          1.3145 
        3.29877         13.8192         1.29891 
        3.31446         13.6838          1.2836 
        3.33014         13.5161         1.26856 
        3.34585         13.4632         1.25374 
        3.36158         13.3234         1.23913 
        3.37727         13.2083         1.22479 
        3.39294         13.0952          1.2107 
        3.40867         12.9606         1.19678 
        3.42439          12.864         1.18309 
        3.44008         12.7564         1.16964 
        3.45578         12.6418         1.15638 
        3.47153         12.5611         1.14331 
        3.48724         12.4608         1.13046 
        3.50292         12.3727         1.11783 
        3.51859         12.2233         1.10541 
        3.53431         12.1441         1.09313 
        3.55007         12.0562         1.08102 
        3.56577         11.9299         1.06913 
        3.58146         11.8299         1.05743 
        3.59719          11.746         1.04587 
        3.61292         11.6412          1.0345 
        3.62859         11.5272         1.02333 
        3.64429         11.4501         1.01231 
        3.66003         11.3396         1.00142 
        3.67578         11.2834        0.990691 
        3.69146         11.1745        0.980161 
        3.70712         11.0495        0.969803 
        3.72284         10.9864        0.959557 
        3.73853         10.8999        0.949476 
        3.75422         10.7803        0.939536 
        3.76993         10.6984        0.929731 
        3.78564         10.6375        0.920069 
        3.80137         10.5519         0.91053 
        3.81707         10.4471        0.901145 
        3.83279         10.3936        0.891885 
        3.84853         10.3003        0.882741 
        3.86424          10.187        0.873743 
        3.87992         10.1208        0.864883 
        3.89561          10.035        0.856146 
        3.91134         9.95679        0.847512 
        3.92704         9.88532        0.839008 
        3.94273         9.81932        0.830628 
        3.95845         9.70333        0.822348 
        3.97418         9.63007        0.814178 
        3.98988         9.57452        0.806131 
        4.00554          9.4844        0.798215 
        4.02125         9.42283        0.790382 
        4.03698         9.34309        0.782643 
        4.05268         9.27703        0.775025 
        4.06839         9.18559        0.767502 
         4.0841          9.1221        0.760082 
        4.09983         9.03115         0.75275 
        4.11555         8.97494        0.745517 
        4.13124         8.89429        0.738399 
        4.14693         8.82981        0.731369 
        4.16266         8.74436        0.724413 
        4.17839         8.68064        0.717553 
        4.19408         8.61954        0.710796 
        4.20977         8.52346        0.704124 
        4.22551         8.49229        0.697522 
        4.24123         8.41583        0.691011 
        4.25691         8.33801        0.684601 
        4.27259         8.27769         0.67827 
        4.28831         8.20332        0.672007 
        4.30404         8.15003        0.665817 
        4.31974         8.10342        0.659719 
        4.33543         8.00858          0.6537 
        4.35116         7.95851        0.647742 
        4.36688         7.89265         0.64186 
        4.38255         7.84378        0.636074 
        4.39825         7.76304        0.630347 
        4.41398         7.71038        0.624678 
         4.4297         7.64508        0.619085 
        4.44541         7.59467        0.613562 
        4.46111         7.52481        0.608111 
        4.47683         7.48194        0.602722 
        4.49251         7.43509        0.597409 
        4.50819         7.34894        0.592161 
         4.5239         7.30528         0.58697 
        4.53962         7.24345        0.581834 
        4.55535         7.20516        0.576757 
        4.57106         7.14751        0.571748 
        4.58678         7.09413        0.566797 
         4.6025         7.03055        0.561904 
        4.61821         6.97768        0.557069 
        4.63391         6.92769        0.552298 
         4.6496          6.8933        0.547584 
        4.66532         6.84941        0.542919 
        4.68103         6.77826         0.53831 
        4.69673          6.7329        0.533758 
        4.71241         6.67603        0.529264 
        4.72811         6.61859        0.524814 
        4.74384         6.58876         0.52041 
        4.75955         6.54959        0.516063 
        4.77525         6.50299        0.511768 
        4.79096         6.45723        0.507517 
        4.80669         6.40034        0.503312 
         4.8224         6.37198        0.499159 
        4.83809         6.30669        0.495058 
        4.85379         6.27093        0.491001 
         4.8695         6.22689        0.486985 
        4.88521          6.1839        0.483016 
        4.90093         6.13454        0.479091 
        4.91663         6.08225        0.475213 
        4.93234         6.04454        0.471374 
        4.94807         5.99061        0.467575 
        4.96377         5.94904        0.463825 
        4.97943         5.91713        0.460123 
        4.99514         5.86888        0.456453 
        5.01086         5.81942         0.45282 
        5.02654         5.79155        0.449236 
        5.04227         5.73512         0.44568 
          5.058         5.69692        0.442161 
        5.07371         5.68391        0.438687 
        5.08942         5.61439        0.435249 
        5.10513         5.59144        0.431848 
        5.12084         5.54958        0.428482 
        5.13656         5.49982        0.425153 
        5.15225          5.4617        0.421864 
        5.16796         5.42857        0.418605 
        5.18369         5.38759        0.415378 
         5.1994         5.35321         0.41219 
        5.21509         5.32085        0.409039 
        5.23079         5.27904        0.405917 
        5.24649         5.23097         0.40283 
        5.26217         5.20612        0.399777 
        5.27788         5.16601        0.396752 
        5.29359         5.13555        0.393757 
        5.30933         5.09367        0.390789 
        5.32504         5.07585        0.387856 
        5.34073         5.02823        0.384957 
        5.35646         4.98781        0.382082 
        5.37218         4.96509        0.379236 
        5.38789         4.93458        0.376423 
        5.40357          4.8916        0.373642 
        5.41929         4.85313        0.370883 
        5.43502         4.82513        0.368151 
         5.4507         4.78653        0.365454 
        5.46639         4.75839        0.362783 
        5.48212         4.73309        0.360132 
        5.49786         4.70142        0.357505 
        5.51353         4.67639        0.354917 
        5.52921         4.63754        0.352353 
        5.54495         4.60663        0.349806 
        5.56066          4.5823        0.347287 
        5.57637         4.55625        0.344793 
        5.59207         4.51405        0.342326 
        5.60778         4.48555        0.339882 
        5.62346         4.46049        0.337465 
        5.63916         4.42733         0.33507 
        5.65487         4.39499        0.332696 
         5.6706          4.3715        0.330343 
        5.68633         4.34152        0.328012 
        5.70203          4.3185        0.325708 
        5.71773         4.28907        0.323426 
        5.73344         4.25291        0.321166 
        5.74916         4.23816        0.318924 
        5.76486         4.20407        0.316708 
        5.78054         4.17909        0.314515 
        5.79626         4.15469        0.312338 
          5.812         4.12397        0.310178 
         5.8277         4.09857        0.308046 
        5.84339         4.07174        0.305934 
        5.85911         4.04715        0.303837 
        5.87484         4.01541         0.30176 
        5.89053         3.99394        0.299707 
        5.90623         3.97714        0.297672 
        5.92195         3.94991        0.295653 
        5.93767         3.92157        0.293653 
        5.95336         3.90231        0.291675 
        5.96905         3.88031        0.289716 
        5.98476         3.85307        0.287772 
        6.00048         3.82744        0.285846 
        6.01617         3.80277         0.28394 
        6.03185          3.7771        0.282053 
        6.04756         3.74962        0.280179 
        6.06331         3.73137        0.278318 
        6.07903         3.70844        0.276478 
        6.09473         3.69267        0.274656 
        6.11044         3.66188        0.272849 
        6.12616         3.64142        0.271059 
        6.14186         3.61626        0.269286 
        6.15755         3.59644         0.26753 
        6.17326         3.57904        0.265788 
        6.18898         3.55243         0.26406 
        6.20467         3.53097        0.262351 
        6.22036         3.51495        0.260657 
         6.2361         3.48015        0.258974 
         6.2518         3.47109        0.257308 
        6.26748         3.44782         0.25566 
        6.28319         3.42128        0.254023 
        6.29893         3.41072        0.252398 
        6.31463         3.38857         0.25079 
        6.33033         3.37022        0.249197 
        6.34604          3.3486        0.247617 
        6.36177         3.32233        0.246048 
        6.37747         3.31558        0.244497 
