# k  (h/Mpc)    Pcb(k)  (Mpc/h)^3    Pcb_linear(k) (Mpc/h)^3   ShotnoiseSubtracted = true
      0.0200456         9412.53         9613.94 
      0.0350414         7146.54         7362.59 
      0.0492313         5608.34         5676.38 
      0.0637834          4947.9         4901.39 
      0.0800726         3895.63         3857.14 
       0.096163          2777.7         2853.57 
       0.111083         2311.35         2413.13 
       0.126058         2156.87         2167.79 
       0.142273         1817.27         1777.84 
       0.158546         1534.31         1430.99 
        0.17375         1280.06         1273.62 
       0.188953         1235.39         1157.76 
       0.204907         1145.98         993.864 
       0.220756         980.271         851.403 
        0.23588         876.891         772.233 
         0.2514         773.035         706.475 
       0.267535         747.296         626.216 
       0.283568          681.58         555.986 
       0.299022         638.163         509.128 
       0.314451         600.333         469.247 
       0.330372         555.332         426.159 
       0.346141         506.727         387.898 
       0.361624         487.244         358.421 
       0.377134         456.478         332.596 
       0.392932         432.558         306.974 
       0.408854         416.394          283.43 
       0.424564          397.81         263.769 
       0.440253         383.497         246.299 
       0.455999         361.944         229.766 
       0.471626         336.608         214.716 
        0.48727          329.65         201.326 
       0.502856         318.674         189.259 
       0.518488         314.843         178.004 
       0.534347         296.948         167.453 
       0.550082         279.363         157.937 
       0.565732         275.973         149.259 
       0.581496         262.427         141.149 
       0.597222          256.14         133.638 
       0.612804         246.673         126.761 
       0.628434         239.232         120.382 
       0.644267         231.447         114.375 
       0.660051          228.61         108.796 
       0.675724         224.275         103.627 
       0.691403         217.854         98.7957 
       0.707174         208.547         94.2503 
       0.722871         206.858         90.0142 
        0.73838         202.638         86.0887 
       0.754018         196.175         82.3719 
       0.769845         191.179         78.8382 
        0.78569         188.509         75.5128 
       0.801365         183.781         72.4159 
       0.817031         177.731         69.4984 
       0.832809         174.742         66.7262 
       0.848511          170.87         64.1207 
       0.864097         167.659          61.675 
       0.879701          164.35          59.357 
       0.895507         160.055          57.133 
       0.911279         157.734         55.0298 
        0.92691         155.512         53.0519 
       0.942635         152.459         51.1622 
       0.958396         151.885         49.3621 
       0.974128         147.291         47.6536 
       0.989692         143.528         46.0444 
        1.00528         141.174         44.5085 
        1.02113         140.045         43.0199 
        1.03692         134.866         41.6062 
        1.05264          134.16         40.2638 
        1.06832         131.304         38.9838 
        1.08405         129.525         37.7571 
        1.09979         128.707         36.5835 
        1.11537         124.563         35.4724 
        1.13105         124.337         34.4017 
        1.14679         122.987         33.3719 
        1.16256         120.946          32.383 
        1.17828         117.727         31.4383 
        1.19395         116.901         30.5351 
         1.2097         114.029         29.6634 
        1.22537         113.849         28.8307 
          1.241         111.187          28.033 
        1.25666         109.083          27.264 
        1.27241          107.91         26.5208 
        1.28819          106.21         25.8046 
        1.30392         104.843         25.1174 
        1.31957         103.118         24.4587 
        1.33529         101.471         23.8216 
        1.35108         100.452         23.2051 
        1.36674         99.1874         22.6153 
         1.3824         97.4283         22.0468 
        1.39811         96.3899         21.4963 
        1.41389         94.8869         20.9629 
        1.42964         93.8737         20.4488 
        1.44531         91.7178         19.9547 
        1.46101         90.7044         19.4762 
        1.47667         90.1193         19.0151 
        1.49229         88.3132         18.5704 
        1.50793         87.5154         18.1396 
        1.52367         86.5796           17.72 
        1.53953         85.2914         17.3111 
        1.55526         84.3838         16.9186 
        1.57092         83.8494           16.54 
        1.58662         82.2019         16.1724 
        1.60235         81.4486         15.8154 
        1.61809         80.2593         15.4692 
        1.63369          78.793         15.1366 
        1.64941         78.1144         14.8115 
        1.66519         76.9269          14.495 
        1.68085         76.0375         14.1902 
        1.69652         74.8669         13.8941 
        1.71228         74.1887          13.605 
        1.72806         73.5392          13.324 
        1.74368         72.5366         13.0539 
        1.75933         71.8015         12.7909 
        1.77505         70.9582          12.534 
        1.79081         69.7546         12.2838 
         1.8065         69.3322         12.0417 
        1.82218         68.1256         11.8064 
        1.83797         67.6189         11.5758 
        1.85367         66.5364         11.3528 
        1.86928          66.134         11.1371 
        1.88497         65.0349         10.9259 
        1.90073         64.3218         10.7195 
        1.91647          63.868         10.5187 
        1.93218         62.8026         10.3236 
        1.94787         62.1836         10.1338 
        1.96363          61.258         9.94806 
        1.97935         60.8909         9.76744 
        1.99499         59.9455          9.5924 
        2.01064         59.7181         9.42146 
         2.0264          58.341         9.25368 
        2.04216          57.868         9.09014 
        2.05781         57.1459         8.93164 
        2.07353          56.497         8.77641 
        2.08928         55.8299         8.62459 
        2.10499         55.4516         8.47683 
        2.12065         54.8219         8.33303 
        2.13633         54.4944         8.19249 
        2.15211         53.8087         8.05433 
        2.16785         52.7736          7.9198 
        2.18349         52.3899         7.78923 
        2.19916         51.9333         7.66137 
        2.21489         51.3853         7.53601 
        2.23063         50.6205         7.41341 
         2.2463         50.1068         7.29413 
        2.26194         49.2615         7.17781 
        2.27765         48.7225         7.06347 
        2.29341         48.2899         6.95136 
        2.30914         47.6816         6.84196 
        2.32486         47.1302           6.735 
        2.34061         46.6612         6.63019 
        2.35635         46.1858         6.52774 
        2.37203         45.5873         6.42784 
        2.38768         45.1775         6.33026 
        2.40339         44.8161          6.2344 
        2.41914         44.3791         6.14032 
        2.43483         43.5921         6.04854 
         2.4505         43.2246         5.95883 
        2.46622         42.8871         5.87065 
        2.48195         42.4664         5.78428 
        2.49759         41.8721         5.70013 
        2.51328         41.2435         5.61746 
        2.52906         41.0948         5.53593 
        2.54479         40.4098         5.45635 
        2.56049         40.0379         5.37851 
        2.57618         39.5023         5.30228 
        2.59189         39.2399         5.22744 
        2.60758         38.8834         5.15417 
        2.62325         38.4254         5.08243 
        2.63898         38.0463         5.01181 
        2.65468         37.5368         4.94271 
        2.67044         37.2297         4.87463 
        2.68618         36.8039         4.80801 
        2.70184         36.4106         4.74292 
        2.71755          36.179         4.67889 
        2.73329         35.6966         4.61597 
        2.74897         35.2811         4.55442 
        2.76462         34.8858         4.49414 
        2.78034         34.5466         4.43473 
        2.79607         34.1604         4.37634 
        2.81179         33.9671         4.31908 
        2.82749         33.6164         4.26293 
        2.84321         33.1707         4.20773 
        2.85893         32.7772         4.15353 
        2.87462         32.4494          4.1004 
        2.89033         32.2643         4.04816 
        2.90605         31.8973          3.9968 
        2.92176         31.6886         3.94637 
        2.93747         31.1921         3.89685 
        2.95318         30.8571         3.84818 
        2.96891         30.6441         3.80033 
        2.98456         30.2406         3.75351 
        3.00023         30.0293         3.70743 
        3.01596         29.6438         3.66199 
        3.03164         29.3788         3.61745 
        3.04738         29.2431         3.57354 
         3.0631          28.825         3.53037 
        3.07883         28.5524         3.48793 
        3.09456         28.2272         3.44621 
        3.11026         27.9351         3.40524 
        3.12596         27.7014         3.36495 
        3.14163         27.4052         3.32541 
        3.15734         27.1313         3.28642 
        3.17308         26.9123         3.24798 
        3.18879         26.5973         3.21026 
        3.20447         26.3827         3.17321 
         3.2202          26.061         3.13664 
         3.2359         25.7871         3.10071 
        3.25157         25.7201         3.06544 
        3.26729         25.4431         3.03062 
        3.28304         25.0785         2.99628 
        3.29877         24.7957         2.96253 
        3.31446         24.7136         2.92937 
        3.33014         24.4078         2.89676 
        3.34585         24.1475          2.8646 
        3.36158         23.9957         2.83289 
        3.37727         23.6793         2.80177 
        3.39294         23.5224         2.77115 
        3.40867         23.3778         2.74088 
        3.42439          23.039         2.71109 
        3.44008         22.8151          2.6818 
        3.45578         22.6187         2.65293 
        3.47153         22.3647         2.62443 
        3.48724         22.1033          2.5964 
        3.50292         21.9672         2.56886 
        3.51859         21.7944         2.54173 
        3.53431         21.6157         2.51491 
        3.55007         21.3518         2.48843 
        3.56577         21.1856         2.46243 
        3.58146         20.9703         2.43682 
        3.59719         20.7232         2.41152 
        3.61292         20.5421         2.38659 
        3.62859         20.3866         2.36212 
        3.64429         20.2189         2.33794 
        3.66003         20.0595         2.31404 
        3.67578         19.8497         2.29048 
        3.69146         19.6163         2.26734 
        3.70712         19.4341         2.24457 
        3.72284         19.4031         2.22203 
        3.73853         19.1329         2.19985 
        3.75422         18.9569         2.17796 
        3.76993         18.7617         2.15636 
        3.78564         18.6065         2.13506 
        3.80137         18.4468         2.11402 
        3.81707         18.2655         2.09331 
        3.83279          18.114         2.07287 
        3.84853         17.9242         2.05267 
        3.86424         17.8222         2.03278 
        3.87992         17.6429         2.01319 
        3.89561         17.4719         1.99386 
        3.91134         17.2937         1.97474 
        3.92704          17.176          1.9559 
        3.94273          17.004         1.93734 
        3.95845         16.8721         1.91898 
        3.97418         16.7069         1.90085 
        3.98988         16.5832         1.88299 
        4.00554          16.431         1.86542 
        4.02125         16.2524         1.84801 
        4.03698         16.1845         1.83081 
        4.05268         15.9724         1.81387 
        4.06839         15.8141         1.79713 
         4.0841         15.7298         1.78061 
        4.09983         15.5794         1.76428 
        4.11555         15.4151         1.74816 
        4.13124          15.327         1.73229 
        4.14693         15.1487         1.71661 
        4.16266         15.0423         1.70109 
        4.17839         14.9063         1.68577 
        4.19408         14.7486         1.67068 
        4.20977          14.691         1.65577 
        4.22551         14.5537           1.641 
        4.24123         14.4146         1.62644 
        4.25691         14.2683         1.61209 
        4.27259         14.1498         1.59792 
        4.28831         14.0343         1.58388 
        4.30404         13.9523         1.57001 
        4.31974         13.7852         1.55634 
        4.33543         13.6757         1.54283 
        4.35116          13.606         1.52946 
        4.36688         13.4648         1.51625 
        4.38255         13.3608         1.50325 
        4.39825         13.2212         1.49038 
        4.41398         13.1843         1.47763 
         4.4297         13.0118         1.46505 
        4.44541         12.8788         1.45262 
        4.46111         12.8111         1.44035 
        4.47683         12.6962         1.42821 
        4.49251         12.5899         1.41623 
        4.50819         12.5106          1.4044 
         4.5239          12.422         1.39269 
        4.53962         12.2587          1.3811 
        4.55535         12.2187         1.36964 
        4.57106         12.0895         1.35832 
        4.58678         11.9796         1.34713 
         4.6025         11.9158         1.33607 
        4.61821          11.769         1.32514 
        4.63391         11.6906         1.31434 
         4.6496         11.6214         1.30367 
        4.66532         11.5254          1.2931 
        4.68103         11.4217         1.28266 
        4.69673         11.3157         1.27234 
        4.71241         11.2236         1.26215 
        4.72811         11.1359         1.25206 
        4.74384         11.0559         1.24206 
        4.75955         10.9494         1.23219 
        4.77525         10.8776         1.22244 
        4.79096         10.7999         1.21277 
        4.80669         10.7117         1.20322 
         4.8224         10.6205         1.19377 
        4.83809         10.5476         1.18444 
        4.85379         10.4472          1.1752 
         4.8695         10.3997         1.16606 
        4.88521           10.32         1.15702 
        4.90093         10.2105         1.14807 
        4.91663         10.1322         1.13923 
        4.93234         10.0708         1.13047 
        4.94807         9.99957          1.1218 
        4.96377           9.892         1.11324 
        4.97943         9.80748         1.10479 
        4.99514         9.74585          1.0964 
        5.01086          9.6916          1.0881 
        5.02654         9.62095          1.0799 
        5.04227          9.5365         1.07177 
          5.058         9.44712         1.06372 
        5.07371         9.39023         1.05576 
        5.08942         9.31268         1.04789 
        5.10513         9.25837          1.0401 
        5.12084         9.17218         1.03239 
        5.13656         9.11853         1.02475 
        5.15225         9.04056         1.01721 
        5.16796         8.97779         1.00973 
        5.18369         8.92745         1.00232 
         5.1994         8.83356        0.995001 
        5.21509         8.75668        0.987762 
        5.23079         8.69826        0.980587 
        5.24649         8.65105        0.973489 
        5.26217         8.57624        0.966468 
        5.27788         8.50691        0.959507 
        5.29359         8.45334        0.952615 
        5.30933          8.3971        0.945781 
        5.32504          8.3364        0.939026 
        5.34073         8.26123        0.932346 
        5.35646         8.21136        0.925718 
        5.37218         8.15298        0.919154 
        5.38789         8.09533        0.912665 
        5.40357         8.03906        0.906247 
        5.41929         7.97782        0.899877 
        5.43502         7.91578        0.893569 
         5.4507         7.86566        0.887337 
        5.46639         7.81327        0.881164 
        5.48212         7.74772        0.875037 
        5.49786         7.71314        0.868961 
        5.51353           7.648        0.862973 
        5.52921         7.60237        0.857037 
        5.54495         7.52694         0.85114 
        5.56066         7.47233        0.845306 
        5.57637         7.42526        0.839528 
        5.59207         7.40407        0.833809 
        5.60778         7.30458        0.828143 
        5.62346         7.26248        0.822537 
        5.63916         7.22421        0.816979 
        5.65487         7.17162         0.81147 
         5.6706         7.11388        0.806006 
        5.68633         7.04854        0.800591 
        5.70203         7.01684        0.795238 
        5.71773         6.97114        0.789935 
        5.73344         6.92177        0.784679 
        5.74916         6.87601        0.779465 
        5.76486         6.83978        0.774307 
        5.78054         6.77625        0.769205 
        5.79626         6.74248        0.764134 
          5.812         6.68477        0.759105 
         5.8277         6.62906        0.754136 
        5.84339         6.60073        0.749213 
        5.85911         6.54656        0.744324 
        5.87484         6.51071        0.739481 
        5.89053         6.45407         0.73469 
        5.90623         6.40691        0.729941 
        5.92195         6.37686        0.725226 
        5.93767         6.33821        0.720556 
        5.95336         6.28019        0.715935 
        5.96905         6.25397        0.711356 
        5.98476         6.20626        0.706812 
        6.00048         6.16019        0.702307 
        6.01617         6.12368        0.697847 
        6.03185         6.07579        0.693433 
        6.04756         6.04565        0.689046 
        6.06331         5.99716        0.684688 
        6.07903         5.96226        0.680378 
        6.09473         5.93367        0.676109 
        6.11044         5.88672        0.671874 
        6.12616         5.84983        0.667676 
        6.14186         5.79633        0.663518 
        6.15755         5.77329        0.659397 
        6.17326         5.73685        0.655307 
        6.18898         5.69505        0.651251 
        6.20467         5.64748        0.647238 
        6.22036         5.61035        0.643258 
         6.2361         5.58388        0.639302 
         6.2518         5.54844        0.635386 
        6.26748         5.50848        0.631512 
        6.28319         5.46962         0.62766 
        6.29893          5.4351        0.623837 
        6.31463         5.41207        0.620053 
        6.33033          5.3735        0.616302 
        6.34604         5.34327        0.612579 
        6.36177         5.30455        0.608884 
        6.37747         5.27557        0.605227 
