# k  (h/Mpc)    Pcb(k)  (Mpc/h)^3    Pcb_linear(k) (Mpc/h)^3   ShotnoiseSubtracted = true
      0.0200456         1236.77         1254.79 
      0.0350414         972.028         960.949 
      0.0492313         741.934         740.869 
      0.0637834         630.803         639.719 
      0.0800726         497.129         503.426 
       0.096163         378.333         372.442 
       0.111083         320.853         314.956 
       0.126058         280.175         282.936 
       0.142273         230.774          232.04 
       0.158546         188.585         186.769 
        0.17375          168.94          166.23 
       0.188953         152.501         151.109 
       0.204907         128.131         129.717 
       0.220756         112.949         111.123 
        0.23588         102.072          100.79 
         0.2514         93.2701         92.2076 
       0.267535         84.3302         81.7324 
       0.283568         74.6177         72.5661 
       0.299022          68.902         66.4503 
       0.314451         64.9796         61.2451 
       0.330372         58.1755         55.6214 
       0.346141         53.2434         50.6276 
       0.361624         49.2051         46.7804 
       0.377134         45.3444         43.4097 
       0.392932         43.6432         40.0656 
       0.408854         39.6359         36.9926 
       0.424564         37.9846         34.4266 
       0.440253         34.9062         32.1464 
       0.455999         32.0313         29.9886 
       0.471626         30.2169         28.0243 
        0.48727         29.3137         26.2767 
       0.502856         27.5319         24.7017 
       0.518488         25.5989         23.2327 
       0.534347         24.0733         21.8556 
       0.550082         23.1846         20.6135 
       0.565732         22.2817          19.481 
       0.581496         21.0525         18.4225 
       0.597222         19.8691         17.4421 
       0.612804         18.8817         16.5446 
       0.628434         18.3965          15.712 
       0.644267         17.5023         14.9279 
       0.660051         16.6437         14.1998 
       0.675724         15.8091         13.5252 
       0.691403         15.3804         12.8946 
       0.707174         14.7237         12.3013 
       0.722871         14.3532         11.7485 
        0.73838         13.4924         11.2361 
       0.754018         12.9241          10.751 
       0.769845         12.4068         10.2898 
        0.78569         12.1064         9.85576 
       0.801365         11.6138         9.45157 
       0.817031         11.2755         9.07078 
       0.832809         10.7763         8.70896 
       0.848511          10.509         8.36889 
       0.864097         10.1497         8.04969 
       0.879701         9.93413         7.74715 
       0.895507         9.56133         7.45688 
       0.911279         9.20895         7.18237 
        0.92691         8.98019         6.92422 
       0.942635         8.68806         6.67758 
       0.958396         8.39661         6.44264 
       0.974128         8.22193         6.21965 
       0.989692         7.86326         6.00961 
        1.00528         7.76273         5.80916 
        1.02113         7.53911         5.61486 
        1.03692         7.34609         5.43035 
        1.05264          7.1032         5.25514 
        1.06832          6.9418         5.08808 
        1.08405         6.78101         4.92798 
        1.09979         6.62295         4.77481 
        1.11537         6.45243         4.62979 
        1.13105          6.2812         4.49004 
        1.14679         6.13389         4.35563 
        1.16256         5.95638         4.22656 
        1.17828         5.89024         4.10325 
        1.19395         5.69971         3.98537 
         1.2097         5.54731         3.87161 
        1.22537         5.40054         3.76292 
          1.241         5.30075          3.6588 
        1.25666         5.25206         3.55844 
        1.27241         5.14286         3.46144 
        1.28819          4.9495         3.36796 
        1.30392         4.85096         3.27827 
        1.31957          4.7945         3.19229 
        1.33529         4.65021         3.10915 
        1.35108         4.56077         3.02868 
        1.36674         4.46278          2.9517 
         1.3824         4.41284          2.8775 
        1.39811           4.301         2.80566 
        1.41389         4.21032         2.73603 
        1.42964         4.14683         2.66893 
        1.44531         4.08035         2.60444 
        1.46101          3.9979         2.54199 
        1.47667         3.92458          2.4818 
        1.49229         3.81376         2.42376 
        1.50793         3.73483         2.36755 
        1.52367         3.67864         2.31278 
        1.53953         3.59643         2.25941 
        1.55526         3.60957         2.20817 
        1.57092          3.5144         2.15877 
        1.58662          3.4837         2.11078 
        1.60235         3.37927         2.06419 
        1.61809         3.33551           2.019 
        1.63369         3.27896         1.97559 
        1.64941         3.22786         1.93317 
        1.66519         3.18638         1.89186 
        1.68085         3.12035         1.85207 
        1.69652           3.074         1.81343 
        1.71228         3.02128          1.7757 
        1.72806         2.98412         1.73902 
        1.74368         2.94095         1.70377 
        1.75933         2.89942         1.66944 
        1.77505         2.84993         1.63591 
        1.79081         2.80516         1.60326 
         1.8065         2.76943         1.57165 
        1.82218         2.71783         1.54094 
        1.83797         2.67701         1.51085 
        1.85367         2.63993         1.48174 
        1.86928         2.60977         1.45359 
        1.88497         2.55811         1.42603 
        1.90073         2.54171         1.39909 
        1.91647         2.49124         1.37288 
        1.93218         2.46402         1.34742 
        1.94787         2.42886         1.32264 
        1.96363         2.40184          1.2984 
        1.97935         2.36228         1.27483 
        1.99499         2.33294         1.25198 
        2.01064         2.30697         1.22967 
         2.0264         2.26742         1.20777 
        2.04216          2.2464         1.18643 
        2.05781         2.20745         1.16574 
        2.07353         2.19787         1.14548 
        2.08928         2.16169         1.12566 
        2.10499         2.13075         1.10638 
        2.12065         2.10834         1.08761 
        2.13633         2.08183         1.06927 
        2.15211         2.04969         1.05123 
        2.16785         2.03178         1.03367 
        2.18349         2.00185         1.01663 
        2.19916         1.98684        0.999946 
        2.21489         1.96333        0.983584 
        2.23063         1.92652        0.967582 
         2.2463         1.90542        0.952014 
        2.26194         1.89151        0.936832 
        2.27765         1.86014        0.921909 
        2.29341         1.84561        0.907277 
        2.30914         1.81377        0.892998 
        2.32486         1.80614        0.879038 
        2.34061         1.78874        0.865358 
        2.35635         1.76752        0.851986 
        2.37203          1.7424        0.838947 
        2.38768         1.72607        0.826213 
        2.40339         1.71599          0.8137 
        2.41914         1.69317        0.801421 
        2.43483         1.67478        0.789443 
         2.4505         1.65338        0.777733 
        2.46622         1.63271        0.766225 
        2.48195         1.61941        0.754951 
        2.49759          1.6018        0.743969 
        2.51328         1.58698        0.733179 
        2.52906         1.57477        0.722538 
        2.54479         1.55163        0.712151 
        2.56049         1.53944        0.701992 
        2.57618         1.52233        0.692043 
        2.59189         1.51092        0.682274 
        2.60758         1.49464        0.672712 
        2.62325         1.47716        0.663347 
        2.63898         1.46534        0.654131 
        2.65468         1.44526        0.645112 
        2.67044         1.43946        0.636227 
        2.68618         1.42818        0.627532 
        2.70184         1.40623        0.619036 
        2.71755         1.40202        0.610679 
        2.73329         1.38608        0.602466 
        2.74897         1.37084        0.594433 
        2.76462         1.35651        0.586566 
        2.78034         1.35165        0.578811 
        2.79607         1.33664         0.57119 
        2.81179         1.32031        0.563717 
        2.82749         1.31053        0.556388 
        2.84321         1.30003        0.549184 
        2.85893         1.28324         0.54211 
        2.87462         1.27504        0.535175 
        2.89033         1.26728        0.528357 
        2.90605          1.2583        0.521654 
        2.92176         1.24481        0.515072 
        2.93747         1.23537        0.508608 
        2.95318         1.22157        0.502256 
        2.96891         1.21749         0.49601 
        2.98456         1.19832          0.4899 
        3.00023         1.19049        0.483886 
        3.01596         1.18239        0.477955 
        3.03164         1.17475        0.472142 
        3.04738         1.16297         0.46641 
         3.0631         1.15005        0.460777 
        3.07883         1.14458        0.455238 
        3.09456         1.13635        0.449791 
        3.11026         1.12555        0.444444 
        3.12596         1.11732        0.439185 
        3.14163         1.11471        0.434025 
        3.15734         1.10246        0.428937 
        3.17308         1.09072        0.423919 
        3.18879         1.08924        0.418997 
        3.20447         1.07708        0.414161 
         3.2202         1.06395        0.409387 
         3.2359         1.06149        0.404698 
        3.25157         1.04915        0.400095 
        3.26729         1.04496         0.39555 
        3.28304         1.03765        0.391068 
        3.29877         1.02784        0.386662 
        3.31446           1.025        0.382335 
        3.33014         1.00992        0.378079 
        3.34585         1.00627        0.373882 
        3.36158        0.998936        0.369743 
        3.37727        0.994593        0.365681 
        3.39294        0.987701        0.361684 
        3.40867        0.980695        0.357734 
        3.42439        0.973682        0.353845 
        3.44008        0.966095        0.350023 
        3.45578        0.959024        0.346255 
        3.47153        0.953535        0.342535 
        3.48724        0.946932        0.338877 
        3.50292        0.939212        0.335282 
        3.51859        0.937237        0.331741 
        3.53431         0.92976        0.328241 
        3.55007        0.922542        0.324784 
        3.56577        0.917426        0.321391 
        3.58146        0.912921        0.318048 
        3.59719         0.90429        0.314746 
        3.61292        0.896329        0.311493 
        3.62859        0.894171        0.308298 
        3.64429        0.886982        0.305143 
        3.66003        0.881271        0.302023 
        3.67578        0.875989        0.298948 
        3.69146        0.870533        0.295929 
        3.70712        0.867513        0.292957 
        3.72284        0.861095        0.290015 
        3.73853        0.855069         0.28712 
        3.75422        0.850626        0.284263 
        3.76993        0.843549        0.281443 
        3.78564        0.839161        0.278664 
        3.80137        0.835348        0.275918 
        3.81707        0.829214        0.273215 
        3.83279        0.824793        0.270546 
        3.84853        0.817812         0.26791 
        3.86424        0.813796        0.265314 
        3.87992        0.810451        0.262757 
        3.89561        0.804473        0.260234 
        3.91134        0.798845        0.257739 
        3.92704        0.793752        0.255281 
        3.94273        0.790353        0.252857 
        3.95845        0.788311        0.250461 
        3.97418        0.784414        0.248095 
        3.98988        0.777399        0.245764 
        4.00554        0.770074         0.24347 
        4.02125        0.767048        0.241199 
        4.03698        0.761975        0.238953 
        4.05268        0.751946        0.236742 
        4.06839        0.749623        0.234557 
         4.0841        0.742874        0.232402 
        4.09983        0.737452         0.23027 
        4.11555        0.734157        0.228166 
        4.13124        0.728412        0.226095 
        4.14693        0.723456        0.224048 
        4.16266        0.716186        0.222022 
        4.17839        0.711173        0.220023 
        4.19408        0.710076        0.218053 
        4.20977          0.7034        0.216107 
        4.22551        0.699507         0.21418 
        4.24123        0.693837        0.212279 
        4.25691        0.690609        0.210407 
        4.27259        0.685122        0.208557 
        4.28831        0.682388        0.206725 
        4.30404        0.677734        0.204914 
        4.31974         0.67349         0.20313 
        4.33543        0.669373        0.201367 
        4.35116        0.665258        0.199622 
        4.36688        0.661481        0.197898 
        4.38255        0.657861        0.196201 
        4.39825        0.653773        0.194521 
        4.41398        0.650356        0.192858 
         4.4297        0.647955        0.191216 
        4.44541        0.643172        0.189593 
        4.46111         0.64081        0.187991 
        4.47683        0.639367        0.186406 
        4.49251        0.633885        0.184844 
        4.50819        0.632444        0.183299 
         4.5239        0.628216        0.181771 
        4.53962        0.624732        0.180258 
        4.55535        0.623276        0.178762 
        4.57106        0.622257        0.177285 
        4.58678        0.617166        0.175825 
         4.6025        0.614943        0.174381 
        4.61821        0.612883        0.172954 
        4.63391        0.611286        0.171545 
         4.6496        0.608597        0.170152 
        4.66532         0.60615        0.168773 
        4.68103        0.603496         0.16741 
        4.69673        0.600798        0.166064 
        4.71241        0.598524        0.164733 
        4.72811         0.59807        0.163416 
        4.74384        0.595501        0.162111 
        4.75955         0.59337        0.160823 
        4.77525        0.590731         0.15955 
        4.79096        0.589941        0.158289 
        4.80669        0.588269        0.157041 
         4.8224        0.585751        0.155808 
        4.83809        0.584388         0.15459 
        4.85379        0.582821        0.153385 
         4.8695        0.582023        0.152191 
        4.88521        0.581436        0.151011 
        4.90093        0.579144        0.149844 
        4.91663        0.577723         0.14869 
        4.93234        0.575574        0.147547 
        4.94807        0.573948        0.146415 
        4.96377        0.573369        0.145298 
        4.97943        0.572417        0.144195 
        4.99514        0.570068          0.1431 
        5.01086        0.571291        0.142016 
        5.02654        0.568911        0.140947 
        5.04227        0.566694        0.139885 
          5.058        0.567615        0.138834 
        5.07371         0.56536        0.137796 
        5.08942        0.566849        0.136769 
        5.10513        0.564941        0.135752 
        5.12084        0.564536        0.134745 
        5.13656        0.562268        0.133748 
        5.15225        0.563014        0.132764 
        5.16796        0.562019        0.131788 
        5.18369        0.560027        0.130821 
         5.1994        0.561565        0.129865 
        5.21509         0.56034        0.128921 
        5.23079        0.559447        0.127984 
        5.24649         0.55991        0.127058 
        5.26217        0.558015        0.126141 
        5.27788        0.559761        0.125233 
        5.29359        0.559445        0.124333 
        5.30933        0.558375        0.123441 
        5.32504        0.559048         0.12256 
        5.34073        0.557877        0.121688 
        5.35646        0.557128        0.120823 
        5.37218        0.557857        0.119966 
        5.38789        0.556218        0.119119 
        5.40357        0.558064        0.118281 
        5.41929        0.557275         0.11745 
        5.43502        0.556674        0.116627 
         5.4507        0.557739        0.115813 
        5.46639        0.556823        0.115008 
        5.48212        0.556332        0.114208 
        5.49786        0.557277        0.113415 
        5.51353        0.557287        0.112633 
        5.52921        0.557338        0.111859 
        5.54495        0.557876        0.111089 
        5.56066        0.556821        0.110327 
        5.57637         0.55694        0.109573 
        5.59207        0.556564        0.108827 
        5.60778        0.557348        0.108087 
        5.62346        0.558651        0.107356 
        5.63916        0.558836         0.10663 
        5.65487         0.55783        0.105911 
         5.6706        0.558568        0.105198 
        5.68633         0.55852        0.104491 
        5.70203        0.560136        0.103793 
        5.71773         0.55874        0.103101 
        5.73344        0.560285        0.102415 
        5.74916        0.559934        0.101734 
        5.76486        0.560733        0.101061 
        5.78054        0.560323        0.100395 
        5.79626         0.56074       0.0997332 
          5.812         0.56235       0.0990768 
         5.8277        0.561925       0.0984283 
        5.84339        0.561659       0.0977856 
        5.85911        0.564531       0.0971476 
        5.87484        0.562748       0.0965154 
        5.89053        0.564134       0.0958902 
        5.90623        0.564785       0.0952703 
        5.92195        0.564321       0.0946549 
        5.93767        0.565456       0.0940454 
        5.95336        0.565462       0.0934422 
        5.96905        0.565232       0.0928447 
        5.98476        0.565366       0.0922516 
        6.00048        0.565963       0.0916636 
        6.01617        0.566876       0.0910816 
        6.03185        0.566583       0.0905053 
        6.04756        0.567652       0.0899328 
        6.06331        0.569126        0.089364 
        6.07903        0.569058       0.0888015 
        6.09473        0.568971       0.0882443 
        6.11044        0.568955       0.0876915 
        6.12616        0.569782       0.0871436 
        6.14186        0.569146       0.0866009 
        6.15755        0.570566        0.086063 
        6.17326        0.571178       0.0855293 
        6.18898        0.571001           0.085 
        6.20467        0.572073       0.0844761 
        6.22036        0.571922       0.0839567 
         6.2361         0.57171       0.0834403 
         6.2518        0.573706       0.0829292 
        6.26748        0.572653       0.0824236 
        6.28319        0.574972       0.0819208 
        6.29893        0.575404       0.0814219 
        6.31463        0.574355        0.080928 
        6.33033           0.575       0.0804384 
        6.34604        0.575259       0.0799525 
        6.36177        0.575654       0.0794703 
        6.37747        0.575663        0.078993 
