# k  (h/Mpc)    Pcb(k)  (Mpc/h)^3    Pcb_linear(k) (Mpc/h)^3   ShotnoiseSubtracted = true
      0.0200456          4797.1          4886.9 
      0.0350414         3672.53          3742.5 
      0.0492313         2872.59         2885.38 
      0.0637834         2515.33         2491.44 
      0.0800726         1983.37         1960.64 
       0.096163         1428.72         1450.51 
       0.111083          1190.5         1226.63 
       0.126058         1102.79         1101.92 
       0.142273         923.759         903.701 
       0.158546         760.681         727.391 
        0.17375         645.973         647.398 
       0.188953         612.252         588.507 
       0.204907         560.596         505.195 
       0.220756         473.781          432.78 
        0.23588         425.003         392.537 
         0.2514         378.932         359.111 
       0.267535         353.992         318.314 
       0.283568         321.795         282.616 
       0.299022         299.034         258.797 
       0.314451         274.116         238.525 
       0.330372         254.299         216.623 
       0.346141          230.43         197.174 
       0.361624         219.281          182.19 
       0.377134         207.633         169.063 
       0.392932         188.836         156.039 
       0.408854         182.014         144.071 
       0.424564         175.023         134.077 
       0.440253         163.854         125.197 
       0.455999         155.112         116.793 
       0.471626          143.59         109.143 
        0.48727          140.18         102.337 
       0.502856         133.755         96.2029 
       0.518488         129.629         90.4819 
       0.534347         124.366         85.1186 
       0.550082         115.377         80.2814 
       0.565732          110.76         75.8707 
       0.581496         106.843          71.748 
       0.597222         103.686         67.9299 
       0.612804         98.3978         64.4343 
       0.628434         96.4334         61.1919 
       0.644267         93.5933         58.1382 
       0.660051         90.7116         55.3025 
       0.675724         87.2909         52.6751 
       0.691403         84.8201         50.2192 
       0.707174         82.3663         47.9087 
       0.722871         79.9063         45.7555 
        0.73838         78.2071         43.7601 
       0.754018         74.6625         41.8708 
       0.769845          73.137         40.0745 
        0.78569          71.262         38.3842 
       0.801365          68.999           36.81 
       0.817031         67.2855          35.327 
       0.832809         66.4286         33.9178 
       0.848511         63.1575         32.5934 
       0.864097         61.7623         31.3503 
       0.879701         61.1862          30.172 
       0.895507         60.1299         29.0415 
       0.911279         58.7516         27.9724 
        0.92691         57.0951          26.967 
       0.942635         55.3688         26.0064 
       0.958396         55.0149         25.0915 
       0.974128         53.5635          24.223 
       0.989692         52.7084          23.405 
        1.00528         51.7153         22.6243 
        1.02113         50.0742         21.8676 
        1.03692         49.2848          21.149 
        1.05264         48.4589         20.4666 
        1.06832         47.5938          19.816 
        1.08405         46.8539         19.1925 
        1.09979         45.8775         18.5959 
        1.11537         44.5446         18.0311 
        1.13105         44.5312         17.4869 
        1.14679         43.8999         16.9634 
        1.16256          42.695         16.4607 
        1.17828         42.0829         15.9805 
        1.19395         41.2314         15.5214 
         1.2097         40.9241         15.0783 
        1.22537         40.2092          14.655 
          1.241         39.5134         14.2496 
        1.25666          38.501         13.8587 
        1.27241         38.3066         13.4809 
        1.28819         37.2608         13.1168 
        1.30392         36.9624         12.7675 
        1.31957          36.674         12.4327 
        1.33529         36.3265         12.1089 
        1.35108         35.4977         11.7955 
        1.36674         34.8548         11.4957 
         1.3824         34.2421         11.2067 
        1.39811         34.0159         10.9269 
        1.41389         33.5846         10.6557 
        1.42964         33.1179         10.3944 
        1.44531           32.85         10.1432 
        1.46101         31.9834         9.90001 
        1.47667         31.7451         9.66562 
        1.49229         31.5138         9.43957 
        1.50793         30.9687         9.22063 
        1.52367           30.73         9.00733 
        1.53953          30.312         8.79947 
        1.55526         29.8021         8.59994 
        1.57092         29.4942         8.40753 
        1.58662         29.0699         8.22064 
        1.60235         28.7431         8.03918 
        1.61809         28.4096         7.86319 
        1.63369         28.0643         7.69412 
        1.64941         27.5457          7.5289 
        1.66519         27.4357         7.36801 
        1.68085         27.0406         7.21306 
        1.69652         26.6991         7.06258 
        1.71228         26.4511         6.91562 
        1.72806         26.1613         6.77279 
        1.74368         25.8244         6.63549 
        1.75933         25.4919         6.50179 
        1.77505         25.2273         6.37121 
        1.79081         24.9007         6.24404 
         1.8065         24.7703         6.12095 
        1.82218         24.3627         6.00133 
        1.83797         24.0962         5.88415 
        1.85367         23.8421         5.77079 
        1.86928         23.6209         5.66115 
        1.88497         23.2865         5.55381 
        1.90073         23.2478         5.44889 
        1.91647         22.8843         5.34683 
        1.93218         22.7097         5.24763 
        1.94787         22.4958         5.15114 
        1.96363          22.316         5.05673 
        1.97935         22.0245         4.96492 
        1.99499         21.7594         4.87595 
        2.01064         21.5021         4.78906 
         2.0264          21.274         4.70378 
        2.04216         21.0951         4.62064 
        2.05781         20.7955         4.54008 
        2.07353         20.6024         4.46117 
        2.08928         20.4659           4.384 
        2.10499          20.191         4.30889 
        2.12065         19.9135         4.23579 
        2.13633         19.8548         4.16436 
        2.15211         19.5973         4.09413 
        2.16785          19.551         4.02574 
        2.18349         19.3417         3.95937 
        2.19916         19.0293         3.89438 
        2.21489         18.9301         3.83066 
        2.23063         18.6962         3.76834 
         2.2463         18.5201         3.70771 
        2.26194          18.373         3.64858 
        2.27765         18.2253         3.59046 
        2.29341         18.0202         3.53347 
        2.30914         17.7707         3.47786 
        2.32486         17.7292          3.4235 
        2.34061         17.5162         3.37022 
        2.35635         17.3378         3.31814 
        2.37203         17.2481         3.26736 
        2.38768         17.0449         3.21776 
        2.40339         16.7858         3.16903 
        2.41914         16.6609         3.12121 
        2.43483         16.5856         3.07456 
         2.4505         16.4265         3.02895 
        2.46622         16.2826         2.98413 
        2.48195         16.1107         2.94023 
        2.49759         16.0226         2.89745 
        2.51328         15.8225         2.85543 
        2.52906         15.6355         2.81399 
        2.54479         15.5882         2.77354 
        2.56049         15.4201         2.73397 
        2.57618         15.3556         2.69522 
        2.59189         15.1364         2.65718 
        2.60758          15.057         2.61994 
        2.62325         14.9452         2.58347 
        2.63898         14.6996         2.54757 
        2.65468         14.6463         2.51245 
        2.67044         14.5251         2.47784 
        2.68618          14.383         2.44398 
        2.70184         14.2553         2.41089 
        2.71755         14.1023         2.37835 
        2.73329         14.0142         2.34636 
        2.74897         13.8575         2.31507 
        2.76462          13.835         2.28444 
        2.78034          13.625         2.25423 
        2.79607         13.5185         2.22455 
        2.81179          13.394         2.19545 
        2.82749         13.3312         2.16691 
        2.84321         13.1683         2.13885 
        2.85893         13.0897          2.1113 
        2.87462         12.9729         2.08429 
        2.89033         12.8371         2.05774 
        2.90605         12.7282         2.03163 
        2.92176         12.6385         2.00599 
        2.93747         12.4782         1.98082 
        2.95318         12.4761         1.95608 
        2.96891         12.3353         1.93176 
        2.98456         12.2254         1.90796 
        3.00023         12.1229         1.88454 
        3.01596         12.0368         1.86144 
        3.03164         11.9327          1.8388 
        3.04738         11.8322         1.81648 
         3.0631          11.696         1.79454 
        3.07883         11.6215         1.77296 
        3.09456         11.5753         1.75175 
        3.11026         11.3905         1.73093 
        3.12596         11.3917         1.71045 
        3.14163         11.2612         1.69035 
        3.15734         11.1545         1.67054 
        3.17308         11.1039         1.65099 
        3.18879         10.9752         1.63182 
        3.20447         10.8913         1.61299 
         3.2202         10.8082          1.5944 
         3.2359         10.7302         1.57613 
        3.25157         10.6465         1.55821 
        3.26729         10.5524         1.54051 
        3.28304         10.4852         1.52305 
        3.29877         10.3899         1.50589 
        3.31446         10.3379         1.48904 
        3.33014         10.2052         1.47246 
        3.34585         10.1371         1.45612 
        3.36158         10.0446            1.44 
        3.37727         10.0186         1.42418 
        3.39294         9.91813         1.40861 
        3.40867         9.79093         1.39323 
        3.42439         9.75141         1.37808 
        3.44008         9.67211          1.3632 
        3.45578         9.61183         1.34852 
        3.47153         9.52987         1.33404 
        3.48724         9.45512         1.31979 
        3.50292         9.38862         1.30579 
        3.51859         9.28972           1.292 
        3.53431         9.24603         1.27837 
        3.55007         9.18453          1.2649 
        3.56577         9.13041         1.25169 
        3.58146         9.03025         1.23867 
        3.59719         8.95242         1.22581 
        3.61292         8.88382         1.21314 
        3.62859         8.80547          1.2007 
        3.64429         8.76188         1.18841 
        3.66003         8.67597         1.17626 
        3.67578         8.62264         1.16428 
        3.69146         8.53768         1.15252 
        3.70712         8.51264         1.14095 
        3.72284         8.40415         1.12949 
        3.73853         8.36664         1.11821 
        3.75422         8.28501         1.10709 
        3.76993         8.25172         1.09611 
        3.78564         8.18926         1.08528 
        3.80137         8.10132         1.07459 
        3.81707          8.0462         1.06406 
        3.83279          8.0224         1.05367 
        3.84853         7.92774          1.0434 
        3.86424         7.86837         1.03329 
        3.87992         7.81125         1.02333 
        3.89561          7.7429          1.0135 
        3.91134         7.70884         1.00379 
        3.92704          7.6441        0.994214 
        3.94273         7.58739        0.984775 
        3.95845         7.54076        0.975442 
        3.97418         7.50247        0.966231 
        3.98988         7.41936        0.957152 
        4.00554         7.36949        0.948217 
        4.02125         7.30634        0.939371 
        4.03698         7.25894        0.930626 
        4.05268         7.22863        0.922014 
        4.06839         7.16384        0.913506 
         4.0841         7.11383        0.905109 
        4.09983         7.06239        0.896808 
        4.11555         7.01493        0.888615 
        4.13124         6.93268        0.880549 
        4.14693         6.88754        0.872577 
        4.16266         6.82255        0.864687 
        4.17839         6.78528        0.856901 
        4.19408         6.74785        0.849229 
        4.20977         6.68365        0.841649 
        4.22551         6.64759        0.834145 
        4.24123         6.58031        0.826741 
        4.25691         6.55055        0.819449 
        4.27259         6.48259        0.812243 
        4.28831         6.44756        0.805111 
        4.30404         6.39764        0.798058 
        4.31974         6.36025        0.791107 
        4.33543         6.30641        0.784243 
        4.35116         6.25976        0.777446 
        4.36688         6.20297        0.770733 
        4.38255         6.15564        0.764125 
        4.39825         6.13655        0.757581 
        4.41398         6.08967        0.751102 
         4.4297         6.06182        0.744707 
        4.44541         5.98901        0.738388 
        4.46111          5.9513        0.732148 
        4.47683         5.89848        0.725977 
        4.49251         5.87139        0.719891 
        4.50819         5.84032        0.713877 
         4.5239         5.78846        0.707923 
        4.53962         5.76032        0.702032 
        4.55535         5.70767        0.696205 
        4.57106         5.65883        0.690454 
        4.58678          5.6261        0.684767 
         4.6025         5.58251        0.679144 
        4.61821         5.55077        0.673586 
        4.63391         5.50179        0.668098 
         4.6496         5.47421        0.662674 
        4.66532         5.43564        0.657303 
        4.68103         5.39664        0.651994 
        4.69673         5.34943         0.64675 
        4.71241          5.3109         0.64157 
        4.72811         5.29112        0.636438 
        4.74384         5.24763        0.631357 
        4.75955         5.21728         0.62634 
        4.77525         5.17668        0.621381 
        4.79096         5.13851         0.61647 
        4.80669         5.08973        0.611611 
         4.8224         5.07143         0.60681 
        4.83809         5.02862        0.602067 
        4.85379         4.99467        0.597372 
         4.8695         4.96735        0.592724 
        4.88521         4.93263        0.588128 
        4.90093          4.8935        0.583581 
        4.91663         4.85291        0.579086 
        4.93234         4.83453        0.574635 
        4.94807         4.79841        0.570228 
        4.96377         4.76681        0.565876 
        4.97943         4.72844         0.56158 
        4.99514           4.698        0.557317 
        5.01086         4.67009        0.553096 
        5.02654         4.64109        0.548931 
        5.04227         4.61115        0.544796 
          5.058         4.57729        0.540702 
        5.07371         4.55137         0.53666 
        5.08942         4.51638        0.532658 
        5.10513         4.48857        0.528698 
        5.12084         4.46067        0.524776 
        5.13656         4.43684        0.520896 
        5.15225         4.40871        0.517061 
        5.16796         4.36879         0.51326 
        5.18369         4.34228        0.509494 
         5.1994         4.31708        0.505773 
        5.21509         4.28776        0.502093 
        5.23079         4.25837        0.498446 
        5.24649         4.23754        0.494838 
        5.26217         4.20121        0.491269 
        5.27788         4.16884        0.487731 
        5.29359         4.14083        0.484227 
        5.30933         4.12122        0.480754 
        5.32504         4.09224         0.47732 
        5.34073         4.06922        0.473924 
        5.35646         4.04264        0.470555 
        5.37218         4.02277        0.467219 
        5.38789         3.99116         0.46392 
        5.40357         3.97549        0.460658 
        5.41929         3.93494         0.45742 
        5.43502         3.91252        0.454214 
         5.4507         3.89333        0.451046 
        5.46639         3.86842        0.447908 
        5.48212         3.84371        0.444793 
        5.49786         3.82258        0.441705 
        5.51353         3.79529        0.438661 
        5.52921          3.7661        0.435644 
        5.54495         3.74972        0.432646 
        5.56066         3.72059        0.429681 
        5.57637         3.70584        0.426744 
        5.59207         3.67676        0.423837 
        5.60778         3.65469        0.420956 
        5.62346         3.62974        0.418107 
        5.63916         3.60748        0.415282 
        5.65487         3.58543        0.412482 
         5.6706         3.56942        0.409704 
        5.68633           3.546        0.406952 
        5.70203         3.52214        0.404231 
        5.71773         3.50189        0.401535 
        5.73344          3.4827        0.398863 
        5.74916          3.4597        0.396213 
        5.76486         3.43941        0.393591 
        5.78054         3.41812        0.390997 
        5.79626         3.40113         0.38842 
          5.812         3.37764        0.385864 
         5.8277         3.36746        0.383338 
        5.84339         3.34218        0.380835 
        5.85911         3.32593         0.37835 
        5.87484         3.30298        0.375888 
        5.89053         3.26928        0.373453 
        5.90623         3.26552        0.371039 
        5.92195         3.24384        0.368642 
        5.93767         3.22405        0.366268 
        5.95336         3.20624        0.363919 
        5.96905         3.18658        0.361592 
        5.98476         3.16756        0.359283 
        6.00048         3.14268        0.356992 
        6.01617         3.12964        0.354726 
        6.03185         3.11085        0.352481 
        6.04756         3.08734        0.350252 
        6.06331         3.07247        0.348037 
        6.07903         3.05458        0.345846 
        6.09473         3.03889        0.343676 
        6.11044         3.01903        0.341523 
        6.12616         3.00547        0.339389 
        6.14186         2.97883        0.337275 
        6.15755         2.96639         0.33518 
        6.17326         2.95532        0.333102 
        6.18898         2.93736         0.33104 
        6.20467         2.91756           0.329 
        6.22036          2.9072        0.326977 
         6.2361         2.88735        0.324966 
         6.2518         2.87124        0.322976 
        6.26748         2.85509        0.321006 
        6.28319         2.83685        0.319048 
        6.29893         2.82308        0.317105 
        6.31463         2.80725        0.315181 
        6.33033         2.79056        0.313275 
        6.34604         2.77875        0.311383 
        6.36177         2.76253        0.309504 
        6.37747          2.7405        0.307646 
