# k  (h/Mpc)    Pcb(k)  (Mpc/h)^3    Pcb_linear(k) (Mpc/h)^3   ShotnoiseSubtracted = true
      0.0200456           10955         11140.1 
      0.0350414         8727.84         8531.38 
      0.0492313         6485.12          6577.5 
      0.0637834         5431.28         5679.47 
      0.0800726         4259.32         4469.46 
       0.096163         3381.84         3306.57 
       0.111083         2888.34         2796.21 
       0.126058         2433.57         2511.93 
       0.142273         2055.75         2060.07 
       0.158546         1711.64         1658.15 
        0.17375         1549.82          1475.8 
       0.188953            1439         1341.56 
       0.204907         1218.18         1151.64 
       0.220756         1099.58         986.561 
        0.23588         994.193         894.823 
         0.2514         896.973         818.627 
       0.267535         866.579         725.627 
       0.283568         761.839         644.248 
       0.299022         731.206         589.951 
       0.314451         741.832         543.739 
       0.330372         640.952         493.811 
       0.346141         596.229         449.476 
       0.361624         572.041          415.32 
       0.377134         537.135         385.395 
       0.392932         522.855         355.705 
       0.408854         497.818         328.423 
       0.424564          482.01         305.642 
       0.440253         438.078         285.398 
       0.455999         420.828         266.241 
       0.471626         423.389         248.802 
        0.48727         402.731         233.287 
       0.502856         371.025         219.303 
       0.518488         372.392         206.262 
       0.534347         346.463         194.036 
       0.550082         337.718         183.009 
       0.565732         335.672         172.954 
       0.581496         320.191         163.556 
       0.597222         311.736         154.852 
       0.612804         304.308         146.884 
       0.628434         292.263         139.493 
       0.644267         280.399         132.531 
       0.660051         275.732         126.067 
       0.675724         273.937         120.078 
       0.691403         265.305         114.479 
       0.707174         256.726         109.212 
       0.722871         253.073         104.304 
        0.73838         251.115         99.7551 
       0.754018         237.926         95.4483 
       0.769845           237.2         91.3536 
        0.78569         231.865         87.5003 
       0.801365         226.356         83.9118 
       0.817031         219.914         80.5311 
       0.832809         217.344         77.3188 
       0.848511         212.141         74.2997 
       0.864097         207.433         71.4658 
       0.879701         206.015         68.7798 
       0.895507         200.663         66.2028 
       0.911279         195.143         63.7657 
        0.92691         192.938         61.4738 
       0.942635         190.471         59.2841 
       0.958396         186.359         57.1983 
       0.974128         182.187         55.2185 
       0.989692         177.901         53.3538 
        1.00528         176.114         51.5742 
        1.02113         172.343         49.8492 
        1.03692         170.274         48.2111 
        1.05264          167.88         46.6556 
        1.06832         164.616         45.1724 
        1.08405         161.865          43.751 
        1.09979         161.061         42.3911 
        1.11537         157.134         41.1036 
        1.13105         155.559         39.8629 
        1.14679         152.633         38.6696 
        1.16256         150.506         37.5238 
        1.17828         148.243          36.429 
        1.19395         144.311         35.3825 
         1.2097         144.147         34.3724 
        1.22537         141.074         33.4075 
          1.241         139.988         32.4832 
        1.25666         135.978         31.5921 
        1.27241         133.659          30.731 
        1.28819         132.544          29.901 
        1.30392         129.766         29.1047 
        1.31957          128.35         28.3415 
        1.33529         126.912         27.6033 
        1.35108         125.444         26.8889 
        1.36674         123.181         26.2054 
         1.3824         122.524         25.5467 
        1.39811         119.135         24.9088 
        1.41389         118.384         24.2907 
        1.42964         116.099          23.695 
        1.44531         114.808         23.1225 
        1.46101         113.226          22.568 
        1.47667         112.196         22.0337 
        1.49229         111.008         21.5184 
        1.50793         108.931         21.0193 
        1.52367         108.018          20.533 
        1.53953         105.843         20.0592 
        1.55526         104.576         19.6043 
        1.57092         104.046         19.1657 
        1.58662          102.39         18.7397 
        1.60235         100.581          18.326 
        1.61809         99.7718         17.9249 
        1.63369         97.9454         17.5395 
        1.64941         97.9039         17.1628 
        1.66519          95.591         16.7961 
        1.68085         94.8232         16.4428 
        1.69652         92.6924         16.0998 
        1.71228         92.2551         15.7648 
        1.72806         91.0415         15.4392 
        1.74368         89.6312         15.1262 
        1.75933         88.9143         14.8214 
        1.77505         88.0237         14.5238 
        1.79081          86.538         14.2339 
         1.8065         86.0579         13.9533 
        1.82218         84.0894         13.6806 
        1.83797         83.6116         13.4135 
        1.85367         82.4282         13.1551 
        1.86928         81.5172         12.9051 
        1.88497         80.5154         12.6604 
        1.90073         79.5599         12.4213 
        1.91647         78.3435         12.1886 
        1.93218         77.6987         11.9625 
        1.94787          76.678         11.7425 
        1.96363         75.5299         11.5273 
        1.97935         74.9285          11.318 
        1.99499         74.0591         11.1152 
        2.01064         73.2206         10.9171 
         2.0264         71.9322         10.7227 
        2.04216         71.2792         10.5332 
        2.05781         70.3874         10.3495 
        2.07353          69.448         10.1697 
        2.08928         68.7555         9.99373 
        2.10499         67.9237         9.82251 
        2.12065         67.4772         9.65588 
        2.13633         66.6392         9.49303 
        2.15211         65.6078         9.33294 
        2.16785         64.6824         9.17705 
        2.18349         63.9722         9.02575 
        2.19916         63.1803          8.8776 
        2.21489         62.5951         8.73234 
        2.23063         61.6009         8.59027 
         2.2463         61.1705         8.45206 
        2.26194         60.4436         8.31727 
        2.27765         59.6552         8.18478 
        2.29341         58.7725         8.05488 
        2.30914         58.1247         7.92811 
        2.32486         57.5521         7.80417 
        2.34061         57.0585         7.68272 
        2.35635         56.2164           7.564 
        2.37203         55.8346         7.44824 
        2.38768         54.9757         7.33518 
        2.40339         54.4314         7.22409 
        2.41914         53.8457         7.11508 
        2.43483         53.0277         7.00874 
         2.4505         52.4868         6.90478 
        2.46622          52.013          6.8026 
        2.48195         51.3732         6.70252 
        2.49759         50.7766         6.60501 
        2.51328         50.2621         6.50922 
        2.52906         49.6565         6.41475 
        2.54479         49.2181         6.32254 
        2.56049         48.4471         6.23234 
        2.57618         47.9949         6.14401 
        2.59189         47.5007         6.05728 
        2.60758         46.9769         5.97239 
        2.62325         46.4164         5.88925 
        2.63898         46.0129         5.80743 
        2.65468         45.5443         5.72736 
        2.67044         45.0287         5.64847 
        2.68618         44.6659         5.57128 
        2.70184         44.0016         5.49585 
        2.71755         43.6523         5.42166 
        2.73329         42.9484         5.34874 
        2.74897         42.6102         5.27742 
        2.76462         42.1319         5.20758 
        2.78034         41.7579         5.13873 
        2.79607         41.2384         5.07107 
        2.81179         40.7657         5.00473 
        2.82749         40.3974         4.93966 
        2.84321         39.9648          4.8757 
        2.85893         39.5229          4.8129 
        2.87462         38.9602         4.75133 
        2.89033         38.7399          4.6908 
        2.90605         38.3472         4.63129 
        2.92176         38.0426         4.57285 
        2.93747         37.5573         4.51546 
        2.95318         37.1846         4.45907 
        2.96891         36.8852         4.40362 
        2.98456         36.4178         4.34938 
        3.00023         35.9674         4.29598 
        3.01596         35.6744         4.24333 
        3.03164         35.3242         4.19172 
        3.04738         34.9845         4.14083 
         3.0631          34.717         4.09082 
        3.07883         34.2343         4.04164 
        3.09456         33.7872         3.99329 
        3.11026         33.4293         3.94581 
        3.12596          33.159         3.89912 
        3.14163         32.8248         3.85331 
        3.15734         32.4995         3.80814 
        3.17308         32.1953         3.76359 
        3.18879          31.869         3.71989 
        3.20447         31.5437         3.67695 
         3.2202         31.1786         3.63457 
         3.2359         30.8974         3.59294 
        3.25157          30.614         3.55207 
        3.26729         30.3099         3.51173 
        3.28304         29.9098         3.47193 
        3.29877         29.6843         3.43282 
        3.31446         29.2867          3.3944 
        3.33014         29.0941         3.35662 
        3.34585         28.8103         3.31935 
        3.36158         28.5232         3.28261 
        3.37727         28.2715         3.24654 
        3.39294         27.9003         3.21106 
        3.40867         27.6906         3.17599 
        3.42439         27.4721         3.14147 
        3.44008         27.1616         3.10753 
        3.45578         26.9793         3.07408 
        3.47153         26.6163         3.04106 
        3.48724         26.3512         3.00858 
        3.50292         26.1045         2.97666 
        3.51859         25.8611         2.94522 
        3.53431         25.5571         2.91415 
        3.55007         25.3679         2.88346 
        3.56577         25.1709         2.85333 
        3.58146         24.9252         2.82366 
        3.59719          24.715         2.79434 
        3.61292         24.4416         2.76546 
        3.62859          24.155          2.7371 
        3.64429         23.9951         2.70909 
        3.66003         23.8243         2.68139 
        3.67578         23.5742         2.65409 
        3.69146         23.3239         2.62728 
        3.70712         23.0854         2.60089 
        3.72284         22.8874         2.57478 
        3.73853          22.673         2.54907 
        3.75422         22.3647         2.52371 
        3.76993         22.3036         2.49868 
        3.78564         22.0843           2.474 
        3.80137         21.8502         2.44962 
        3.81707         21.6569         2.42562 
        3.83279         21.4827         2.40193 
        3.84853         21.2933         2.37852 
        3.86424         21.0649         2.35548 
        3.87992         20.8457         2.33278 
        3.89561         20.6738         2.31038 
        3.91134         20.4846         2.28823 
        3.92704         20.3135          2.2664 
        3.94273         20.1223         2.24488 
        3.95845          19.947         2.22361 
        3.97418         19.7123         2.20261 
        3.98988         19.6056         2.18192 
        4.00554         19.4722         2.16155 
        4.02125         19.1563         2.14138 
        4.03698          19.062         2.12145 
        4.05268         18.8984         2.10182 
        4.06839         18.7175         2.08242 
         4.0841         18.5765         2.06328 
        4.09983         18.3237         2.04436 
        4.11555         18.2003         2.02568 
        4.13124         18.0617         2.00729 
        4.14693         17.9485         1.98912 
        4.16266         17.7875         1.97113 
        4.17839         17.6037         1.95338 
        4.19408         17.3943          1.9359 
        4.20977         17.2862         1.91862 
        4.22551           17.12         1.90151 
        4.24123         17.0089         1.88463 
        4.25691         16.8048         1.86801 
        4.27259           16.71         1.85158 
        4.28831         16.5906         1.83532 
        4.30404         16.4112         1.81925 
        4.31974         16.2974          1.8034 
        4.33543          16.132         1.78775 
        4.35116         15.9755         1.77226 
        4.36688         15.8472         1.75696 
        4.38255         15.7162         1.74189 
        4.39825         15.5632         1.72698 
        4.41398         15.4563         1.71221 
         4.4297         15.2971         1.69763 
        4.44541         15.1451         1.68322 
        4.46111         15.0698           1.669 
        4.47683         14.9275         1.65493 
        4.49251         14.8028         1.64106 
        4.50819         14.6865         1.62735 
         4.5239         14.5788         1.61378 
        4.53962         14.4476         1.60035 
        4.55535         14.3615         1.58706 
        4.57106         14.1982         1.57395 
        4.58678         14.1017         1.56099 
         4.6025         13.9837         1.54817 
        4.61821         13.8616          1.5355 
        4.63391         13.7262         1.52299 
         4.6496         13.6304         1.51063 
        4.66532         13.4935         1.49838 
        4.68103         13.4088         1.48628 
        4.69673         13.3005         1.47433 
        4.71241         13.2066         1.46252 
        4.72811         13.1036         1.45082 
        4.74384         12.9703         1.43924 
        4.75955         12.8518          1.4278 
        4.77525         12.7795          1.4165 
        4.79096         12.6517          1.4053 
        4.80669         12.5901         1.39422 
         4.8224         12.4543         1.38328 
        4.83809         12.3856         1.37247 
        4.85379         12.3032         1.36176 
         4.8695         12.1786         1.35117 
        4.88521         12.0896         1.34069 
        4.90093          11.996         1.33033 
        4.91663         11.9121         1.32008 
        4.93234         11.8276         1.30993 
        4.94807         11.7296         1.29989 
        4.96377         11.6401         1.28997 
        4.97943         11.5418         1.28017 
        4.99514         11.4247         1.27046 
        5.01086         11.3627         1.26083 
        5.02654         11.2359         1.25134 
        5.04227         11.1649         1.24191 
          5.058         11.0885         1.23258 
        5.07371         10.9886         1.22337 
        5.08942         10.9241         1.21424 
        5.10513         10.8395         1.20522 
        5.12084         10.7507         1.19628 
        5.13656         10.6768         1.18743 
        5.15225         10.5803         1.17869 
        5.16796         10.5002         1.17002 
        5.18369         10.4213         1.16144 
         5.1994         10.3553         1.15296 
        5.21509          10.265         1.14457 
        5.23079         10.1794         1.13625 
        5.24649         10.1165         1.12803 
        5.26217         10.0227         1.11989 
        5.27788         9.97647         1.11183 
        5.29359         9.88107         1.10384 
        5.30933         9.82139         1.09592 
        5.32504         9.75927         1.08809 
        5.34073         9.68359         1.08035 
        5.35646         9.59791         1.07267 
        5.37218         9.54333         1.06507 
        5.38789         9.46294         1.05755 
        5.40357         9.38844         1.05011 
        5.41929         9.33042         1.04273 
        5.43502         9.25898         1.03542 
         5.4507         9.16614          1.0282 
        5.46639         9.10804         1.02105 
        5.48212         9.05692         1.01395 
        5.49786         8.99014         1.00691 
        5.51353         8.92515        0.999969 
        5.52921         8.86563         0.99309 
        5.54495         8.79066        0.986257 
        5.56066         8.73255        0.979497 
        5.57637         8.66555        0.972801 
        5.59207         8.60882        0.966175 
        5.60778          8.5343        0.959609 
        5.62346         8.48264        0.953114 
        5.63916         8.42824        0.946673 
        5.65487         8.36218         0.94029 
         5.6706         8.30317        0.933959 
        5.68633         8.23566        0.927684 
        5.70203         8.18686        0.921481 
        5.71773         8.14124        0.915336 
        5.73344         8.07435        0.909245 
        5.74916         8.04195        0.903204 
        5.76486         7.95921        0.897227 
        5.78054         7.89406        0.891315 
        5.79626         7.86415        0.885439 
          5.812         7.80897        0.879612 
         5.8277         7.73841        0.873854 
        5.84339         7.69152        0.868149 
        5.85911         7.64166        0.862484 
        5.87484         7.58492        0.856872 
        5.89053         7.53354        0.851321 
        5.90623         7.46402        0.845818 
        5.92195         7.44578        0.840354 
        5.93767          7.3831        0.834942 
        5.95336         7.31569        0.829588 
        5.96905          7.2943        0.824283 
        5.98476         7.24134        0.819017 
        6.00048         7.19007        0.813797 
        6.01617         7.13455        0.808629 
        6.03185         7.09589        0.803514 
        6.04756         7.02982        0.798431 
        6.06331          6.9933        0.793381 
        6.07903         6.95005        0.788387 
        6.09473         6.90885         0.78344 
        6.11044         6.86326        0.778532 
        6.12616         6.80278        0.773668 
        6.14186         6.77005         0.76885 
        6.15755         6.71389        0.764075 
        6.17326          6.6732        0.759336 
        6.18898         6.63071        0.754637 
        6.20467         6.59332        0.749985 
        6.22036         6.53251        0.745374 
         6.2361         6.51436         0.74079 
         6.2518         6.45041        0.736253 
        6.26748         6.41344        0.731763 
        6.28319         6.36009          0.7273 
        6.29893         6.33593         0.72287 
        6.31463         6.29877        0.718485 
        6.33033         6.24888        0.714138 
        6.34604         6.21714        0.709825 
        6.36177         6.16696        0.705544 
        6.37747         6.13896        0.701306 
