# k  (h/Mpc)    Pcb(k)  (Mpc/h)^3    Pcb_linear(k) (Mpc/h)^3   ShotnoiseSubtracted = true
      0.0200456         16636.9         16916.5 
      0.0350414         10481.3         10814.8 
      0.0492313         7142.22         7171.43 
      0.0637834         5933.03         5725.73 
      0.0800726         4613.32         4477.39 
       0.096163         3075.47         3096.32 
       0.111083         2358.63         2340.17 
       0.126058         2138.65         2047.08 
       0.142273         1864.81         1749.73 
       0.158546         1552.25         1349.19 
        0.17375         1203.64         1088.39 
       0.188953         1157.44         971.946 
       0.204907         1085.03         870.632 
       0.220756         920.181         731.491 
        0.23588         804.767         616.958 
         0.2514         691.026         550.214 
       0.267535         674.428         500.801 
       0.283568         608.399         441.831 
       0.299022         567.708         386.448 
       0.314451         532.297         347.257 
       0.330372         487.475         318.143 
       0.346141         441.928         289.172 
       0.361624          425.98         260.355 
       0.377134         391.549         236.479 
       0.392932         371.137         217.608 
       0.408854         356.188         200.456 
       0.424564         333.448         183.891 
       0.440253         325.027         168.987 
       0.455999         304.292         156.459 
       0.471626         287.419         145.528 
        0.48727         274.344         135.213 
       0.502856         265.413           125.7 
       0.518488         262.013         117.228 
       0.534347         245.231         109.597 
       0.550082         231.602         102.629 
       0.565732          227.55         96.1827 
       0.581496          214.08         90.2523 
       0.597222         209.492          84.892 
       0.612804         203.149         80.0134 
       0.628434         194.348         75.4725 
       0.644267         188.172         71.2086 
       0.660051         184.956         67.3007 
       0.675724         180.407         63.7193 
       0.691403         174.975         60.3927 
       0.707174         168.623         57.2812 
       0.722871           165.4         54.3979 
        0.73838         162.244         51.7406 
       0.754018         158.343         49.2383 
       0.769845         152.768         46.8718 
        0.78569         151.292         44.6567 
       0.801365         145.206         42.6046 
       0.817031         140.834         40.6815 
       0.832809         139.815         38.8639 
       0.848511         134.966         37.1646 
       0.864097         133.458         35.5779 
       0.879701         130.464         34.0816 
       0.895507         126.818         32.6532 
       0.911279         123.195          31.309 
        0.92691         122.789          30.051 
       0.942635          118.95         28.8547 
       0.958396         118.521         27.7206 
       0.974128         115.345         26.6489 
       0.989692         112.969          25.644 
        1.00528         110.975         24.6891 
        1.02113         109.531         23.7675 
        1.03692         106.789         22.8959 
        1.05264         104.434         22.0716 
        1.06832         102.547         21.2889 
        1.08405         101.051         20.5417 
        1.09979          100.06         19.8297 
        1.11537         97.6159         19.1581 
        1.13105         96.2754         18.5133 
        1.14679         95.4951         17.8955 
        1.16256         94.1034         17.3045 
        1.17828         92.2703         16.7418 
        1.19395         90.4153         16.2059 
         1.2097         89.2213         15.6904 
        1.22537         88.2819         15.1997 
          1.241         86.7241         14.7313 
        1.25666         85.2443         14.2812 
        1.27241         83.5998         13.8477 
        1.28819         82.8894         13.4313 
        1.30392         80.7821         13.0331 
        1.31957         80.5001         12.6526 
        1.33529         78.4651         12.2858 
        1.35108         77.7484          11.932 
        1.36674         77.0506         11.5945 
         1.3824         75.5164         11.2702 
        1.39811         74.4556         10.9572 
        1.41389         73.5553         10.6547 
        1.42964         71.9069         10.3641 
        1.44531         70.7502         10.0856 
        1.46101         69.7542         9.81671 
        1.47667          69.646          9.5583 
        1.49229         68.4115         9.30979 
        1.50793         67.6992         9.06976 
        1.52367         66.5069         8.83656 
        1.53953         65.5378         8.60993 
        1.55526           65.02         8.39297 
        1.57092         64.5545         8.18432 
        1.58662         62.7422         7.98219 
        1.60235         62.6867         7.78644 
        1.61809         61.6178         7.59708 
        1.63369         60.9526         7.41564 
        1.64941         60.6228         7.23878 
        1.66519         59.0234         7.06699 
        1.68085         58.9646         6.90194 
        1.69652         57.5258         6.74206 
        1.71228          57.236         6.58629 
        1.72806         56.8028         6.43527 
        1.74368         55.9083         6.29045 
        1.75933         54.9329         6.14976 
        1.77505         54.7232         6.01266 
        1.79081         53.7513         5.87947 
         1.8065         52.9739         5.75083 
        1.82218         52.4754         5.62612 
        1.83797           51.78         5.50422 
        1.85367         51.5545         5.38657 
        1.86928         50.7719         5.27302 
        1.88497         50.1286          5.1621 
        1.90073         49.4424         5.05392 
        1.91647           49.13         4.94892 
        1.93218         48.5706         4.84708 
        1.94787         48.0046         4.74823 
        1.96363         47.3549         4.65172 
        1.97935         46.9828         4.55807 
        1.99499         46.3751         4.46749 
        2.01064         45.8429         4.37922 
         2.0264         45.0575         4.29276 
        2.04216          44.764         4.20864 
        2.05781         44.1769         4.12729 
        2.07353         43.3652         4.04778 
        2.08928         43.1966         3.97017 
        2.10499         42.5039         3.89478 
        2.12065           42.19         3.82155 
        2.13633         41.7558         3.75012 
        2.15211         41.4777         3.68004 
        2.16785          41.014         3.61192 
        2.18349         40.6805         3.54594 
        2.19916         39.9873         3.48145 
        2.21489         39.7595         3.41833 
        2.23063          39.378         3.35672 
         2.2463         38.7653         3.29689 
        2.26194         38.2382         3.23865 
        2.27765         38.2497          3.1815 
        2.29341         37.5565         3.12557 
        2.30914         37.0777         3.07109 
        2.32486         36.5177         3.01792 
        2.34061         36.3583         2.96591 
        2.35635          35.709         2.91515 
        2.37203         35.5033         2.86575 
        2.38768         35.0549         2.81758 
        2.40339         34.7479         2.77033 
        2.41914         34.3706         2.72405 
        2.43483         34.1504         2.67897 
         2.4505         33.9066         2.63498 
        2.46622         33.2844         2.59181 
        2.48195         33.0822          2.5496 
        2.49759          32.588         2.50854 
        2.51328         32.3065         2.46827 
        2.52906         31.9427         2.42862 
        2.54479         31.6751         2.38998 
        2.56049         31.1495         2.35225 
        2.57618         31.0509         2.31535 
        2.59189         30.5468         2.27918 
        2.60758         30.4397         2.24383 
        2.62325         29.9991         2.20927 
        2.63898         29.7201         2.17531 
        2.65468         29.2421         2.14212 
        2.67044         29.0273         2.10948 
        2.68618         28.7267         2.07758 
        2.70184         28.4986         2.04646 
        2.71755         28.1704          2.0159 
        2.73329         27.9973         1.98591 
        2.74897         27.6075         1.95661 
        2.76462          27.307         1.92797 
        2.78034         27.1571         1.89978 
        2.79607         26.8355         1.87211 
        2.81179         26.5637         1.84502 
        2.82749          26.217         1.81849 
        2.84321         26.0263         1.79245 
        2.85893         25.8092         1.76692 
        2.87462         25.5451         1.74192 
        2.89033          25.208         1.71738 
        2.90605         25.0435         1.69329 
        2.92176         24.7832         1.66966 
        2.93747         24.5306          1.6465 
        2.95318         24.2702         1.62376 
        2.96891         24.0392         1.60143 
        2.98456          23.831         1.57962 
        3.00023         23.5195         1.55818 
        3.01596         23.3301         1.53707 
        3.03164         23.1598         1.51641 
        3.04738         22.9188         1.49606 
         3.0631         22.6174         1.47608 
        3.07883         22.4505         1.45647 
        3.09456         22.2414         1.43721 
        3.11026         22.0525         1.41832 
        3.12596         21.8583         1.39977 
        3.14163         21.6433          1.3816 
        3.15734         21.4172          1.3637 
        3.17308         21.1931         1.34607 
        3.18879         21.0484         1.32879 
        3.20447         20.8499         1.31184 
         3.2202         20.6055         1.29513 
         3.2359         20.4419         1.27874 
        3.25157         20.2011         1.26267 
        3.26729         20.0835         1.24682 
        3.28304         19.8529         1.23121 
        3.29877         19.6712         1.21589 
        3.31446         19.4272         1.20085 
        3.33014         19.2865         1.18608 
        3.34585         19.0915         1.17154 
        3.36158         18.8853         1.15721 
        3.37727         18.7756         1.14317 
        3.39294           18.58         1.12936 
        3.40867         18.4241         1.11574 
        3.42439         18.2342         1.10234 
        3.44008         18.1567         1.08919 
        3.45578         17.8488         1.07624 
        3.47153         17.6952         1.06347 
        3.48724         17.5516         1.05092 
        3.50292         17.4744         1.03861 
        3.51859         17.2356         1.02649 
        3.53431         17.0989         1.01453 
        3.55007         16.9367         1.00273 
        3.56577         16.7544        0.991162 
        3.58146         16.6077        0.979778 
        3.59719         16.4599        0.968545 
        3.61292         16.3199         0.95749 
        3.62859          16.181        0.946647 
        3.64429         16.0203        0.935949 
        3.66003         15.8635        0.925382 
        3.67578         15.7999        0.914979 
        3.69146         15.6436        0.904775 
        3.70712          15.433        0.894742 
        3.72284         15.3381        0.884823 
        3.73853          15.182        0.875069 
        3.75422         15.1007        0.865458 
        3.76993         14.9231        0.855981 
        3.78564          14.781        0.846647 
        3.80137         14.6764        0.837437 
        3.81707         14.5396         0.82838 
        3.83279         14.3903        0.819449 
        3.84853           14.26        0.810634 
        3.86424         14.1444        0.801964 
        3.87992         14.0111        0.793433 
        3.89561         13.8879        0.785023 
        3.91134         13.7871        0.776717 
        3.92704         13.6374        0.768539 
        3.94273         13.5771        0.760486 
        3.95845          13.425        0.752532 
        3.97418         13.3302        0.744689 
        3.98988         13.2142        0.736966 
        4.00554         13.0765        0.729374 
        4.02125         13.0168        0.721865 
        4.03698         12.8684        0.714449 
        4.05268         12.7473        0.707153 
        4.06839         12.6359        0.699952 
         4.0841         12.5423        0.692852 
        4.09983         12.4408         0.68584 
        4.11555          12.303        0.678926 
        4.13124         12.2252        0.672126 
        4.14693         12.1414        0.665412 
        4.16266         12.0172        0.658773 
        4.17839         11.9271        0.652228 
        4.19408         11.8371        0.645785 
        4.20977         11.7145        0.639426 
        4.22551         11.5869        0.633136 
        4.24123         11.5029        0.626936 
        4.25691         11.4087        0.620835 
        4.27259         11.3363        0.614812 
        4.28831         11.2364        0.608856 
        4.30404         11.1566        0.602973 
        4.31974          11.049        0.597179 
        4.33543         10.9518        0.591464 
        4.35116          10.856        0.585809 
        4.36688         10.7807        0.580229 
        4.38255         10.6859        0.574741 
        4.39825         10.6175        0.569312 
        4.41398         10.5084        0.563942 
         4.4297         10.4252        0.558645 
        4.44541         10.3368        0.553417 
        4.46111           10.24        0.548259 
        4.47683         10.1577        0.543162 
        4.49251         10.0915         0.53814 
        4.50819         10.0238        0.533182 
         4.5239         9.92386        0.528278 
        4.53962         9.83015        0.523429 
        4.55535         9.77641        0.518638 
        4.57106         9.69106        0.513913 
        4.58678         9.61523        0.509245 
         4.6025         9.51591        0.504634 
        4.61821         9.46653        0.500079 
        4.63391         9.39194        0.495586 
         4.6496         9.31417         0.49115 
        4.66532          9.2277         0.48676 
        4.68103          9.1529        0.482426 
        4.69673         9.09962        0.478147 
        4.71241          9.0276        0.473924 
        4.72811         8.94856        0.469745 
        4.74384         8.87879         0.46561 
        4.75955         8.79807         0.46153 
        4.77525         8.72918        0.457501 
        4.79096         8.66546        0.453515 
        4.80669         8.58934        0.449574 
         4.8224         8.54301        0.445683 
        4.83809         8.47182        0.441842 
        4.85379         8.38795        0.438044 
         4.8695           8.325        0.434286 
        4.88521         8.27695        0.430574 
        4.90093         8.22926        0.426904 
        4.91663         8.15547        0.423279 
        4.93234         8.09414        0.419693 
        4.94807         8.03671        0.416145 
        4.96377         7.97302        0.412644 
        4.97943          7.9214         0.40919 
        4.99514         7.86239        0.405767 
        5.01086         7.79539        0.402379 
        5.02654         7.72836        0.399039 
        5.04227         7.67457        0.395726 
          5.058         7.63128        0.392449 
        5.07371         7.57048        0.389214 
        5.08942         7.49882        0.386016 
        5.10513         7.45216        0.382852 
        5.12084         7.39706        0.379722 
        5.13656         7.34463        0.376628 
        5.15225         7.28271        0.373572 
        5.16796         7.22792        0.370545 
        5.18369         7.17211        0.367549 
         5.1994         7.13349        0.364591 
        5.21509         7.09401        0.361667 
        5.23079         7.02142        0.358772 
        5.24649         6.97223        0.355911 
        5.26217         6.92066        0.353082 
        5.27788         6.87821        0.350279 
        5.29359          6.8226        0.347507 
        5.30933         6.76538        0.344759 
        5.32504         6.72323        0.342046 
        5.34073         6.66762        0.339365 
        5.35646          6.6089        0.336707 
        5.37218         6.56903        0.334076 
        5.38789         6.51163        0.331477 
        5.40357         6.48865        0.328909 
        5.41929         6.43713        0.326362 
        5.43502         6.39831        0.323841 
         5.4507         6.35043        0.321352 
        5.46639         6.29242        0.318889 
        5.48212         6.24452        0.316446 
        5.49786         6.22205        0.314025 
        5.51353         6.15606        0.311641 
        5.52921         6.12455        0.309279 
        5.54495         6.08246        0.306935 
        5.56066         6.03567        0.304617 
        5.57637         6.00731        0.302323 
        5.59207         5.94822        0.300054 
        5.60778         5.91956        0.297808 
        5.62346         5.87983        0.295587 
        5.63916         5.83028        0.293387 
        5.65487         5.79376        0.291208 
         5.6706         5.75223        0.289048 
        5.68633         5.72391        0.286908 
        5.70203          5.6849        0.284795 
        5.71773         5.63119        0.282703 
        5.73344         5.59591        0.280631 
        5.74916         5.56739        0.278577 
        5.76486         5.52305        0.276546 
        5.78054         5.50286        0.274539 
        5.79626         5.44951        0.272546 
          5.812         5.41506         0.27057 
         5.8277         5.37739        0.268619 
        5.84339         5.35047        0.266687 
        5.85911         5.31551        0.264771 
        5.87484         5.27567        0.262873 
        5.89053         5.22556        0.260998 
        5.90623          5.1995        0.259139 
        5.92195         5.16824        0.257296 
        5.93767         5.12966        0.255471 
        5.95336         5.09818        0.253666 
        5.96905         5.05291         0.25188 
        5.98476          5.0239        0.250108 
        6.00048         4.99822        0.248352 
        6.01617         4.96738        0.246615 
        6.03185         4.93542        0.244897 
        6.04756         4.90449        0.243191 
        6.06331         4.87571        0.241497 
        6.07903         4.84335        0.239823 
        6.09473          4.8051        0.238166 
        6.11044         4.77847        0.236523 
        6.12616         4.74185        0.234896 
        6.14186         4.71759        0.233285 
        6.15755         4.68066        0.231689 
        6.17326         4.65777        0.230107 
        6.18898         4.62931        0.228539 
        6.20467         4.60123        0.226988 
        6.22036         4.57068        0.225451 
         6.2361         4.53845        0.223924 
         6.2518         4.51164        0.222414 
        6.26748         4.48098        0.220921 
        6.28319         4.46023        0.219437 
        6.29893         4.42501        0.217965 
        6.31463         4.38952        0.216509 
        6.33033         4.37147        0.215067 
        6.34604           4.343        0.213637 
        6.36177         4.32159        0.212218 
        6.37747         4.29354        0.210815 
