# k  (h/Mpc)    Pcb(k)  (Mpc/h)^3    Pcb_linear(k) (Mpc/h)^3   ShotnoiseSubtracted = true
      0.0200456         1678.79         1698.58 
      0.0350414         1082.29         1085.91 
      0.0492313         724.209         720.081 
      0.0637834         583.263         574.919 
      0.0800726         453.749         449.573 
       0.096163         310.049         310.901 
       0.111083         234.251         234.976 
       0.126058         207.364         205.546 
       0.142273         178.008          175.69 
       0.158546         138.594         135.471 
        0.17375         109.954         109.284 
       0.188953         99.7408         97.5928 
       0.204907         91.6866         87.4199 
       0.220756          75.926         73.4488 
        0.23588         64.3318         61.9485 
         0.2514         56.6912         55.2468 
       0.267535         52.0218         50.2853 
       0.283568         46.1785         44.3641 
       0.299022         41.0417         38.8031 
       0.314451         36.1501          34.868 
       0.330372         33.4554         31.9447 
       0.346141         30.3169         29.0357 
       0.361624         27.6459         26.1422 
       0.377134         25.5344         23.7448 
       0.392932         22.5829         21.8499 
       0.408854         21.5671         20.1277 
       0.424564         19.8842         18.4645 
       0.440253         18.2176         16.9679 
       0.455999         16.9964           15.71 
       0.471626         15.9089         14.6124 
        0.48727         14.8465         13.5767 
       0.502856         13.7726         12.6215 
       0.518488         13.0528         11.7708 
       0.534347         12.4281         11.0046 
       0.550082         11.2786          10.305 
       0.565732         10.3789         9.65767 
       0.581496         10.1061          9.0622 
       0.597222         9.64515         8.52398 
       0.612804          8.9477         8.03412 
       0.628434         8.57988         7.57817 
       0.644267         8.18282         7.15003 
       0.660051         7.67525         6.75764 
       0.675724         7.25168         6.39803 
       0.691403         6.98371         6.06401 
       0.707174         6.60848         5.75159 
       0.722871         6.31199         5.46207 
        0.73838         6.01236         5.19526 
       0.754018         5.81029           4.944 
       0.769845         5.49581         4.70639 
        0.78569          5.2886         4.48396 
       0.801365         5.04008         4.27791 
       0.817031         4.84569         4.08481 
       0.832809         4.67992         3.90231 
       0.848511           4.395         3.73169 
       0.864097         4.23683         3.57236 
       0.879701         4.08593         3.42213 
       0.895507         3.87437          3.2787 
       0.911279         3.81317         3.14373 
        0.92691         3.66049         3.01742 
       0.942635         3.48507          2.8973 
       0.958396         3.35806         2.78341 
       0.974128         3.25409         2.67581 
       0.989692         3.17636         2.57491 
        1.00528         3.03083         2.47902 
        1.02113         2.91237         2.38648 
        1.03692         2.83856         2.29897 
        1.05264         2.74132         2.21621 
        1.06832         2.66398         2.13761 
        1.08405         2.53668         2.06259 
        1.09979         2.47917         1.99109 
        1.11537         2.40653         1.92366 
        1.13105          2.3319         1.85892 
        1.14679         2.26646         1.79689 
        1.16256         2.18156         1.73754 
        1.17828         2.13011         1.68104 
        1.19395         2.06381         1.62723 
         1.2097         1.98208         1.57547 
        1.22537          1.9258          1.5262 
          1.241         1.88199         1.47916 
        1.25666         1.86027         1.43397 
        1.27241         1.77005         1.39044 
        1.28819          1.7328         1.34863 
        1.30392         1.69381         1.30865 
        1.31957         1.65071         1.27045 
        1.33529         1.59689         1.23362 
        1.35108         1.55811         1.19809 
        1.36674         1.51384          1.1642 
         1.3824         1.46352         1.13164 
        1.39811         1.43041         1.10021 
        1.41389         1.40455         1.06984 
        1.42964         1.36903         1.04066 
        1.44531         1.33406          1.0127 
        1.46101          1.2991        0.985693 
        1.47667         1.25806        0.959746 
        1.49229         1.24472        0.934793 
        1.50793           1.207        0.910691 
        1.52367          1.1838        0.887276 
        1.53953         1.14418         0.86452 
        1.55526         1.12277        0.842736 
        1.57092         1.09638        0.821785 
        1.58662         1.07316        0.801489 
        1.60235         1.04626        0.781834 
        1.61809         1.02262        0.762821 
        1.63369           1.009        0.744602 
        1.64941        0.979165        0.726843 
        1.66519         0.96188        0.709594 
        1.68085         0.93365        0.693022 
        1.69652         0.91654        0.676968 
        1.71228        0.900004        0.661327 
        1.72806        0.875903        0.646163 
        1.74368            0.86        0.631622 
        1.75933        0.839815        0.617495 
        1.77505        0.826512         0.60373 
        1.79081        0.808368        0.590355 
         1.8065        0.788374        0.577439 
        1.82218         0.77754        0.564917 
        1.83797        0.765019        0.552677 
        1.85367        0.750213        0.540863 
        1.86928        0.736412        0.529462 
        1.88497        0.716785        0.518325 
        1.90073        0.699276        0.507463 
        1.91647        0.691445        0.496919 
        1.93218         0.68008        0.486694 
        1.94787        0.664039        0.476769 
        1.96363        0.649289        0.467078 
        1.97935        0.638381        0.457674 
        1.99499        0.625742        0.448579 
        2.01064         0.61411        0.439716 
         2.0264         0.60723        0.431034 
        2.04216        0.593741        0.422589 
        2.05781        0.580341         0.41442 
        2.07353        0.573312        0.406436 
        2.08928        0.561334        0.398643 
        2.10499        0.551306        0.391073 
        2.12065        0.545507         0.38372 
        2.13633        0.534768        0.376548 
        2.15211        0.524852        0.369511 
        2.16785        0.512272        0.362672 
        2.18349         0.50656        0.356047 
        2.19916        0.497027        0.349571 
        2.21489        0.487714        0.343234 
        2.23063        0.479189        0.337047 
         2.2463        0.473969         0.33104 
        2.26194        0.462332        0.325192 
        2.27765        0.454774        0.319454 
        2.29341        0.449872        0.313838 
        2.30914        0.443113        0.308367 
        2.32486        0.437537        0.303028 
        2.34061        0.428616        0.297806 
        2.35635        0.419615         0.29271 
        2.37203        0.414516        0.287749 
        2.38768        0.408406        0.282912 
        2.40339        0.402518        0.278168 
        2.41914        0.397248        0.273521 
        2.43483        0.389845        0.268994 
         2.4505        0.383002        0.264577 
        2.46622        0.376808        0.260243 
        2.48195        0.372738        0.256004 
        2.49759        0.367265        0.251882 
        2.51328         0.35987        0.247838 
        2.52906         0.35432        0.243857 
        2.54479        0.350599        0.239977 
        2.56049        0.344601        0.236188 
        2.57618        0.340538        0.232484 
        2.59189        0.334541        0.228852 
        2.60758        0.330426        0.225303 
        2.62325        0.326007        0.221832 
        2.63898        0.321418        0.218422 
        2.65468        0.316557         0.21509 
        2.67044        0.311876        0.211812 
        2.68618        0.306713        0.208609 
        2.70184          0.3025        0.205485 
        2.71755        0.298056        0.202416 
        2.73329        0.295449        0.199404 
        2.74897        0.291159        0.196463 
        2.76462        0.286791        0.193587 
        2.78034         0.28332        0.190756 
        2.79607        0.278841        0.187978 
        2.81179        0.275046        0.185258 
        2.82749        0.271734        0.182594 
        2.84321        0.268541        0.179979 
        2.85893        0.264755        0.177416 
        2.87462        0.261742        0.174906 
        2.89033        0.257484        0.172442 
        2.90605        0.254349        0.170022 
        2.92176        0.251097         0.16765 
        2.93747        0.247628        0.165324 
        2.95318        0.245304        0.163041 
        2.96891        0.242145          0.1608 
        2.98456        0.239504         0.15861 
        3.00023        0.236232        0.156457 
        3.01596        0.233163        0.154337 
        3.03164         0.23121        0.152262 
        3.04738        0.227066        0.150218 
         3.0631        0.224766        0.148213 
        3.07883         0.22181        0.146243 
        3.09456        0.219154        0.144309 
        3.11026        0.216565        0.142413 
        3.12596        0.213653        0.140551 
        3.14163        0.211555        0.138726 
        3.15734        0.209611        0.136928 
        3.17308        0.206953        0.135158 
        3.18879        0.204036        0.133424 
        3.20447        0.202651        0.131722 
         3.2202        0.200174        0.130044 
         3.2359        0.197739        0.128398 
        3.25157        0.195486        0.126784 
        3.26729        0.193774        0.125193 
        3.28304        0.191527        0.123626 
        3.29877        0.189228        0.122087 
        3.31446         0.18772        0.120577 
        3.33014        0.185942        0.119094 
        3.34585        0.184564        0.117634 
        3.36158        0.182023        0.116195 
        3.37727        0.180538        0.114785 
        3.39294        0.178479        0.113399 
        3.40867        0.176492        0.112031 
        3.42439        0.175075        0.110686 
        3.44008        0.173153        0.109365 
        3.45578        0.171962        0.108065 
        3.47153        0.170513        0.106782 
        3.48724        0.168928        0.105523 
        3.50292        0.167452        0.104286 
        3.51859        0.165354         0.10307 
        3.53431        0.163807        0.101869 
        3.55007         0.16302        0.100684 
        3.56577        0.160935       0.0995223 
        3.58146        0.159426       0.0983792 
        3.59719        0.158404       0.0972513 
        3.61292        0.156924       0.0961413 
        3.62859        0.155013       0.0950525 
        3.64429        0.153958       0.0939783 
        3.66003        0.152685       0.0929173 
        3.67578        0.151298       0.0918728 
        3.69146        0.150305       0.0908481 
        3.70712        0.149079       0.0898408 
        3.72284        0.147887       0.0888448 
        3.73853        0.146827       0.0878654 
        3.75422        0.145464       0.0869003 
        3.76993        0.144347       0.0859487 
        3.78564        0.142851       0.0850116 
        3.80137        0.141443       0.0840867 
        3.81707         0.14109       0.0831774 
        3.83279        0.139739       0.0822807 
        3.84853        0.138387       0.0813955 
        3.86424        0.137227        0.080525 
        3.87992        0.136281       0.0796683 
        3.89561        0.135171       0.0788239 
        3.91134        0.134278       0.0779899 
        3.92704        0.132677       0.0771688 
        3.94273        0.132032       0.0763601 
        3.95845        0.130616       0.0755615 
        3.97418        0.129461       0.0747739 
        3.98988        0.128393       0.0739986 
        4.00554        0.127121       0.0732362 
        4.02125        0.125944       0.0724822 
        4.03698        0.124789       0.0717376 
        4.05268         0.12353        0.071005 
        4.06839        0.122093       0.0702819 
         4.0841         0.12056       0.0695691 
        4.09983         0.11886        0.068865 
        4.11555         0.11752       0.0681708 
        4.13124        0.116293        0.067488 
        4.14693        0.115354       0.0668138 
        4.16266        0.113953       0.0661472 
        4.17839        0.112873         0.06549 
        4.19408        0.111925       0.0648431 
        4.20977        0.110562       0.0642045 
        4.22551        0.109886        0.063573 
        4.24123        0.108634       0.0629504 
        4.25691        0.107649       0.0623378 
        4.27259        0.106698       0.0617331 
        4.28831        0.105905       0.0611351 
        4.30404        0.104798       0.0605443 
        4.31974        0.104454       0.0599626 
        4.33543        0.103263       0.0593887 
        4.35116        0.102689       0.0588208 
        4.36688        0.101647       0.0582606 
        4.38255        0.100969       0.0577096 
        4.39825        0.100542       0.0571645 
        4.41398       0.0995776       0.0566252 
         4.4297       0.0990656       0.0560934 
        4.44541        0.098424       0.0555684 
        4.46111       0.0982336       0.0550505 
        4.47683        0.097579       0.0545388 
        4.49251       0.0969678       0.0540345 
        4.50819       0.0964616       0.0535366 
         4.5239       0.0963177       0.0530442 
        4.53962       0.0956675       0.0525573 
        4.55535       0.0954669       0.0520763 
        4.57106       0.0950432       0.0516018 
        4.58678       0.0947139       0.0511332 
         4.6025       0.0943677       0.0506701 
        4.61821       0.0942284       0.0502128 
        4.63391       0.0939732       0.0497617 
         4.6496       0.0936734       0.0493162 
        4.66532       0.0934266       0.0488754 
        4.68103       0.0936555       0.0484402 
        4.69673       0.0932312       0.0480106 
        4.71241        0.093277       0.0475866 
        4.72811       0.0931467       0.0471669 
        4.74384       0.0930666       0.0467517 
        4.75955       0.0933006       0.0463421 
        4.77525       0.0931959       0.0459375 
        4.79096       0.0933151       0.0455373 
        4.80669       0.0931228       0.0451415 
         4.8224       0.0933321       0.0447509 
        4.83809       0.0933904       0.0443652 
        4.85379       0.0938913       0.0439838 
         4.8695       0.0939242       0.0436065 
        4.88521       0.0939798       0.0432338 
        4.90093        0.094415       0.0428653 
        4.91663       0.0947322       0.0425013 
        4.93234       0.0951389       0.0421412 
        4.94807       0.0954093        0.041785 
        4.96377       0.0956599       0.0414334 
        4.97943       0.0965069       0.0410867 
        4.99514       0.0967684       0.0407429 
        5.01086       0.0972546       0.0404028 
        5.02654       0.0979482       0.0400673 
        5.04227       0.0983959       0.0397347 
          5.058       0.0989955       0.0394056 
        5.07371       0.0995449       0.0390809 
        5.08942         0.10062       0.0387597 
        5.10513        0.100892       0.0384421 
        5.12084        0.101619       0.0381278 
        5.13656        0.102759       0.0378171 
        5.15225        0.103415       0.0375103 
        5.16796         0.10443       0.0372063 
        5.18369        0.104796       0.0369055 
         5.1994         0.10602       0.0366084 
        5.21509        0.106873       0.0363149 
        5.23079        0.107936       0.0360242 
        5.24649        0.109094       0.0357369 
        5.26217        0.109674       0.0354528 
        5.27788        0.110893       0.0351714 
        5.29359        0.112358        0.034893 
        5.30933        0.113496       0.0346172 
        5.32504        0.114579       0.0343448 
        5.34073        0.115828       0.0340755 
        5.35646        0.117428       0.0338086 
        5.37218        0.118327       0.0335444 
        5.38789        0.120085       0.0332835 
        5.40357        0.121179       0.0330256 
        5.41929        0.122584       0.0327699 
        5.43502        0.123782       0.0325167 
         5.4507        0.125528       0.0322669 
        5.46639        0.127688       0.0320196 
        5.48212        0.129022       0.0317742 
        5.49786        0.130837       0.0315311 
        5.51353         0.13286       0.0312918 
        5.52921        0.134259       0.0310546 
        5.54495        0.136016       0.0308192 
        5.56066         0.13888       0.0305865 
        5.57637         0.13978       0.0303561 
        5.59207         0.14261       0.0301284 
        5.60778        0.144062       0.0299028 
        5.62346        0.147124       0.0296798 
        5.63916        0.148456       0.0294589 
        5.65487        0.150221       0.0292401 
         5.6706        0.152862       0.0290232 
        5.68633        0.156058       0.0288084 
        5.70203        0.157679       0.0285962 
        5.71773        0.160248       0.0283861 
        5.73344        0.161752        0.028178 
        5.74916        0.164941       0.0279718 
        5.76486        0.166384       0.0277679 
        5.78054        0.170797       0.0275664 
        5.79626         0.17155       0.0273662 
          5.812        0.174407       0.0271678 
         5.8277        0.177798        0.026972 
        5.84339        0.180824        0.026778 
        5.85911         0.18344       0.0265856 
        5.87484        0.185166        0.026395 
        5.89053        0.189521       0.0262067 
        5.90623        0.191301       0.0260201 
        5.92195        0.194988        0.025835 
        5.93767         0.19811       0.0256517 
        5.95336        0.200106       0.0254706 
        5.96905        0.204076       0.0252912 
        5.98476        0.207158       0.0251132 
        6.00048        0.211494        0.024937 
        6.01617         0.21281       0.0247626 
        6.03185        0.216068         0.02459 
        6.04756        0.219556       0.0244187 
        6.06331        0.223129       0.0242487 
        6.07903         0.22686       0.0240805 
        6.09473        0.229277       0.0239142 
        6.11044        0.233836       0.0237492 
        6.12616        0.236909       0.0235858 
        6.14186        0.240571       0.0234241 
        6.15755        0.244302       0.0232638 
        6.17326         0.24795        0.023105 
        6.18898        0.251514       0.0229475 
        6.20467        0.256195       0.0227918 
        6.22036        0.257467       0.0226375 
         6.2361        0.261942       0.0224842 
         6.2518        0.264864       0.0223325 
        6.26748        0.268079       0.0221826 
        6.28319        0.273701       0.0220336 
        6.29893        0.276745       0.0218858 
        6.31463        0.280931       0.0217396 
        6.33033        0.284257       0.0215948 
        6.34604        0.287778       0.0214512 
        6.36177        0.291642       0.0213088 
        6.37747         0.29588       0.0211679 
