# k  (h/Mpc)    Pcb(k)  (Mpc/h)^3    Pcb_linear(k) (Mpc/h)^3   ShotnoiseSubtracted = true
      0.0200456         9905.25         10023.9 
      0.0350414         6614.74         6408.35 
      0.0492313         4247.12         4249.46 
      0.0637834         3318.51          3392.8 
      0.0800726         2568.43          2653.1 
       0.096163         1922.98         1834.74 
       0.111083         1481.23         1386.68 
       0.126058         1225.11            1213 
       0.142273         1054.63         1036.81 
       0.158546         845.919         799.466 
        0.17375          710.33         644.927 
       0.188953         646.412         575.931 
       0.204907         550.494         515.896 
       0.220756         488.309         433.448 
        0.23588         424.115         365.581 
         0.2514          373.89         326.032 
       0.267535         358.498         296.752 
       0.283568         310.525         261.809 
       0.299022         291.128         228.991 
       0.314451         284.311         205.769 
       0.330372          243.51         188.517 
       0.346141         224.003          171.35 
       0.361624         210.506         154.275 
       0.377134         193.075         140.127 
       0.392932         185.816         128.944 
       0.408854         175.559         118.781 
       0.424564         167.011         108.966 
       0.440253         150.296         100.134 
       0.455999         140.249         92.7106 
       0.471626         137.468         86.2332 
        0.48727         130.741         80.1209 
       0.502856         118.839         74.4838 
       0.518488         117.494          69.464 
       0.534347         109.061          64.942 
       0.550082         106.043         60.8134 
       0.565732         103.918         56.9934 
       0.581496          95.069         53.4794 
       0.597222          92.762         50.3031 
       0.612804         88.8064         47.4123 
       0.628434         86.5967         44.7215 
       0.644267         81.5354         42.1949 
       0.660051         79.2633         39.8793 
       0.675724         77.2664         37.7571 
       0.691403         75.4126         35.7859 
       0.707174         72.2658         33.9422 
       0.722871         70.7799         32.2337 
        0.73838         68.8022         30.6591 
       0.754018          64.475         29.1763 
       0.769845              64         27.7741 
        0.78569         61.9599         26.4615 
       0.801365         59.5816         25.2455 
       0.817031         57.6619          24.106 
       0.832809         56.3765         23.0289 
       0.848511         55.0634          22.022 
       0.864097         53.8382         21.0818 
       0.879701         52.5999         20.1952 
       0.895507         50.5927         19.3488 
       0.911279         49.4362         18.5523 
        0.92691         48.4349         17.8069 
       0.942635         46.9796          17.098 
       0.958396         46.9102         16.4259 
       0.974128         45.6553         15.7909 
       0.989692         44.3217         15.1955 
        1.00528         43.4156         14.6296 
        1.02113          42.293         14.0835 
        1.03692          42.096         13.5671 
        1.05264         41.1807         13.0786 
        1.06832         39.9563         12.6148 
        1.08405         39.2493         12.1721 
        1.09979         38.7821         11.7501 
        1.11537         37.7842         11.3522 
        1.13105         36.8552         10.9702 
        1.14679          36.434         10.6041 
        1.16256          35.779         10.2538 
        1.17828         35.4018         9.92044 
        1.19395          34.381         9.60285 
         1.2097         34.2854         9.29743 
        1.22537          33.298         9.00665 
          1.241         33.1481         8.72907 
        1.25666         31.9886         8.46239 
        1.27241         31.8758         8.20551 
        1.28819         31.3537         7.95877 
        1.30392         30.6704          7.7228 
        1.31957         30.4962         7.49736 
        1.33529         29.9956         7.28001 
        1.35108         29.4861         7.07035 
        1.36674         28.8521         6.87036 
         1.3824          28.427         6.67823 
        1.39811          27.944         6.49273 
        1.41389         27.5611         6.31351 
        1.42964         27.3837          6.1413 
        1.44531         26.8405         5.97629 
        1.46101         26.5432         5.81693 
        1.47667         26.1888         5.66381 
        1.49229         25.6409         5.51655 
        1.50793         25.4963         5.37432 
        1.52367         25.0457         5.23614 
        1.53953         24.8864         5.10185 
        1.55526         24.3491         4.97329 
        1.57092         24.1531         4.84965 
        1.58662         23.8361         4.72988 
        1.60235         23.4509         4.61388 
        1.61809         23.1941         4.50168 
        1.63369         22.8271         4.39417 
        1.64941         22.5293         4.28937 
        1.66519         22.3192         4.18757 
        1.68085         21.9213         4.08977 
        1.69652         21.6721         3.99503 
        1.71228         21.5696         3.90273 
        1.72806         21.2142         3.81324 
        1.74368         20.8606         3.72743 
        1.75933         20.7959         3.64406 
        1.77505         20.4757         3.56283 
        1.79081         20.2507          3.4839 
         1.8065         20.0491         3.40768 
        1.82218         19.7119         3.33378 
        1.83797         19.5831         3.26155 
        1.85367         19.3495         3.19183 
        1.86928         19.2491         3.12455 
        1.88497         18.9274         3.05882 
        1.90073         18.7927         2.99472 
        1.91647         18.5541          2.9325 
        1.93218          18.398         2.87216 
        1.94787          18.175         2.81359 
        1.96363         17.9234          2.7564 
        1.97935         17.7535          2.7009 
        1.99499         17.6296         2.64723 
        2.01064         17.3242         2.59492 
         2.0264         17.2245         2.54369 
        2.04216          17.136         2.49385 
        2.05781         16.8994         2.44564 
        2.07353         16.7095         2.39853 
        2.08928         16.5398         2.35254 
        2.10499         16.3056         2.30786 
        2.12065         16.1464         2.26447 
        2.13633         16.0494         2.22215 
        2.15211         15.7959         2.18062 
        2.16785         15.7533         2.14026 
        2.18349          15.575         2.10116 
        2.19916         15.4084         2.06295 
        2.21489         15.2066         2.02555 
        2.23063         15.0868         1.98904 
         2.2463         14.9921         1.95359 
        2.26194         14.7236         1.91907 
        2.27765         14.6451         1.88521 
        2.29341         14.4152         1.85207 
        2.30914         14.3083         1.81979 
        2.32486         14.2426         1.78828 
        2.34061         14.0435         1.75746 
        2.35635         13.8594         1.72738 
        2.37203         13.7961         1.69811 
        2.38768         13.6233         1.66957 
        2.40339         13.5642         1.64157 
        2.41914         13.4502         1.61414 
        2.43483         13.3587         1.58743 
         2.4505         13.1065         1.56137 
        2.46622         13.0299         1.53579 
        2.48195         12.9212         1.51078 
        2.49759         12.7617         1.48645 
        2.51328         12.6217         1.46258 
        2.52906         12.5218         1.43909 
        2.54479         12.4591         1.41619 
        2.56049         12.3304         1.39383 
        2.57618         12.2299         1.37197 
        2.59189          12.076         1.35054 
        2.60758         11.9527         1.32959 
        2.62325         11.8334         1.30911 
        2.63898         11.8036         1.28899 
        2.65468         11.6739         1.26932 
        2.67044          11.559         1.24998 
        2.68618         11.3902         1.23108 
        2.70184         11.3474         1.21264 
        2.71755         11.2034         1.19453 
        2.73329         11.1342         1.17676 
        2.74897         11.0607          1.1594 
        2.76462         10.9546         1.14243 
        2.78034         10.8351         1.12572 
        2.79607         10.7616         1.10933 
        2.81179         10.7004         1.09327 
        2.82749         10.5628         1.07755 
        2.84321         10.4969         1.06212 
        2.85893         10.3988         1.04699 
        2.87462           10.29         1.03218 
        2.89033         10.2046         1.01764 
        2.90605         10.1203         1.00336 
        2.92176         10.0247        0.989365 
        2.93747         9.97751        0.975637 
        2.95318         9.89761        0.962164 
        2.96891         9.77853        0.948936 
        2.98456         9.70961        0.936013 
        3.00023         9.64887        0.923309 
        3.01596         9.56996        0.910798 
        3.03164         9.47973        0.898552 
        3.04738         9.40961        0.886494 
         3.0631         9.32257        0.874658 
        3.07883         9.23064        0.863035 
        3.09456         9.13888        0.851623 
        3.11026         9.07697        0.840432 
        3.12596         9.01601        0.829441 
        3.14163         8.91865         0.81867 
        3.15734          8.8517        0.808063 
        3.17308         8.80587        0.797617 
        3.18879         8.73187        0.787381 
        3.20447         8.67108        0.777338 
         3.2202         8.58677        0.767437 
         3.2359         8.50533        0.757724 
        3.25157         8.44544        0.748201 
        3.26729         8.34563         0.73881 
        3.28304         8.31353         0.72956 
        3.29877         8.25541        0.720479 
        3.31446         8.17981        0.711571 
        3.33014         8.12277        0.702819 
        3.34585         8.04035        0.694199 
        3.36158         7.99183         0.68571 
        3.37727         7.90579        0.677387 
        3.39294         7.85216        0.669209 
        3.40867         7.78931        0.661134 
        3.42439         7.74599        0.653196 
        3.44008         7.66132        0.645402 
        3.45578          7.5987        0.637728 
        3.47153         7.55708        0.630161 
        3.48724         7.47753        0.622728 
        3.50292         7.41519         0.61543 
        3.51859         7.36263        0.608252 
        3.53431         7.31114        0.601165 
        3.55007         7.25406        0.594172 
        3.56577         7.16639        0.587317 
        3.58146         7.12837        0.580572 
        3.59719         7.06987        0.573915 
        3.61292         7.04169        0.567364 
        3.62859          6.9652        0.560939 
        3.64429         6.91207          0.5546 
        3.66003          6.8405        0.548338 
        3.67578         6.81657        0.542175 
        3.69146         6.74236        0.536128 
        3.70712          6.7096        0.530183 
        3.72284          6.6533        0.524305 
        3.73853         6.60093        0.518526 
        3.75422         6.57751         0.51283 
        3.76993         6.50813        0.507215 
        3.78564         6.46832        0.501684 
        3.80137         6.40908        0.496226 
        3.81707         6.34471         0.49086 
        3.83279         6.28853        0.485568 
        3.84853         6.26096        0.480344 
        3.86424         6.20409        0.475207 
        3.87992         6.17314        0.470152 
        3.89561         6.11272        0.465168 
        3.91134         6.05692        0.460247 
        3.92704         6.03687        0.455401 
        3.94273         5.99099        0.450629 
        3.95845         5.93388        0.445916 
        3.97418         5.89418        0.441268 
        3.98988          5.8467        0.436692 
        4.00554         5.79866        0.432193 
        4.02125         5.77788        0.427744 
        4.03698          5.7197        0.423349 
        4.05268          5.6677        0.419026 
        4.06839         5.61841        0.414759 
         4.0841         5.58531        0.410552 
        4.09983         5.53488        0.406397 
        4.11555          5.5008        0.402301 
        4.13124         5.45194        0.398271 
        4.14693         5.40974        0.394292 
        4.16266         5.36915        0.390359 
        4.17839         5.33655         0.38648 
        4.19408         5.30418        0.382663 
        4.20977         5.25894        0.378894 
        4.22551         5.22902        0.375167 
        4.24123         5.18765        0.371493 
        4.25691         5.13796        0.367878 
        4.27259         5.11098        0.364309 
        4.28831         5.06717         0.36078 
        4.30404         5.02758        0.357294 
        4.31974         4.98557        0.353861 
        4.33543         4.93366        0.350474 
        4.35116         4.91331        0.347123 
        4.36688         4.87732        0.343817 
        4.38255         4.85482        0.340565 
        4.39825          4.8111        0.337348 
        4.41398         4.75561        0.334166 
         4.4297         4.74253        0.331028 
        4.44541         4.71833         0.32793 
        4.46111         4.67057        0.324873 
        4.47683         4.64417        0.321853 
        4.49251          4.6226        0.318877 
        4.50819         4.56506        0.315939 
         4.5239         4.52318        0.313033 
        4.53962         4.51859         0.31016 
        4.55535         4.47916        0.307321 
        4.57106         4.44777        0.304521 
        4.58678         4.41697        0.301755 
         4.6025         4.39245        0.299023 
        4.61821         4.35069        0.296324 
        4.63391         4.33243        0.293662 
         4.6496          4.2999        0.291033 
        4.66532         4.26333        0.288432 
        4.68103         4.23406        0.285863 
        4.69673         4.20575        0.283328 
        4.71241         4.18692        0.280826 
        4.72811         4.14944        0.278349 
        4.74384          4.1199        0.275899 
        4.75955         4.09483        0.273482 
        4.77525         4.07347        0.271094 
        4.79096         4.04433        0.268732 
        4.80669         4.01781        0.266397 
         4.8224         3.98021        0.264091 
        4.83809         3.95032        0.261815 
        4.85379         3.92972        0.259564 
         4.8695         3.90061        0.257338 
        4.88521         3.88142        0.255138 
        4.90093          3.8515        0.252964 
        4.91663         3.83069        0.250816 
        4.93234         3.79547        0.248691 
        4.94807         3.77135        0.246588 
        4.96377         3.74352        0.244514 
        4.97943         3.72052        0.242467 
        4.99514         3.70843        0.240439 
        5.01086         3.66956        0.238431 
        5.02654         3.65869        0.236452 
        5.04227         3.63011        0.234489 
          5.058         3.59681        0.232547 
        5.07371         3.58052        0.230631 
        5.08942         3.56687        0.228735 
        5.10513          3.5375        0.226861 
        5.12084         3.50996        0.225006 
        5.13656         3.48719        0.223172 
        5.15225         3.46701        0.221362 
        5.16796          3.4463        0.219568 
        5.18369         3.41965        0.217793 
         5.1994          3.4126         0.21604 
        5.21509         3.38397        0.214307 
        5.23079         3.35823        0.212592 
        5.24649         3.33473        0.210896 
        5.26217          3.3229         0.20922 
        5.27788         3.29528        0.207559 
        5.29359         3.27416        0.205916 
        5.30933         3.25729        0.204289 
        5.32504         3.23348        0.202681 
        5.34073         3.21816        0.201092 
        5.35646         3.20323        0.199517 
        5.37218         3.18188        0.197958 
        5.38789         3.15509        0.196418 
        5.40357          3.1366        0.194896 
        5.41929         3.11852        0.193387 
        5.43502         3.10083        0.191893 
         5.4507         3.07385        0.190418 
        5.46639         3.04731        0.188959 
        5.48212         3.04659        0.187511 
        5.49786         3.02217        0.186077 
        5.51353         3.00233        0.184664 
        5.52921         2.98841        0.183265 
        5.54495         2.96571        0.181875 
        5.56066         2.94734        0.180502 
        5.57637         2.93231        0.179143 
        5.59207         2.91651        0.177798 
        5.60778         2.90077        0.176467 
        5.62346         2.88335        0.175151 
        5.63916         2.87409        0.173848 
        5.65487          2.8447        0.172556 
         5.6706         2.82449        0.171276 
        5.68633         2.80834        0.170009 
        5.70203          2.7947        0.168756 
        5.71773         2.78384        0.167517 
        5.73344         2.76657        0.166289 
        5.74916         2.74722        0.165072 
        5.76486         2.73248        0.163869 
        5.78054         2.71832        0.162679 
        5.79626         2.70386        0.161498 
          5.812         2.68091        0.160327 
         5.8277         2.67176        0.159171 
        5.84339         2.64898        0.158027 
        5.85911         2.63531        0.156891 
        5.87484          2.6227        0.155767 
        5.89053         2.60695        0.154655 
        5.90623         2.59825        0.153554 
        5.92195         2.58149        0.152462 
        5.93767         2.56376         0.15138 
        5.95336         2.55188        0.150311 
        5.96905         2.53846        0.149252 
        5.98476         2.52013        0.148202 
        6.00048         2.50807        0.147162 
        6.01617         2.49466        0.146133 
        6.03185         2.47636        0.145115 
        6.04756         2.47113        0.144104 
        6.06331         2.45624          0.1431 
        6.07903         2.44187        0.142108 
        6.09473         2.42499        0.141126 
        6.11044         2.41223        0.140153 
        6.12616           2.402        0.139188 
        6.14186         2.38513        0.138234 
        6.15755         2.37583        0.137288 
        6.17326            2.36        0.136351 
        6.18898          2.3447        0.135422 
        6.20467          2.3397        0.134502 
        6.22036         2.32075        0.133592 
         6.2361         2.31078        0.132687 
         6.2518         2.30107        0.131792 
        6.26748         2.28373        0.130907 
        6.28319         2.27653        0.130028 
        6.29893          2.2654        0.129156 
        6.31463         2.25508        0.128293 
        6.33033         2.23956        0.127439 
        6.34604         2.22789        0.126591 
        6.36177         2.21706        0.125751 
        6.37747         2.20568        0.124919 
