# k  (h/Mpc)    Pcb(k)  (Mpc/h)^3    Pcb_linear(k) (Mpc/h)^3   ShotnoiseSubtracted = true
      0.0200456         9879.42         10023.9 
      0.0350414         6273.26         6408.35 
      0.0492313         4252.29         4249.46 
      0.0637834         3494.87          3392.8 
      0.0800726         2719.72          2653.1 
       0.096163         1822.17         1834.74 
       0.111083          1386.1         1386.68 
       0.126058         1252.66            1213 
       0.142273         1088.88         1036.81 
       0.158546         880.433         799.466 
        0.17375         684.361         644.927 
       0.188953          648.03         575.931 
       0.204907         607.127         515.896 
       0.220756         507.911         433.448 
        0.23588         437.768         365.581 
         0.2514         378.515         326.032 
       0.267535         361.789         296.752 
       0.283568         325.993         261.809 
       0.299022         299.307         228.991 
       0.314451         273.998         205.769 
       0.330372         251.979         188.517 
       0.346141         224.634          171.35 
       0.361624         214.762         154.275 
       0.377134         198.451         140.127 
       0.392932         182.628         128.944 
       0.408854         174.093         118.781 
       0.424564         165.543         108.966 
       0.440253          157.03         100.134 
       0.455999          146.39         92.7106 
       0.471626         135.686         86.2332 
        0.48727          129.97         80.1209 
       0.502856         124.703         74.4838 
       0.518488         121.346          69.464 
       0.534347         115.142          64.942 
       0.550082         106.267         60.8134 
       0.565732         102.191         56.9934 
       0.581496         97.7147         53.4794 
       0.597222         94.2288         50.3031 
       0.612804          89.975         47.4123 
       0.628434         87.1597         44.7215 
       0.644267         83.9307         42.1949 
       0.660051         82.1553         39.8793 
       0.675724         79.0879         37.7571 
       0.691403          76.368         35.7859 
       0.707174         73.2666         33.9422 
       0.722871         71.8989         32.2337 
        0.73838         70.1894         30.6591 
       0.754018         66.7963         29.1763 
       0.769845         65.1801         27.7741 
        0.78569         63.5228         26.4615 
       0.801365         61.3237         25.2455 
       0.817031         59.0316          24.106 
       0.832809         58.3167         23.0289 
       0.848511         55.8242          22.022 
       0.864097         54.6217         21.0818 
       0.879701          53.392         20.1952 
       0.895507         52.4446         19.3488 
       0.911279         51.1092         18.5523 
        0.92691         50.0742         17.8069 
       0.942635         48.2113          17.098 
       0.958396         47.9785         16.4259 
       0.974128         46.5453         15.7909 
       0.989692          45.618         15.1955 
        1.00528         44.4816         14.6296 
        1.02113         43.6212         14.0835 
        1.03692         42.1982         13.5671 
        1.05264         42.1512         13.0786 
        1.06832         40.5917         12.6148 
        1.08405         40.1054         12.1721 
        1.09979         39.7954         11.7501 
        1.11537         38.1707         11.3522 
        1.13105         38.4455         10.9702 
        1.14679         37.3988         10.6041 
        1.16256         36.6833         10.2538 
        1.17828         35.9108         9.92044 
        1.19395         35.2603         9.60285 
         1.2097         34.5887         9.29743 
        1.22537         34.6029         9.00665 
          1.241         33.5437         8.72907 
        1.25666         32.8225         8.46239 
        1.27241          32.366         8.20551 
        1.28819         31.7011         7.95877 
        1.30392         31.2485          7.7228 
        1.31957          30.908         7.49736 
        1.33529         30.3144         7.28001 
        1.35108         30.0157         7.07035 
        1.36674         29.6115         6.87036 
         1.3824          28.803         6.67823 
        1.39811         28.6034         6.49273 
        1.41389         28.2501         6.31351 
        1.42964         27.7193          6.1413 
        1.44531         27.2635         5.97629 
        1.46101         26.7402         5.81693 
        1.47667         26.6133         5.66381 
        1.49229         26.2586         5.51655 
        1.50793         25.9038         5.37432 
        1.52367          25.401         5.23614 
        1.53953         25.2987         5.10185 
        1.55526         24.8815         4.97329 
        1.57092         24.5238         4.84965 
        1.58662         24.1842         4.72988 
        1.60235         23.8678         4.61388 
        1.61809         23.5053         4.50168 
        1.63369         23.2146         4.39417 
        1.64941         22.9652         4.28937 
        1.66519         22.5385         4.18757 
        1.68085         22.3985         4.08977 
        1.69652         22.0708         3.99503 
        1.71228         21.9368         3.90273 
        1.72806         21.5532         3.81324 
        1.74368         21.1572         3.72743 
        1.75933         20.9357         3.64406 
        1.77505         20.9024         3.56283 
        1.79081          20.522          3.4839 
         1.8065         20.3219         3.40768 
        1.82218         20.0947         3.33378 
        1.83797         19.7751         3.26155 
        1.85367         19.5719         3.19183 
        1.86928         19.3705         3.12455 
        1.88497         19.1899         3.05882 
        1.90073         18.9426         2.99472 
        1.91647          18.737          2.9325 
        1.93218         18.5983         2.87216 
        1.94787         18.2873         2.81359 
        1.96363          18.216          2.7564 
        1.97935         17.9249          2.7009 
        1.99499          17.755         2.64723 
        2.01064         17.6505         2.59492 
         2.0264         17.3258         2.54369 
        2.04216         17.2145         2.49385 
        2.05781         16.8938         2.44564 
        2.07353         16.8033         2.39853 
        2.08928          16.741         2.35254 
        2.10499         16.5431         2.30786 
        2.12065         16.2793         2.26447 
        2.13633         16.1185         2.22215 
        2.15211         15.9718         2.18062 
        2.16785         15.7656         2.14026 
        2.18349         15.6117         2.10116 
        2.19916          15.506         2.06295 
        2.21489         15.3099         2.02555 
        2.23063         15.1581         1.98904 
         2.2463         15.0452         1.95359 
        2.26194         14.9315         1.91907 
        2.27765         14.7304         1.88521 
        2.29341         14.5544         1.85207 
        2.30914         14.4733         1.81979 
        2.32486         14.2968         1.78828 
        2.34061         14.1768         1.75746 
        2.35635         14.0062         1.72738 
        2.37203         13.9087         1.69811 
        2.38768         13.7429         1.66957 
        2.40339         13.6221         1.64157 
        2.41914         13.5021         1.61414 
        2.43483         13.3963         1.58743 
         2.4505         13.2393         1.56137 
        2.46622         13.0884         1.53579 
        2.48195         12.9964         1.51078 
        2.49759         12.8191         1.48645 
        2.51328         12.6863         1.46258 
        2.52906         12.6279         1.43909 
        2.54479         12.5228         1.41619 
        2.56049         12.3701         1.39383 
        2.57618         12.2578         1.37197 
        2.59189         12.1572         1.35054 
        2.60758         12.0847         1.32959 
        2.62325          11.971         1.30911 
        2.63898         11.8423         1.28899 
        2.65468         11.7537         1.26932 
        2.67044         11.6307         1.24998 
        2.68618         11.5044         1.23108 
        2.70184         11.4475         1.21264 
        2.71755          11.326         1.19453 
        2.73329         11.2188         1.17676 
        2.74897         11.0816          1.1594 
        2.76462         11.0349         1.14243 
        2.78034          10.933         1.12572 
        2.79607         10.8371         1.10933 
        2.81179         10.6952         1.09327 
        2.82749         10.6237         1.07755 
        2.84321         10.5563         1.06212 
        2.85893         10.4351         1.04699 
        2.87462         10.3391         1.03218 
        2.89033         10.2462         1.01764 
        2.90605          10.189         1.00336 
        2.92176         10.0244        0.989365 
        2.93747         9.99839        0.975637 
        2.95318         9.90166        0.962164 
        2.96891          9.8375        0.948936 
        2.98456         9.74344        0.936013 
        3.00023         9.60408        0.923309 
        3.01596         9.61002        0.910798 
        3.03164          9.5021        0.898552 
        3.04738         9.38257        0.886494 
         3.0631          9.3191        0.874658 
        3.07883         9.23579        0.863035 
        3.09456         9.14448        0.851623 
        3.11026         9.10016        0.840432 
        3.12596         8.98887        0.829441 
        3.14163         8.92168         0.81867 
        3.15734         8.83454        0.808063 
        3.17308         8.78257        0.797617 
        3.18879         8.70593        0.787381 
        3.20447         8.64485        0.777338 
         3.2202         8.55893        0.767437 
         3.2359         8.49841        0.757724 
        3.25157         8.42643        0.748201 
        3.26729         8.35269         0.73881 
        3.28304         8.29592         0.72956 
        3.29877         8.22794        0.720479 
        3.31446         8.15891        0.711571 
        3.33014         8.07963        0.702819 
        3.34585         8.04466        0.694199 
        3.36158          7.9797         0.68571 
        3.37727         7.87387        0.677387 
        3.39294         7.81915        0.669209 
        3.40867         7.75581        0.661134 
        3.42439         7.72108        0.653196 
        3.44008         7.64577        0.645402 
        3.45578         7.60098        0.637728 
        3.47153         7.54779        0.630161 
        3.48724         7.46142        0.622728 
        3.50292         7.41855         0.61543 
        3.51859         7.36234        0.608252 
        3.53431         7.30336        0.601165 
        3.55007         7.25269        0.594172 
        3.56577         7.18218        0.587317 
        3.58146         7.15345        0.580572 
        3.59719         7.07842        0.573915 
        3.61292         7.00598        0.567364 
        3.62859         6.95674        0.560939 
        3.64429         6.92781          0.5546 
        3.66003          6.8591        0.548338 
        3.67578         6.80493        0.542175 
        3.69146         6.73983        0.536128 
        3.70712         6.70723        0.530183 
        3.72284          6.6554        0.524305 
        3.73853         6.58437        0.518526 
        3.75422         6.56563         0.51283 
        3.76993         6.49086        0.507215 
        3.78564         6.45463        0.501684 
        3.80137         6.39365        0.496226 
        3.81707         6.36468         0.49086 
        3.83279         6.29544        0.485568 
        3.84853         6.24984        0.480344 
        3.86424         6.19228        0.475207 
        3.87992         6.16372        0.470152 
        3.89561         6.10687        0.465168 
        3.91134         6.05097        0.460247 
        3.92704         5.99967        0.455401 
        3.94273         5.97161        0.450629 
        3.95845         5.94028        0.445916 
        3.97418         5.87661        0.441268 
        3.98988         5.84271        0.436692 
        4.00554          5.8018        0.432193 
        4.02125          5.7531        0.427744 
        4.03698         5.69723        0.423349 
        4.05268         5.67575        0.419026 
        4.06839         5.61823        0.414759 
         4.0841         5.58618        0.410552 
        4.09983         5.52401        0.406397 
        4.11555         5.50563        0.402301 
        4.13124         5.45477        0.398271 
        4.14693         5.42747        0.394292 
        4.16266         5.38054        0.390359 
        4.17839         5.33178         0.38648 
        4.19408         5.29883        0.382663 
        4.20977          5.2515        0.378894 
        4.22551         5.22696        0.375167 
        4.24123         5.17082        0.371493 
        4.25691         5.13756        0.367878 
        4.27259         5.09726        0.364309 
        4.28831         5.04815         0.36078 
        4.30404         5.04024        0.357294 
        4.31974         4.99418        0.353861 
        4.33543         4.94905        0.350474 
        4.35116         4.90682        0.347123 
        4.36688         4.87013        0.343817 
        4.38255         4.84365        0.340565 
        4.39825          4.7942        0.337348 
        4.41398         4.77527        0.334166 
         4.4297         4.74559        0.331028 
        4.44541         4.69999         0.32793 
        4.46111         4.67314        0.324873 
        4.47683         4.62762        0.321853 
        4.49251         4.59947        0.318877 
        4.50819         4.56027        0.315939 
         4.5239         4.53567        0.313033 
        4.53962          4.5072         0.31016 
        4.55535         4.47627        0.307321 
        4.57106         4.44308        0.304521 
        4.58678         4.41479        0.301755 
         4.6025         4.37714        0.299023 
        4.61821         4.34489        0.296324 
        4.63391         4.32075        0.293662 
         4.6496         4.30068        0.291033 
        4.66532          4.2557        0.288432 
        4.68103         4.22851        0.285863 
        4.69673         4.19845        0.283328 
        4.71241         4.17538        0.280826 
        4.72811          4.1405        0.278349 
        4.74384          4.1198        0.275899 
        4.75955         4.07688        0.273482 
        4.77525           4.053        0.271094 
        4.79096         4.02753        0.268732 
        4.80669         3.99671        0.266397 
         4.8224         3.97782        0.264091 
        4.83809         3.94275        0.261815 
        4.85379         3.92773        0.259564 
         4.8695         3.90159        0.257338 
        4.88521         3.87049        0.255138 
        4.90093         3.84595        0.252964 
        4.91663         3.82233        0.250816 
        4.93234         3.79926        0.248691 
        4.94807         3.77398        0.246588 
        4.96377         3.74059        0.244514 
        4.97943         3.71427        0.242467 
        4.99514         3.68941        0.240439 
        5.01086          3.6681        0.238431 
        5.02654         3.64239        0.236452 
        5.04227         3.61177        0.234489 
          5.058         3.59024        0.232547 
        5.07371         3.57077        0.230631 
        5.08942         3.55195        0.228735 
        5.10513         3.53037        0.226861 
        5.12084          3.5039        0.225006 
        5.13656         3.48215        0.223172 
        5.15225         3.45533        0.221362 
        5.16796          3.4372        0.219568 
        5.18369         3.41648        0.217793 
         5.1994         3.39135         0.21604 
        5.21509         3.37256        0.214307 
        5.23079         3.35291        0.212592 
        5.24649         3.32937        0.210896 
        5.26217         3.31065         0.20922 
        5.27788         3.28821        0.207559 
        5.29359         3.26655        0.205916 
        5.30933         3.24717        0.204289 
        5.32504         3.23094        0.202681 
        5.34073         3.20745        0.201092 
        5.35646         3.17936        0.199517 
        5.37218         3.16576        0.197958 
        5.38789         3.14566        0.196418 
        5.40357         3.13002        0.194896 
        5.41929         3.10673        0.193387 
        5.43502         3.09019        0.191893 
         5.4507         3.07077        0.190418 
        5.46639         3.05862        0.188959 
        5.48212          3.0288        0.187511 
        5.49786         3.01334        0.186077 
        5.51353         2.98928        0.184664 
        5.52921         2.97999        0.183265 
        5.54495          2.9622        0.181875 
        5.56066         2.94334        0.180502 
        5.57637         2.92681        0.179143 
        5.59207          2.9038        0.177798 
        5.60778         2.89264        0.176467 
        5.62346         2.87268        0.175151 
        5.63916         2.84902        0.173848 
        5.65487         2.84264        0.172556 
         5.6706         2.82168        0.171276 
        5.68633           2.803        0.170009 
        5.70203         2.78535        0.168756 
        5.71773         2.76984        0.167517 
        5.73344          2.7575        0.166289 
        5.74916         2.73969        0.165072 
        5.76486         2.72361        0.163869 
        5.78054         2.70688        0.162679 
        5.79626          2.6937        0.161498 
          5.812         2.67977        0.160327 
         5.8277         2.66146        0.159171 
        5.84339         2.64302        0.158027 
        5.85911         2.63506        0.156891 
        5.87484         2.61622        0.155767 
        5.89053         2.60387        0.154655 
        5.90623         2.58569        0.153554 
        5.92195         2.57611        0.152462 
        5.93767         2.55604         0.15138 
        5.95336         2.54302        0.150311 
        5.96905         2.53205        0.149252 
        5.98476         2.51432        0.148202 
        6.00048         2.49835        0.147162 
        6.01617         2.48843        0.146133 
        6.03185         2.47094        0.145115 
        6.04756         2.45829        0.144104 
        6.06331         2.44232          0.1431 
        6.07903         2.43172        0.142108 
        6.09473         2.41672        0.141126 
        6.11044         2.40499        0.140153 
        6.12616         2.39331        0.139188 
        6.14186         2.37997        0.138234 
        6.15755         2.37001        0.137288 
        6.17326         2.35063        0.136351 
        6.18898          2.3401        0.135422 
        6.20467         2.32787        0.134502 
        6.22036         2.31493        0.133592 
         6.2361         2.30295        0.132687 
         6.2518         2.28979        0.131792 
        6.26748         2.28087        0.130907 
        6.28319         2.26708        0.130028 
        6.29893         2.25816        0.129156 
        6.31463         2.24356        0.128293 
        6.33033          2.2291        0.127439 
        6.34604          2.2172        0.126591 
        6.36177         2.20595        0.125751 
        6.37747         2.19409        0.124919 
