# k  (h/Mpc)    Pcb(k)  (Mpc/h)^3    Pcb_linear(k) (Mpc/h)^3   ShotnoiseSubtracted = true
      0.0200456         3933.87         3983.53 
      0.0350414         2521.98         2546.69 
      0.0492313         1696.33         1688.74 
      0.0637834         1376.21         1348.31 
      0.0800726         1071.02         1054.35 
       0.096163         725.355         729.128 
       0.111083         548.695         551.069 
       0.126058         490.334          482.05 
       0.142273         423.153         412.031 
       0.158546         332.692         317.709 
        0.17375         261.532         256.295 
       0.188953           241.1         228.876 
       0.204907         223.997         205.018 
       0.220756         185.365         172.253 
        0.23588         157.764         145.282 
         0.2514         138.071         129.566 
       0.267535         128.345          117.93 
       0.283568          114.68         104.043 
       0.299022         103.103         91.0016 
       0.314451         91.3524         81.7729 
       0.330372         84.5948         74.9171 
       0.346141         76.1216         68.0949 
       0.361624         70.5259          61.309 
       0.377134         65.5767         55.6866 
       0.392932         58.0363         51.2427 
       0.408854         55.6323         47.2037 
       0.424564         52.2865         43.3031 
       0.440253         48.0825         39.7934 
       0.455999         44.7926         36.8434 
       0.471626         41.7072         34.2692 
        0.48727         39.5733         31.8402 
       0.502856          37.148            29.6 
       0.518488         35.2859         27.6051 
       0.534347         33.7995         25.8081 
       0.550082         30.6842         24.1674 
       0.565732         28.6289         22.6493 
       0.581496          27.809         21.2528 
       0.597222         26.7439         19.9905 
       0.612804         24.9049         18.8417 
       0.628434         23.9508         17.7724 
       0.644267         23.1776         16.7684 
       0.660051         21.9451         15.8481 
       0.675724         20.7337         15.0047 
       0.691403         20.0204         14.2214 
       0.707174         19.2128         13.4887 
       0.722871         18.4482         12.8097 
        0.73838         17.6432          12.184 
       0.754018         16.9125         11.5947 
       0.769845         16.3248         11.0375 
        0.78569         15.7385         10.5159 
       0.801365         15.0853         10.0326 
       0.817031         14.6242         9.57976 
       0.832809         14.2824         9.15175 
       0.848511          13.373         8.75161 
       0.864097         13.0986         8.37796 
       0.879701         12.6892         8.02561 
       0.895507         12.2108         7.68925 
       0.911279         11.8475         7.37272 
        0.92691         11.5128         7.07648 
       0.942635         10.9922         6.79478 
       0.958396         10.7381          6.5277 
       0.974128         10.3914         6.27535 
       0.989692         10.2254         6.03871 
        1.00528         9.94356         5.81384 
        1.02113         9.49025         5.59681 
        1.03692         9.22563         5.39157 
        1.05264          9.0751         5.19748 
        1.06832         8.76096         5.01316 
        1.08405          8.4968         4.83721 
        1.09979         8.28372         4.66953 
        1.11537         8.12919         4.51139 
        1.13105         7.91674         4.35956 
        1.14679         7.76478         4.21408 
        1.16256         7.44474          4.0749 
        1.17828         7.39464          3.9424 
        1.19395         7.09017         3.81619 
         1.2097         6.99804         3.69482 
        1.22537         6.78845         3.57926 
          1.241         6.65871         3.46895 
        1.25666          6.5014         3.36297 
        1.27241          6.3206         3.26089 
        1.28819         6.18194         3.16283 
        1.30392         6.10099         3.06906 
        1.31957         5.96382         2.97947 
        1.33529         5.83188         2.89309 
        1.35108         5.68873         2.80977 
        1.36674            5.63          2.7303 
         1.3824         5.44452         2.65394 
        1.39811         5.35624         2.58023 
        1.41389         5.24884           2.509 
        1.42964         5.15827         2.44056 
        1.44531         5.06435         2.37499 
        1.46101         4.93365         2.31166 
        1.47667         4.86672         2.25081 
        1.49229         4.78995         2.19229 
        1.50793         4.67791         2.13577 
        1.52367         4.59435         2.08085 
        1.53953         4.50209         2.02748 
        1.55526         4.43823          1.9764 
        1.57092         4.34931         1.92726 
        1.58662         4.28077         1.87966 
        1.60235         4.20572         1.83357 
        1.61809         4.12856         1.78898 
        1.63369         4.05801         1.74625 
        1.64941          3.9744          1.7046 
        1.66519         3.93923         1.66415 
        1.68085         3.85499         1.62528 
        1.69652           3.784         1.58763 
        1.71228         3.72768         1.55095 
        1.72806         3.67343         1.51539 
        1.74368          3.6025         1.48129 
        1.75933         3.56012         1.44816 
        1.77505         3.50495         1.41587 
        1.79081         3.43527         1.38451 
         1.8065         3.40611         1.35422 
        1.82218          3.3436         1.32485 
        1.83797          3.3087         1.29615 
        1.85367         3.23572         1.26844 
        1.86928         3.21259          1.2417 
        1.88497         3.14436         1.21558 
        1.90073         3.10357         1.19011 
        1.91647         3.06089         1.16538 
        1.93218         3.02514          1.1414 
        1.94787         2.98141         1.11812 
        1.96363          2.9351          1.0954 
        1.97935         2.88223         1.07334 
        1.99499         2.84663         1.05201 
        2.01064         2.81428         1.03123 
         2.0264         2.77308         1.01087 
        2.04216         2.73959         0.99106 
        2.05781         2.69638        0.971904 
        2.07353         2.67882         0.95318 
        2.08928         2.63851        0.934903 
        2.10499         2.60452         0.91715 
        2.12065         2.56629        0.899906 
        2.13633         2.53766        0.883086 
        2.15211         2.50618        0.866583 
        2.16785           2.474        0.850543 
        2.18349          2.4396        0.835005 
        2.19916         2.40259        0.819819 
        2.21489         2.38701        0.804956 
        2.23063         2.34685        0.790448 
         2.2463         2.32396        0.776359 
        2.26194         2.28987        0.762644 
        2.27765          2.2759        0.749187 
        2.29341         2.24451        0.736017 
        2.30914         2.21138        0.723186 
        2.32486          2.1916        0.710666 
        2.34061         2.16487        0.698418 
        2.35635         2.14244        0.686466 
        2.37203         2.12806        0.674833 
        2.38768         2.09601         0.66349 
        2.40339         2.06603        0.652364 
        2.41914          2.0435        0.641464 
        2.43483         2.03318        0.630849 
         2.4505          2.0066         0.62049 
        2.46622         1.98421        0.610325 
        2.48195         1.95627        0.600385 
        2.49759         1.94011        0.590717 
        2.51328         1.91972        0.581234 
        2.52906         1.90665        0.571897 
        2.54479         1.87672        0.562798 
        2.56049         1.86269        0.553912 
        2.57618          1.8419        0.545224 
        2.59189         1.82752        0.536707 
        2.60758          1.8107        0.528383 
        2.62325          1.7878        0.520244 
        2.63898          1.7648        0.512246 
        2.65468         1.75235        0.504431 
        2.67044         1.73313        0.496744 
        2.68618         1.71948        0.489233 
        2.70184         1.69983        0.481906 
        2.71755         1.68716        0.474708 
        2.73329         1.66794        0.467646 
        2.74897         1.66015        0.460748 
        2.76462         1.63965        0.454003 
        2.78034         1.61711        0.447364 
        2.79607         1.60537        0.440849 
        2.81179         1.59744         0.43447 
        2.82749         1.56891        0.428222 
        2.84321         1.57019         0.42209 
        2.85893          1.5521        0.416078 
        2.87462         1.53435        0.410191 
        2.89033         1.52618        0.404413 
        2.90605         1.50986        0.398739 
        2.92176         1.49168        0.393176 
        2.93747          1.4761         0.38772 
        2.95318         1.46406        0.382366 
        2.96891         1.46109        0.377109 
        2.98456         1.44473        0.371973 
        3.00023          1.4303        0.366925 
        3.01596         1.42004        0.361953 
        3.03164         1.41128        0.357087 
        3.04738         1.39376        0.352294 
         3.0631         1.38262        0.347591 
        3.07883         1.37226        0.342972 
        3.09456         1.36209        0.338437 
        3.11026          1.3521        0.333989 
        3.12596          1.3364        0.329622 
        3.14163         1.32785        0.325341 
        3.15734         1.31793        0.321126 
        3.17308         1.30826        0.316975 
        3.18879         1.30103        0.312907 
        3.20447         1.29113        0.308916 
         3.2202         1.27316        0.304981 
         3.2359         1.26987        0.301121 
        3.25157          1.2597        0.297336 
        3.26729         1.24779        0.293605 
        3.28304         1.24127        0.289929 
        3.29877         1.22987         0.28632 
        3.31446         1.21934         0.28278 
        3.33014         1.21424        0.279302 
        3.34585         1.20594        0.275876 
        3.36158         1.19596        0.272503 
        3.37727         1.18046        0.269195 
        3.39294         1.17762        0.265945 
        3.40867         1.16585        0.262736 
        3.42439         1.15938        0.259582 
        3.44008         1.15184        0.256484 
        3.45578         1.14155        0.253434 
        3.47153         1.13607        0.250427 
        3.48724         1.12723        0.247473 
        3.50292         1.12077        0.244573 
        3.51859         1.11119        0.241721 
        3.53431         1.10434        0.238904 
        3.55007         1.09603        0.236125 
        3.56577         1.08978        0.233401 
        3.58146         1.08236         0.23072 
        3.59719         1.07688        0.228075 
        3.61292         1.06499        0.225472 
        3.62859         1.06111        0.222918 
        3.64429         1.04867        0.220399 
        3.66003          1.0467        0.217911 
        3.67578         1.04118        0.215461 
        3.69146         1.03065        0.213058 
        3.70712         1.02348        0.210696 
        3.72284         1.01652         0.20836 
        3.73853         1.01146        0.206063 
        3.75422          1.0066          0.2038 
        3.76993        0.994823        0.201568 
        3.78564        0.993005         0.19937 
        3.80137        0.988175        0.197201 
        3.81707        0.977215        0.195069 
        3.83279         0.97227        0.192966 
        3.84853        0.965845         0.19089 
        3.86424        0.961771        0.188848 
        3.87992        0.953808        0.186839 
        3.89561        0.948638        0.184859 
        3.91134        0.945679        0.182903 
        3.92704        0.938839        0.180977 
        3.94273        0.930187        0.179081 
        3.95845        0.923354        0.177208 
        3.97418        0.918597        0.175361 
        3.98988        0.912662        0.173542 
        4.00554        0.907636        0.171754 
        4.02125         0.90117        0.169986 
        4.03698        0.896037         0.16824 
        4.05268        0.888667        0.166522 
        4.06839        0.884785        0.164826 
         4.0841        0.875982        0.163154 
        4.09983        0.869535        0.161503 
        4.11555        0.863193        0.159875 
        4.13124        0.856731        0.158274 
        4.14693        0.852009        0.156693 
        4.16266        0.843675        0.155129 
        4.17839        0.839296        0.153588 
        4.19408         0.83647        0.152071 
        4.20977        0.825927        0.150573 
        4.22551        0.823116        0.149092 
        4.24123        0.817008        0.147632 
        4.25691        0.810522        0.146196 
        4.27259        0.807652        0.144777 
        4.28831         0.80227        0.143375 
        4.30404        0.796433        0.141989 
        4.31974         0.79294        0.140625 
        4.33543        0.787422        0.139279 
        4.35116        0.783515        0.137947 
        4.36688        0.778107        0.136633 
        4.38255        0.773612        0.135341 
        4.39825        0.769477        0.134063 
        4.41398        0.763433        0.132798 
         4.4297        0.760193        0.131551 
        4.44541        0.757668         0.13032 
        4.46111          0.7527        0.129105 
        4.47683         0.74986        0.127905 
        4.49251        0.746642        0.126722 
        4.50819        0.742832        0.125555 
         4.5239        0.739048          0.1244 
        4.53962        0.734934        0.123258 
        4.55535        0.731069         0.12213 
        4.57106        0.726515        0.121017 
        4.58678        0.725416        0.119918 
         4.6025         0.72249        0.118832 
        4.61821        0.717497         0.11776 
        4.63391        0.713729        0.116702 
         4.6496        0.710662        0.115657 
        4.66532        0.710431        0.114623 
        4.68103         0.70599        0.113603 
        4.69673        0.703722        0.112595 
        4.71241        0.700919        0.111601 
        4.72811         0.69695        0.110616 
        4.74384        0.695871        0.109643 
        4.75955         0.69236        0.108682 
        4.77525         0.68945        0.107733 
        4.79096        0.687835        0.106795 
        4.80669        0.684889        0.105867 
         4.8224        0.683882         0.10495 
        4.83809        0.679506        0.104046 
        4.85379        0.679116        0.103151 
         4.8695        0.675268        0.102267 
        4.88521        0.673417        0.101392 
        4.90093        0.672048        0.100528 
        4.91663        0.668484       0.0996747 
        4.93234        0.666945       0.0988301 
        4.94807        0.666378       0.0979946 
        4.96377         0.66448       0.0971702 
        4.97943          0.6624        0.096357 
        4.99514        0.658474       0.0955508 
        5.01086        0.658905       0.0947531 
        5.02654        0.657047       0.0939665 
        5.04227        0.655158       0.0931864 
          5.058        0.655254       0.0924146 
        5.07371        0.652426        0.091653 
        5.08942        0.651859       0.0908998 
        5.10513        0.649882       0.0901549 
        5.12084        0.647046       0.0894178 
        5.13656        0.646708       0.0886891 
        5.15225        0.645987       0.0879696 
        5.16796        0.645561       0.0872568 
        5.18369        0.642667       0.0865512 
         5.1994        0.642544       0.0858546 
        5.21509        0.641647       0.0851662 
        5.23079        0.640629       0.0844844 
        5.24649        0.638347       0.0838106 
        5.26217        0.637765       0.0831445 
        5.27788        0.638245       0.0824845 
        5.29359        0.636504       0.0818316 
        5.30933        0.636026       0.0811847 
        5.32504        0.634536       0.0805458 
        5.34073         0.63393       0.0799144 
        5.35646        0.634326       0.0792884 
        5.37218        0.633021       0.0786689 
        5.38789        0.632299       0.0780569 
        5.40357        0.631428       0.0774521 
        5.41929        0.630125       0.0768523 
        5.43502        0.629606       0.0762587 
         5.4507        0.627485       0.0756727 
        5.46639        0.628151       0.0750927 
        5.48212        0.629675       0.0745173 
        5.49786        0.627451       0.0739473 
        5.51353        0.628793       0.0733859 
        5.52921        0.624943       0.0728298 
        5.54495        0.626314       0.0722777 
        5.56066        0.626958       0.0717318 
        5.57637        0.625876       0.0711916 
        5.59207         0.62438       0.0706574 
        5.60778        0.624781       0.0701284 
        5.62346        0.624859       0.0696055 
        5.63916        0.626176       0.0690874 
        5.65487        0.625719       0.0685742 
         5.6706        0.624577       0.0680655 
        5.68633        0.623594       0.0675618 
        5.70203        0.625466       0.0670641 
        5.71773         0.62548       0.0665715 
        5.73344        0.624076       0.0660835 
        5.74916        0.625295       0.0655999 
        5.76486        0.623984       0.0651217 
        5.78054        0.624807        0.064649 
        5.79626        0.624944       0.0641796 
          5.812        0.623444       0.0637144 
         5.8277        0.622747        0.063255 
        5.84339        0.624296       0.0628001 
        5.85911        0.624332       0.0623488 
        5.87484        0.624171       0.0619019 
        5.89053        0.625572       0.0614603 
        5.90623        0.624452       0.0610227 
        5.92195        0.625061       0.0605885 
        5.93767         0.62456       0.0601588 
        5.95336        0.623715       0.0597339 
        5.96905        0.625122       0.0593132 
        5.98476        0.624668       0.0588959 
        6.00048        0.624891       0.0584825 
        6.01617        0.623575       0.0580735 
        6.03185        0.626548       0.0576689 
        6.04756        0.625093       0.0572671 
        6.06331        0.624442       0.0568683 
        6.07903        0.625302        0.056474 
        6.09473        0.626339       0.0560838 
        6.11044        0.625118       0.0556969 
        6.12616        0.626248       0.0553137 
        6.14186        0.625508       0.0549344 
        6.15755        0.624459       0.0545587 
        6.17326        0.625499       0.0541861 
        6.18898        0.625481       0.0538168 
        6.20467        0.626043       0.0534515 
        6.22036        0.625885       0.0530897 
         6.2361        0.625653       0.0527301 
         6.2518        0.627095       0.0523745 
        6.26748         0.62468       0.0520229 
        6.28319        0.625617       0.0516734 
        6.29893        0.627091       0.0513269 
        6.31463        0.626517       0.0509841 
        6.33033        0.627061       0.0506445 
        6.34604        0.625842       0.0503077 
        6.36177        0.626948       0.0499736 
        6.37747         0.62702       0.0496431 
