# k  (h/Mpc)    Pcb(k)  (Mpc/h)^3    Pcb_linear(k) (Mpc/h)^3   ShotnoiseSubtracted = true
      0.0200456         10517.5         10644.8 
      0.0350414         7028.71         6805.27 
      0.0492313         4508.18         4512.66 
      0.0637834         3521.53         3602.95 
      0.0800726         2725.04         2817.42 
       0.096163          2044.8         1948.38 
       0.111083         1575.97         1472.57 
       0.126058         1302.17         1288.14 
       0.142273         1122.03         1101.03 
       0.158546         900.562         848.984 
        0.17375          757.38         684.873 
       0.188953         690.406         611.603 
       0.204907         587.911          547.85 
       0.220756         521.882         460.295 
        0.23588         453.832         388.224 
         0.2514          400.05         346.226 
       0.267535         384.203         315.132 
       0.283568         332.789         278.025 
       0.299022         312.513         243.175 
       0.314451         306.473         218.514 
       0.330372         262.053         200.194 
       0.346141         241.148         181.963 
       0.361624         226.984          163.83 
       0.377134         208.594         148.806 
       0.392932         200.725         136.931 
       0.408854         189.852         126.138 
       0.424564         180.885         115.715 
       0.440253         162.705         106.336 
       0.455999         152.232          98.453 
       0.471626         149.648         91.5743 
        0.48727         142.104         85.0834 
       0.502856         129.186         79.0972 
       0.518488         128.067         73.7665 
       0.534347         118.771         68.9644 
       0.550082         115.446         64.5801 
       0.565732         113.415         60.5235 
       0.581496         103.963         56.7918 
       0.597222         101.446         53.4188 
       0.612804         97.1795         50.3489 
       0.628434         94.7137         47.4915 
       0.644267         89.2233         44.8084 
       0.660051         86.8563         42.3493 
       0.675724          84.787         40.0957 
       0.691403         82.7395         38.0025 
       0.707174          79.303         36.0446 
       0.722871         77.7159         34.2302 
        0.73838         75.7708         32.5581 
       0.754018         70.9992         30.9835 
       0.769845         70.5428         29.4944 
        0.78569         68.3246         28.1005 
       0.801365         65.6779         26.8092 
       0.817031         63.6456         25.5991 
       0.832809         62.2542         24.4553 
       0.848511         60.7761         23.3861 
       0.864097         59.4521         22.3876 
       0.879701         58.1602         21.4461 
       0.895507         55.9776         20.5472 
       0.911279         54.6521         19.7014 
        0.92691         53.5469         18.9098 
       0.942635         51.9326          18.157 
       0.958396         51.8916         17.4433 
       0.974128         50.5417          16.769 
       0.989692         49.0887         16.1367 
        1.00528          48.121         15.5358 
        1.02113         46.8806         14.9558 
        1.03692         46.6905         14.4074 
        1.05264         45.7532         13.8887 
        1.06832         44.3308         13.3962 
        1.08405         43.5946          12.926 
        1.09979         43.0654         12.4779 
        1.11537         41.9691         12.0553 
        1.13105         40.9906         11.6496 
        1.14679         40.5369         11.2609 
        1.16256         39.7643          10.889 
        1.17828         39.3806         10.5349 
        1.19395         38.3115         10.1976 
         1.2097         38.1432          9.8733 
        1.22537         37.0813         9.56451 
          1.241           36.99         9.26973 
        1.25666         35.6219         8.98654 
        1.27241         35.5083         8.71375 
        1.28819         35.0074         8.45172 
        1.30392         34.2069         8.20114 
        1.31957         34.0349         7.96173 
        1.33529         33.4816         7.73093 
        1.35108         32.9843         7.50828 
        1.36674         32.2396          7.2959 
         1.3824         31.7641         7.09187 
        1.39811          31.219         6.89488 
        1.41389         30.8212         6.70456 
        1.42964         30.5722         6.52168 
        1.44531          30.018         6.34645 
        1.46101         29.7019         6.17722 
        1.47667         29.2878         6.01462 
        1.49229         28.6894         5.85824 
        1.50793            28.5          5.7072 
        1.52367         28.1125         5.56046 
        1.53953          27.847         5.41785 
        1.55526         27.2233         5.28133 
        1.57092         27.0692         5.15003 
        1.58662         26.7136         5.02284 
        1.60235          26.282         4.89966 
        1.61809         25.9771         4.78051 
        1.63369          25.544         4.66634 
        1.64941         25.2386         4.55504 
        1.66519         24.9715         4.44694 
        1.68085         24.5611         4.34309 
        1.69652          24.281         4.24248 
        1.71228         24.1218         4.14446 
        1.72806         23.7878         4.04943 
        1.74368         23.3688          3.9583 
        1.75933         23.3136         3.86977 
        1.77505         22.9139          3.7835 
        1.79081         22.7042         3.69969 
         1.8065         22.4859         3.61874 
        1.82218         22.0537         3.54027 
        1.83797         21.8804         3.46356 
        1.85367         21.6566         3.38953 
        1.86928          21.538         3.31808 
        1.88497         21.1773         3.24828 
        1.90073          21.043         3.18021 
        1.91647           20.81         3.11413 
        1.93218         20.6077         3.05005 
        1.94787         20.3464         2.98785 
        1.96363         20.0563         2.92712 
        1.97935         19.8807         2.86819 
        1.99499         19.7373         2.81119 
        2.01064         19.3965         2.75565 
         2.0264         19.2912         2.70124 
        2.04216         19.1677         2.64831 
        2.05781         18.9325         2.59712 
        2.07353         18.6874         2.54709 
        2.08928          18.554         2.49825 
        2.10499         18.2832         2.45081 
        2.12065         18.0775         2.40473 
        2.13633         17.9747         2.35978 
        2.15211         17.7011         2.31568 
        2.16785         17.6027         2.27282 
        2.18349         17.4378          2.2313 
        2.19916         17.2611         2.19072 
        2.21489         17.0568         2.15101 
        2.23063         16.9009         2.11224 
         2.2463         16.8022         2.07459 
        2.26194          16.507         2.03794 
        2.27765         16.4044         2.00198 
        2.29341         16.1579         1.96679 
        2.30914         16.0316          1.9325 
        2.32486         15.9502         1.89904 
        2.34061         15.7327         1.86631 
        2.35635         15.5256         1.83438 
        2.37203         15.4706         1.80329 
        2.38768          15.267         1.77298 
        2.40339         15.1695         1.74325 
        2.41914         15.0556         1.71412 
        2.43483         14.9668         1.68576 
         2.4505         14.6972         1.65807 
        2.46622         14.5953         1.63091 
        2.48195         14.4703         1.60435 
        2.49759         14.2878         1.57851 
        2.51328         14.1339         1.55317 
        2.52906         14.0213         1.52822 
        2.54479         13.9511         1.50391 
        2.56049         13.8074         1.48017 
        2.57618         13.6874         1.45695 
        2.59189         13.5219         1.43419 
        2.60758         13.3885         1.41195 
        2.62325         13.2358          1.3902 
        2.63898         13.2076         1.36882 
        2.65468          13.073         1.34794 
        2.67044          12.935          1.3274 
        2.68618         12.7387         1.30733 
        2.70184         12.6751         1.28775 
        2.71755         12.5154         1.26852 
        2.73329         12.4298         1.24964 
        2.74897          12.366         1.23121 
        2.76462         12.2465         1.21319 
        2.78034         12.0954         1.19545 
        2.79607         12.0187         1.17804 
        2.81179         11.9316         1.16099 
        2.82749          11.772          1.1443 
        2.84321         11.7149         1.12791 
        2.85893         11.6076         1.11184 
        2.87462         11.4735         1.09611 
        2.89033          11.386         1.08067 
        2.90605         11.2797         1.06551 
        2.92176         11.1637         1.05064 
        2.93747         11.1206         1.03607 
        2.95318         11.0274         1.02176 
        2.96891         10.8834         1.00771 
        2.98456         10.8241        0.993988 
        3.00023         10.7435        0.980497 
        3.01596         10.6396        0.967212 
        3.03164         10.5552        0.954207 
        3.04738         10.4794        0.941402 
         3.0631         10.3874        0.928833 
        3.07883         10.2705         0.91649 
        3.09456         10.1818        0.904371 
        3.11026         10.1127        0.892487 
        3.12596         10.0224        0.880816 
        3.14163         9.92257        0.869378 
        3.15734         9.85098        0.858114 
        3.17308         9.77711         0.84702 
        3.18879         9.70665        0.836151 
        3.20447         9.64059        0.825485 
         3.2202         9.54209        0.814971 
         3.2359          9.4621        0.804657 
        3.25157         9.37886        0.794543 
        3.26729         9.29209        0.784571 
        3.28304         9.24269        0.774748 
        3.29877         9.16985        0.765105 
        3.31446         9.09354        0.755644 
        3.33014          9.0161        0.746351 
        3.34585         8.95362        0.737197 
        3.36158          8.8882        0.728182 
        3.37727         8.79621        0.719344 
        3.39294         8.72158        0.710659 
        3.40867         8.64796        0.702084 
        3.42439         8.60391        0.693654 
        3.44008         8.51563        0.685377 
        3.45578         8.43587        0.677228 
        3.47153         8.39018        0.669192 
        3.48724           8.308        0.661298 
        3.50292         8.24175        0.653549 
        3.51859         8.16904        0.645927 
        3.53431          8.1086          0.6384 
        3.55007         8.05232        0.630975 
        3.56577         7.96484        0.623695 
        3.58146         7.90943        0.616531 
        3.59719         7.85506        0.609463 
        3.61292         7.81537        0.602506 
        3.62859         7.71657        0.595683 
        3.64429         7.67915        0.588951 
        3.66003         7.58289        0.582302 
        3.67578         7.56067        0.575756 
        3.69146         7.48152        0.569335 
        3.70712         7.42305        0.563022 
        3.72284         7.37366         0.55678 
        3.73853         7.30561        0.550643 
        3.75422         7.27251        0.544594 
        3.76993         7.20264        0.538631 
        3.78564         7.15219        0.532758 
        3.80137         7.09639        0.526962 
        3.81707          7.0301        0.521263 
        3.83279         6.96854        0.515643 
        3.84853         6.92951        0.510096 
        3.86424         6.86453        0.504641 
        3.87992         6.82299        0.499272 
        3.89561          6.7553         0.49398 
        3.91134         6.70203        0.488754 
        3.92704         6.67393        0.483608 
        3.94273         6.62118         0.47854 
        3.95845         6.56303        0.473535 
        3.97418         6.51694          0.4686 
        3.98988         6.45831         0.46374 
        4.00554         6.40685        0.458963 
        4.02125         6.38677        0.454238 
        4.03698         6.31353        0.449571 
        4.05268         6.27456         0.44498 
        4.06839         6.21782        0.440449 
         4.0841         6.17331        0.435981 
        4.09983         6.11749        0.431569 
        4.11555         6.09149        0.427218 
        4.13124         6.02037        0.422939 
        4.14693         5.97934        0.418714 
        4.16266         5.92558        0.414537 
        4.17839         5.89325        0.410418 
        4.19408         5.85274        0.406364 
        4.20977         5.79716        0.402362 
        4.22551         5.76607        0.398404 
        4.24123         5.72504        0.394503 
        4.25691         5.66729        0.390664 
        4.27259         5.63805        0.386874 
        4.28831         5.58669        0.383126 
        4.30404         5.54928        0.379424 
        4.31974         5.50271        0.375778 
        4.33543          5.4399        0.372182 
        4.35116         5.42077        0.368623 
        4.36688         5.37823        0.365112 
        4.38255         5.34717        0.361659 
        4.39825         5.29513        0.358243 
        4.41398         5.25237        0.354864 
         4.4297         5.22778        0.351531 
        4.44541          5.1943        0.348241 
        4.46111         5.14849        0.344995 
        4.47683         5.11505        0.341788 
        4.49251         5.09122        0.338628 
        4.50819         5.02279        0.335508 
         4.5239         4.98097        0.332422 
        4.53962         4.97302        0.329371 
        4.55535          4.9313        0.326356 
        4.57106          4.8965        0.323383 
        4.58678         4.86146        0.320446 
         4.6025         4.82789        0.317544 
        4.61821         4.77883        0.314678 
        4.63391         4.76491        0.311851 
         4.6496         4.72814        0.309059 
        4.66532         4.69142        0.306297 
        4.68103          4.6519        0.303569 
        4.69673         4.62322        0.300877 
        4.71241         4.59886        0.298219 
        4.72811          4.5592         0.29559 
        4.74384         4.52964        0.292988 
        4.75955         4.50107        0.290421 
        4.77525         4.47432        0.287885 
        4.79096         4.43941        0.285377 
        4.80669         4.41705        0.282897 
         4.8224         4.37439        0.280449 
        4.83809         4.33898        0.278032 
        4.85379         4.31331        0.275641 
         4.8695         4.28171        0.273277 
        4.88521         4.25935        0.270941 
        4.90093         4.22345        0.268632 
        4.91663         4.19662        0.266351 
        4.93234         4.16552        0.264094 
        4.94807         4.13681        0.261861 
        4.96377         4.10242        0.259659 
        4.97943         4.08394        0.257485 
        4.99514          4.0646        0.255331 
        5.01086          4.0153        0.253199 
        5.02654         4.00566        0.251097 
        5.04227         3.97851        0.249013 
          5.058         3.94085        0.246951 
        5.07371         3.92372        0.244915 
        5.08942         3.89857        0.242903 
        5.10513         3.87234        0.240912 
        5.12084         3.84037        0.238943 
        5.13656         3.80991        0.236995 
        5.15225         3.78867        0.235072 
        5.16796         3.77544        0.233168 
        5.18369         3.73588        0.231282 
         5.1994         3.73561        0.229421 
        5.21509         3.69664        0.227581 
        5.23079         3.67245        0.225759 
        5.24649         3.64608        0.223959 
        5.26217         3.62938        0.222179 
        5.27788           3.599        0.220415 
        5.29359          3.5774        0.218671 
        5.30933         3.55353        0.216942 
        5.32504         3.53615        0.215235 
        5.34073         3.51009        0.213547 
        5.35646         3.48934        0.211875 
        5.37218         3.46943        0.210219 
        5.38789         3.44486        0.208584 
        5.40357         3.42371        0.206968 
        5.41929          3.4005        0.205365 
        5.43502         3.38182        0.203779 
         5.4507         3.35413        0.202213 
        5.46639         3.32695        0.200663 
        5.48212         3.32396        0.199125 
        5.49786          3.2943        0.197602 
        5.51353         3.27468        0.196102 
        5.52921         3.25864        0.194616 
        5.54495         3.23116        0.193141 
        5.56066         3.21232        0.191682 
        5.57637         3.19398        0.190238 
        5.59207         3.17063        0.188811 
        5.60778         3.15855        0.187397 
        5.62346         3.13664           0.186 
        5.63916         3.12582        0.184615 
        5.65487         3.09393        0.183244 
         5.6706           3.073        0.181885 
        5.68633         3.05155        0.180539 
        5.70203         3.03894        0.179209 
        5.71773         3.02545        0.177893 
        5.73344         3.00292        0.176589 
        5.74916         2.98662        0.175296 
        5.76486         2.96398        0.174018 
        5.78054         2.95618        0.172755 
        5.79626         2.93625        0.171501 
          5.812         2.91447        0.170258 
         5.8277         2.89759         0.16903 
        5.84339         2.87826        0.167815 
        5.85911         2.85749        0.166609 
        5.87484         2.84389        0.165414 
        5.89053         2.83001        0.164234 
        5.90623         2.81405        0.163065 
        5.92195         2.80045        0.161905 
        5.93767          2.7806        0.160756 
        5.95336         2.76737        0.159621 
        5.96905         2.75008        0.158497 
        5.98476         2.73241        0.157382 
        6.00048         2.71455        0.156277 
        6.01617         2.70087        0.155184 
        6.03185         2.68029        0.154103 
        6.04756         2.67179        0.153029 
        6.06331          2.6564        0.151964 
        6.07903          2.6415         0.15091 
        6.09473         2.62205        0.149867 
        6.11044         2.61028        0.148833 
        6.12616         2.59946        0.147809 
        6.14186         2.58117        0.146796 
        6.15755         2.56656        0.145792 
        6.17326          2.5529        0.144796 
        6.18898         2.53354        0.143809 
        6.20467          2.5266        0.142833 
        6.22036         2.51186        0.141866 
         6.2361         2.49482        0.140906 
         6.2518         2.49044        0.139955 
        6.26748         2.46594        0.139016 
        6.28319         2.45737        0.138082 
        6.29893         2.44588        0.137156 
        6.31463         2.43238         0.13624 
        6.33033         2.42036        0.135332 
        6.34604         2.40019        0.134432 
        6.36177         2.39262         0.13354 
        6.37747         2.37879        0.132656 
