# k  (h/Mpc)    Pcb(k)  (Mpc/h)^3    Pcb_linear(k) (Mpc/h)^3   ShotnoiseSubtracted = true
      0.0200456         22769.3         23101.8 
      0.0350414         15388.4         14769.1 
      0.0492313          9697.5          9793.6 
      0.0637834         7558.35         7819.29 
      0.0800726         5829.21         6114.51 
       0.096163         4527.89         4228.46 
       0.111083         3516.67         3195.84 
       0.126058         2876.08         2795.57 
       0.142273         2518.65         2389.51 
       0.158546         2027.61         1842.51 
        0.17375         1758.53         1486.34 
       0.188953         1648.07         1327.33 
       0.204907         1406.58         1188.97 
       0.220756         1263.89         998.955 
        0.23588         1113.58         842.543 
         0.2514         992.847         751.395 
       0.267535         957.507         683.915 
       0.283568         842.859         603.383 
       0.299022         796.639         527.749 
       0.314451         824.866         474.229 
       0.330372         711.043          434.47 
       0.346141         651.508         394.906 
       0.361624         621.825         355.552 
       0.377134         592.801         322.945 
       0.392932         561.343         297.174 
       0.408854         537.483          273.75 
       0.424564         521.823          251.13 
       0.440253         477.092         230.776 
       0.455999         453.914         213.667 
       0.471626          461.98         198.739 
        0.48727         432.284         184.652 
       0.502856         410.772         171.661 
       0.518488         399.125         160.092 
       0.534347         381.177          149.67 
       0.550082         361.967         140.155 
       0.565732         357.229         131.351 
       0.581496         346.355         123.252 
       0.597222         337.443         115.932 
       0.612804         327.068          109.27 
       0.628434         314.806         103.068 
       0.644267          303.17         97.2454 
       0.660051         299.746         91.9086 
       0.675724         291.649         87.0176 
       0.691403         285.588         82.4748 
       0.707174         274.983         78.2256 
       0.722871         271.505          74.288 
        0.73838         265.038         70.6592 
       0.754018         256.293         67.2418 
       0.769845         255.976         64.0101 
        0.78569         247.782          60.985 
       0.801365         239.721         58.1826 
       0.817031          238.98         55.5563 
       0.832809         233.066         53.0741 
       0.848511         228.711         50.7535 
       0.864097         221.009         48.5866 
       0.879701         221.421         46.5433 
       0.895507         214.632         44.5926 
       0.911279         209.795         42.7569 
        0.92691         207.268         41.0389 
       0.942635         204.487         39.4052 
       0.958396         199.082         37.8563 
       0.974128         197.084         36.3929 
       0.989692         190.206         35.0206 
        1.00528          189.59         33.7165 
        1.02113         187.366         32.4578 
        1.03692         183.403         31.2676 
        1.05264         179.472          30.142 
        1.06832         177.833          29.073 
        1.08405         174.462         28.0526 
        1.09979         171.632         27.0802 
        1.11537         170.272         26.1631 
        1.13105         166.252         25.2826 
        1.14679         165.034         24.4389 
        1.16256          161.95         23.6317 
        1.17828         160.103         22.8633 
        1.19395         156.404         22.1314 
         1.2097         155.917         21.4275 
        1.22537         153.939         20.7574 
          1.241         148.884         20.1176 
        1.25666         148.837          19.503 
        1.27241         145.932          18.911 
        1.28819         144.492         18.3423 
        1.30392          142.97         17.7985 
        1.31957          139.71         17.2789 
        1.33529         136.969          16.778 
        1.35108          136.62         16.2948 
        1.36674         133.093         15.8339 
         1.3824          132.23         15.3911 
        1.39811          131.18         14.9636 
        1.41389         128.218         14.5506 
        1.42964         125.895         14.1537 
        1.44531         125.462         13.7734 
        1.46101          123.05         13.4061 
        1.47667          122.44         13.0532 
        1.49229         121.095         12.7138 
        1.50793         118.428          12.386 
        1.52367         116.595         12.0676 
        1.53953         114.938         11.7581 
        1.55526         113.891         11.4618 
        1.57092         112.911         11.1768 
        1.58662         110.982         10.9008 
        1.60235         109.637         10.6335 
        1.61809         108.136         10.3749 
        1.63369         106.386         10.1271 
        1.64941         105.908         9.88557 
        1.66519          103.72         9.65097 
        1.68085         102.442         9.42557 
        1.69652         101.538         9.20724 
        1.71228         99.6572         8.99451 
        1.72806         99.4399         8.78827 
        1.74368         98.5233          8.5905 
        1.75933          96.991         8.39836 
        1.77505         95.7851         8.21114 
        1.79081         94.4115         8.02924 
         1.8065         92.7149         7.85357 
        1.82218         91.8032         7.68327 
        1.83797         91.2333         7.51679 
        1.85367         89.9833         7.35612 
        1.86928         89.4675         7.20105 
        1.88497         87.7317         7.04957 
        1.90073         87.1299         6.90185 
        1.91647         85.5357         6.75844 
        1.93218         84.6845         6.61938 
        1.94787         83.1405         6.48438 
        1.96363         82.7312         6.35259 
        1.97935         81.7173         6.22468 
        1.99499         81.0221         6.10099 
        2.01064         79.8147         5.98044 
         2.0264         78.6805         5.86236 
        2.04216          77.846          5.7475 
        2.05781         76.7236          5.6364 
        2.07353         76.1661         5.52781 
        2.08928           75.25         5.42182 
        2.10499         74.4426         5.31887 
        2.12065         73.4496         5.21886 
        2.13633         72.5815         5.12132 
        2.15211         71.3847         5.02561 
        2.16785         70.6274         4.93259 
        2.18349         69.5652         4.84248 
        2.19916         69.3778         4.75441 
        2.21489         68.3988         4.66822 
        2.23063          67.224         4.58408 
         2.2463         66.4262         4.50237 
        2.26194          66.338         4.42283 
        2.27765         64.8244         4.34479 
        2.29341          64.393         4.26841 
        2.30914         63.4431           4.194 
        2.32486          62.983         4.12139 
        2.34061         61.9531         4.05036 
        2.35635         61.6163         3.98105 
        2.37203         60.4841         3.91358 
        2.38768         60.1549          3.8478 
        2.40339         59.2282         3.78328 
        2.41914         58.4734         3.72007 
        2.43483         58.1532         3.65851 
         2.4505         57.3996         3.59843 
        2.46622         56.8014         3.53948 
        2.48195         56.3548         3.48184 
        2.49759         55.5695         3.42577 
        2.51328         54.8407         3.37077 
        2.52906         54.3703         3.31663 
        2.54479         53.6696         3.26386 
        2.56049         53.0712         3.21233 
        2.57618         52.4927         3.16194 
        2.59189         51.8629         3.11254 
        2.60758         51.3413         3.06427 
        2.62325         50.8482         3.01707 
        2.63898         50.4824         2.97069 
        2.65468         49.6574         2.92537 
        2.67044         49.3241         2.88079 
        2.68618         49.1214         2.83723 
        2.70184         48.2407         2.79474 
        2.71755         47.7893           2.753 
        2.73329         47.0895         2.71204 
        2.74897         46.7419         2.67203 
        2.76462         46.0965         2.63292 
        2.78034         45.7516         2.59441 
        2.79607         45.4177         2.55663 
        2.81179         44.8016         2.51964 
        2.82749         44.4525         2.48341 
        2.84321         43.8164         2.44784 
        2.85893         43.3131         2.41298 
        2.87462         43.2224         2.37884 
        2.89033         42.3374         2.34533 
        2.90605         41.9492         2.31242 
        2.92176         41.6688         2.28016 
        2.93747         41.2799         2.24852 
        2.95318         40.7974         2.21747 
        2.96891         40.3439         2.18698 
        2.98456         39.9015          2.1572 
        3.00023         39.5865         2.12792 
        3.01596         38.9037         2.09909 
        3.03164         38.4836         2.07087 
        3.04738         38.1836         2.04307 
         3.0631         37.8936          2.0158 
        3.07883         37.4975         1.98901 
        3.09456         37.1024         1.96271 
        3.11026         36.8293         1.93692 
        3.12596         36.4676         1.91159 
        3.14163         36.0856         1.88677 
        3.15734          35.665         1.86232 
        3.17308         35.4748         1.83824 
        3.18879         35.0868         1.81465 
        3.20447         34.6519         1.79151 
         3.2202         34.3044         1.76869 
         3.2359         34.0494          1.7463 
        3.25157         33.7648         1.72436 
        3.26729         33.3246         1.70271 
        3.28304         33.0072          1.6814 
        3.29877         32.6195         1.66047 
        3.31446         32.3246         1.63994 
        3.33014         32.0415         1.61977 
        3.34585         31.6638          1.5999 
        3.36158         31.4444         1.58034 
        3.37727         31.0478         1.56115 
        3.39294         30.8013         1.54231 
        3.40867         30.4888          1.5237 
        3.42439         30.1993          1.5054 
        3.44008         29.9844         1.48744 
        3.45578         29.6393         1.46975 
        3.47153         29.3434         1.45231 
        3.48724         29.0461         1.43518 
        3.50292         28.8746         1.41836 
        3.51859         28.5278         1.40182 
        3.53431         28.2755         1.38549 
        3.55007         28.0188         1.36937 
        3.56577         27.7347         1.35357 
        3.58146          27.509         1.33803 
        3.59719         27.2885         1.32269 
        3.61292         27.0673         1.30759 
        3.62859         26.6951         1.29278 
        3.64429         26.4635         1.27817 
        3.66003         26.3332         1.26374 
        3.67578         26.0127         1.24953 
        3.69146         25.7386          1.2356 
        3.70712         25.4817          1.2219 
        3.72284         25.3307         1.20835 
        3.73853         25.1038         1.19503 
        3.75422         24.8264          1.1819 
        3.76993         24.6412         1.16896 
        3.78564         24.4138         1.15622 
        3.80137         24.2567         1.14364 
        3.81707          23.996         1.13127 
        3.83279         23.8157         1.11907 
        3.84853          23.503         1.10704 
        3.86424         23.3749          1.0952 
        3.87992         23.1301         1.08354 
        3.89561         22.8609         1.07206 
        3.91134         22.6636         1.06072 
        3.92704         22.5305         1.04955 
        3.94273          22.337         1.03855 
        3.95845          22.098         1.02769 
        3.97418         21.9119         1.01698 
        3.98988         21.6329         1.00643 
        4.00554         21.4862        0.996063 
        4.02125         21.3144        0.985808 
        4.03698         21.1073        0.975681 
        4.05268         20.9249        0.965717 
        4.06839         20.6927        0.955883 
         4.0841         20.5542        0.946187 
        4.09983         20.3438        0.936611 
        4.11555         20.1682         0.92717 
        4.13124         19.9952        0.917883 
        4.14693         19.8558        0.908714 
        4.16266         19.6462        0.899648 
        4.17839         19.5301        0.890709 
        4.19408         19.3402        0.881911 
        4.20977         19.1989        0.873226 
        4.22551         19.0432        0.864636 
        4.24123         18.8546        0.856169 
        4.25691         18.7131        0.847838 
        4.27259         18.5823        0.839613 
        4.28831          18.402        0.831479 
        4.30404         18.2497        0.823445 
        4.31974         18.0791        0.815532 
        4.33543         17.9633        0.807727 
        4.35116         17.8235        0.800004 
        4.36688          17.641        0.792384 
        4.38255         17.5271         0.78489 
        4.39825         17.3834        0.777476 
        4.41398         17.1919        0.770142 
         4.4297         17.0362        0.762909 
        4.44541         16.9605        0.755769 
        4.46111         16.7719        0.748725 
        4.47683          16.664        0.741765 
        4.49251         16.5091        0.734906 
        4.50819         16.3595        0.728135 
         4.5239          16.253        0.721438 
        4.53962         16.0979        0.714816 
        4.55535         16.0043        0.708273 
        4.57106         15.8416        0.701821 
        4.58678         15.6999        0.695446 
         4.6025         15.6007        0.689149 
        4.61821         15.4402        0.682929 
        4.63391         15.3435        0.676793 
         4.6496         15.2184        0.670734 
        4.66532         15.0697         0.66474 
        4.68103         14.9848         0.65882 
        4.69673          14.838        0.652977 
        4.71241         14.7408         0.64721 
        4.72811          14.627        0.641503 
        4.74384         14.5005        0.635856 
        4.75955         14.3881        0.630285 
        4.77525         14.2959        0.624782 
        4.79096         14.1738        0.619339 
        4.80669         14.0635        0.613956 
         4.8224          13.955        0.608643 
        4.83809         13.8158        0.603398 
        4.85379         13.7134         0.59821 
         4.8695         13.6165        0.593079 
        4.88521         13.4886        0.588009 
        4.90093         13.4286        0.582997 
        4.91663         13.3067        0.578048 
        4.93234         13.1882         0.57315 
        4.94807         13.0902        0.568304 
        4.96377         12.9752        0.563523 
        4.97943         12.8721        0.558807 
        4.99514         12.7665        0.554132 
        5.01086         12.6993        0.549506 
        5.02654         12.5798        0.544944 
        5.04227         12.5024        0.540419 
          5.058         12.3685        0.535944 
        5.07371         12.2969        0.531527 
        5.08942         12.2126        0.527159 
        5.10513         12.1364        0.522839 
        5.12084         12.0406        0.518565 
        5.13656         11.9419        0.514338 
        5.15225         11.8294        0.510166 
        5.16796         11.7474        0.506032 
        5.18369         11.6554         0.50194 
         5.1994         11.5693          0.4979 
        5.21509         11.4897        0.493908 
        5.23079         11.4184        0.489954 
        5.24649         11.3479        0.486046 
        5.26217         11.2303        0.482183 
        5.27788         11.1664        0.478356 
        5.29359         11.0566        0.474569 
        5.30933         11.0095        0.470818 
        5.32504         10.9226        0.467112 
        5.34073         10.8462        0.463451 
        5.35646         10.7509         0.45982 
        5.37218         10.6806        0.456228 
        5.38789         10.6171        0.452679 
        5.40357         10.5245        0.449171 
        5.41929         10.4557        0.445693 
        5.43502         10.3722         0.44225 
         5.4507         10.3116        0.438852 
        5.46639         10.2283        0.435488 
        5.48212         10.1537        0.432152 
        5.49786         10.0918        0.428845 
        5.51353         10.0186         0.42559 
        5.52921         9.92945        0.422365 
        5.54495         9.86586        0.419163 
        5.56066         9.78955        0.415997 
        5.57637         9.72117        0.412865 
        5.59207         9.67921        0.409766 
        5.60778         9.59006        0.406699 
        5.62346         9.51918        0.403666 
        5.63916         9.47243        0.400661 
        5.65487         9.39105        0.397685 
         5.6706          9.3119        0.394735 
        5.68633         9.25465        0.391814 
        5.70203         9.19468        0.388928 
        5.71773         9.12536        0.386071 
        5.73344         9.06953        0.383241 
        5.74916         8.99672        0.380436 
        5.76486         8.96217        0.377663 
        5.78054         8.86752        0.374922 
        5.79626         8.80699        0.372199 
          5.812         8.76284        0.369501 
         5.8277         8.68243        0.366837 
        5.84339         8.62992        0.364199 
        5.85911         8.58192        0.361582 
        5.87484         8.52044         0.35899 
        5.89053         8.46359        0.356429 
        5.90623         8.40666        0.353891 
        5.92195         8.32595        0.351374 
        5.93767         8.27731        0.348881 
        5.95336         8.22754        0.346417 
        5.96905         8.17067        0.343977 
        5.98476         8.11873        0.341558 
        6.00048         8.06835         0.33916 
        6.01617         8.01403        0.336788 
        6.03185         7.94941        0.334442 
        6.04756         7.89602        0.332112 
        6.06331         7.84742        0.329799 
        6.07903         7.79267        0.327512 
        6.09473         7.75099        0.325249 
        6.11044         7.70657        0.323006 
        6.12616         7.64434        0.320783 
        6.14186          7.5833        0.318583 
        6.15755         7.55087        0.316404 
        6.17326         7.49869        0.314244 
        6.18898         7.44583        0.312102 
        6.20467         7.39197        0.309984 
        6.22036         7.34765        0.307885 
         6.2361         7.29142          0.3058 
         6.2518         7.25881        0.303738 
        6.26748         7.20784        0.301698 
        6.28319         7.15759        0.299672 
        6.29893         7.11159        0.297662 
        6.31463         7.05813        0.295674 
        6.33033         7.01544        0.293705 
        6.34604         6.97565        0.291751 
        6.36177          6.9377        0.289814 
        6.37747         6.88566        0.287897 
