# k  (h/Mpc)    Pcb(k)  (Mpc/h)^3    Pcb_linear(k) (Mpc/h)^3   ShotnoiseSubtracted = true
      0.0200456          1129.6         1141.65 
      0.0350414         742.191         729.863 
      0.0492313         486.665         483.982 
      0.0637834         384.059         386.415 
      0.0800726         298.187         302.168 
       0.096163         212.788         208.963 
       0.111083         161.805         157.932 
       0.126058         137.766         138.152 
       0.142273         117.099         118.085 
       0.158546         91.7932         91.0533 
        0.17375          75.111         73.4524 
       0.188953         66.5601         65.5942 
       0.204907         57.9342         58.7568 
       0.220756         49.9172         49.3665 
        0.23588         42.3158         41.6369 
         0.2514          37.702         37.1326 
       0.267535           34.48         33.7978 
       0.283568         30.3297         29.8181 
       0.299022         26.8425         26.0804 
       0.314451          24.605         23.4355 
       0.330372         22.1631         21.4707 
       0.346141         20.1364         19.5155 
       0.361624          18.156         17.5707 
       0.377134         16.4573         15.9594 
       0.392932         15.5933         14.6858 
       0.408854         14.0707         13.5282 
       0.424564         13.2452         12.4104 
       0.440253         12.0037         11.4045 
       0.455999         10.9325         10.5591 
       0.471626         10.2148         9.82132 
        0.48727         9.74067         9.12517 
       0.502856         9.08987         8.48315 
       0.518488          8.3137         7.91144 
       0.534347         7.73737         7.39642 
       0.550082         7.38152         6.92619 
       0.565732          7.0131         6.49113 
       0.581496         6.54826          6.0909 
       0.597222         6.14403         5.72915 
       0.612804         5.75587         5.39991 
       0.628434         5.52524         5.09345 
       0.644267          5.2191         4.80569 
       0.660051         4.91613         4.54196 
       0.675724         4.62725         4.30025 
       0.691403         4.43694         4.07575 
       0.707174         4.19937         3.86577 
       0.722871         4.07452         3.67118 
        0.73838          3.7947         3.49185 
       0.754018         3.60105         3.32297 
       0.769845          3.4155         3.16326 
        0.78569         3.31535         3.01377 
       0.801365         3.15665         2.87528 
       0.817031         3.02689         2.74549 
       0.832809         2.86562         2.62283 
       0.848511         2.76882         2.50815 
       0.864097         2.65806         2.40106 
       0.879701         2.57348         2.30008 
       0.895507         2.44544         2.20368 
       0.911279         2.35408         2.11297 
        0.92691         2.27578         2.02807 
       0.942635         2.16134         1.94733 
       0.958396         2.09278         1.87079 
       0.974128         2.02354         1.79847 
       0.989692         1.92618         1.73065 
        1.00528         1.87095         1.66621 
        1.02113         1.80814         1.60401 
        1.03692         1.76046         1.54519 
        1.05264         1.67576         1.48956 
        1.06832         1.62631         1.43674 
        1.08405         1.56443         1.38631 
        1.09979         1.52159         1.33825 
        1.11537         1.46764         1.29293 
        1.13105         1.41056         1.24942 
        1.14679         1.37254         1.20773 
        1.16256         1.32581         1.16784 
        1.17828         1.29947         1.12986 
        1.19395         1.24699         1.09369 
         1.2097         1.20653         1.05891 
        1.22537         1.16419         1.02579 
          1.241         1.13612        0.994176 
        1.25666         1.11212        0.963804 
        1.27241         1.07918        0.934547 
        1.28819         1.03317        0.906445 
        1.30392         1.00664         0.87957 
        1.31957        0.985299        0.853894 
        1.33529        0.942724         0.82914 
        1.35108        0.923324         0.80526 
        1.36674        0.896393        0.782484 
         1.3824        0.882217          0.7606 
        1.39811         0.85442        0.739474 
        1.41389        0.829193        0.719062 
        1.42964        0.805487        0.699448 
        1.44531        0.787495        0.680655 
        1.46101        0.764614        0.662505 
        1.47667        0.748625        0.645066 
        1.49229        0.721654        0.628295 
        1.50793        0.701877        0.612095 
        1.52367        0.686867        0.596357 
        1.53953        0.665807        0.581063 
        1.55526        0.657746        0.566421 
        1.57092        0.643863        0.552339 
        1.58662        0.632607        0.538698 
        1.60235        0.608947        0.525487 
        1.61809        0.595384        0.512708 
        1.63369        0.577643        0.500463 
        1.64941        0.568167        0.488527 
        1.66519        0.556817        0.476933 
        1.68085        0.540637        0.465795 
        1.69652        0.528865        0.455005 
        1.71228        0.515748        0.444492 
        1.72806        0.505446          0.4343 
        1.74368        0.493683        0.424527 
        1.75933        0.484386        0.415032 
        1.77505        0.474888         0.40578 
        1.79081        0.458411        0.396791 
         1.8065        0.454038        0.388109 
        1.82218        0.440783        0.379693 
        1.83797        0.429299        0.371466 
        1.85367        0.424115        0.363526 
        1.86928        0.413629        0.355863 
        1.88497        0.403329        0.348377 
        1.90073        0.399215        0.341077 
        1.91647        0.386768         0.33399 
        1.93218        0.380456        0.327117 
        1.94787        0.373053        0.320446 
        1.96363        0.365563        0.313933 
        1.97935        0.357492        0.307613 
        1.99499        0.351049          0.3015 
        2.01064        0.343675        0.295543 
         2.0264        0.334793        0.289707 
        2.04216        0.329834        0.284031 
        2.05781        0.323596        0.278541 
        2.07353        0.316916        0.273175 
        2.08928        0.311973        0.267937 
        2.10499        0.305489        0.262849 
        2.12065        0.298755        0.257907 
        2.13633        0.294412        0.253086 
        2.15211        0.286656        0.248356 
        2.16785        0.283316         0.24376 
        2.18349        0.277432        0.239307 
        2.19916        0.272721        0.234954 
        2.21489        0.267124        0.230695 
        2.23063        0.261682        0.226537 
         2.2463        0.257152        0.222499 
        2.26194         0.25327        0.218568 
        2.27765        0.248757        0.214712 
        2.29341        0.244017        0.210937 
        2.30914        0.238304         0.20726 
        2.32486        0.235284        0.203672 
        2.34061        0.229786        0.200162 
        2.35635        0.226471        0.196736 
        2.37203        0.223552        0.193402 
        2.38768        0.219852        0.190151 
        2.40339        0.215549        0.186963 
        2.41914        0.212286        0.183839 
        2.43483        0.208219        0.180797 
         2.4505        0.204731        0.177828 
        2.46622        0.201377        0.174915 
        2.48195         0.19748        0.172066 
        2.49759        0.195273        0.169295 
        2.51328        0.190914        0.166578 
        2.52906        0.188503        0.163902 
        2.54479        0.184678        0.161294 
        2.56049        0.181915        0.158747 
        2.57618        0.179742        0.156257 
        2.59189        0.175939        0.153816 
        2.60758        0.174005        0.151431 
        2.62325        0.171175        0.149098 
        2.63898        0.168793        0.146806 
        2.65468        0.164719        0.144566 
        2.67044        0.162538        0.142363 
        2.68618        0.160621        0.140211 
        2.70184        0.157872        0.138111 
        2.71755        0.155206        0.136048 
        2.73329        0.153497        0.134024 
        2.74897        0.150474        0.132047 
        2.76462        0.148742        0.130114 
        2.78034        0.146033        0.128211 
        2.79607        0.144251        0.126344 
        2.81179        0.141425        0.124516 
        2.82749        0.139753        0.122725 
        2.84321         0.13754        0.120968 
        2.85893        0.135754        0.119245 
        2.87462        0.133395        0.117558 
        2.89033        0.132069        0.115902 
        2.90605        0.129972        0.114276 
        2.92176        0.128533        0.112681 
        2.93747        0.126203        0.111118 
        2.95318        0.124634        0.109583 
        2.96891        0.123242        0.108077 
        2.98456        0.121419        0.106605 
        3.00023        0.119585        0.105158 
        3.01596        0.117748        0.103733 
        3.03164        0.116194        0.102338 
        3.04738        0.115077        0.100965 
         3.0631        0.113206        0.099617 
        3.07883        0.111631       0.0982933 
        3.09456        0.110427       0.0969935 
        3.11026        0.108996        0.095719 
        3.12596        0.107241       0.0944672 
        3.14163        0.105862       0.0932405 
        3.15734        0.104951       0.0920324 
        3.17308         0.10369       0.0908426 
        3.18879        0.101997       0.0896769 
        3.20447        0.100676       0.0885331 
         3.2202       0.0997888       0.0874054 
         3.2359       0.0981578       0.0862992 
        3.25157       0.0966737       0.0852145 
        3.26729       0.0960791        0.084145 
        3.28304       0.0949822       0.0830915 
        3.29877       0.0935225       0.0820572 
        3.31446       0.0926925       0.0810426 
        3.33014       0.0913536       0.0800459 
        3.34585       0.0904123       0.0790642 
        3.36158       0.0895493       0.0780973 
        3.37727         0.08837       0.0771494 
        3.39294       0.0876239       0.0762179 
        3.40867       0.0862462       0.0752983 
        3.42439        0.085614       0.0743942 
        3.44008       0.0847489       0.0735065 
        3.45578       0.0838344       0.0726325 
        3.47153       0.0829133       0.0717706 
        3.48724       0.0820913       0.0709241 
        3.50292        0.081498        0.070093 
        3.51859        0.080374       0.0692754 
        3.53431       0.0796342       0.0684683 
        3.55007       0.0789167       0.0676718 
        3.56577       0.0783059       0.0668911 
        3.58146       0.0772917       0.0661228 
        3.59719       0.0766234       0.0653647 
        3.61292       0.0757519       0.0646186 
        3.62859       0.0752416       0.0638868 
        3.64429       0.0742116       0.0631648 
        3.66003       0.0737656       0.0624517 
        3.67578       0.0730445       0.0617497 
        3.69146       0.0724554        0.061061 
        3.70712       0.0718158       0.0603839 
        3.72284       0.0712201       0.0597145 
        3.73853       0.0705669       0.0590563 
        3.75422       0.0699086       0.0584076 
        3.76993       0.0693444        0.057768 
        3.78564       0.0687392       0.0571381 
        3.80137       0.0682704       0.0565165 
        3.81707       0.0675926       0.0559053 
        3.83279       0.0670286       0.0553026 
        3.84853       0.0664113       0.0547077 
        3.86424       0.0658676       0.0541226 
        3.87992       0.0653332       0.0535468 
        3.89561       0.0648295       0.0529792 
        3.91134        0.064215       0.0524187 
        3.92704       0.0635959       0.0518668 
        3.94273       0.0631197       0.0513233 
        3.95845       0.0624278       0.0507865 
        3.97418       0.0620733       0.0502572 
        3.98988       0.0613745        0.049736 
        4.00554       0.0606374       0.0492236 
        4.02125        0.060127       0.0487168 
        4.03698       0.0594106       0.0482164 
        4.05268       0.0585838        0.047724 
        4.06839       0.0578185        0.047238 
         4.0841       0.0570797       0.0467589 
        4.09983       0.0564318       0.0462856 
        4.11555       0.0556111       0.0458191 
        4.13124       0.0547899       0.0453601 
        4.14693       0.0542556        0.044907 
        4.16266       0.0536612        0.044459 
        4.17839       0.0529978       0.0440172 
        4.19408       0.0522099       0.0435824 
        4.20977       0.0517807       0.0431532 
        4.22551       0.0511269       0.0427287 
        4.24123       0.0505729       0.0423103 
        4.25691       0.0501912       0.0418986 
        4.27259       0.0495363       0.0414921 
        4.28831       0.0492605       0.0410902 
        4.30404        0.048609       0.0406931 
        4.31974       0.0482184       0.0403021 
        4.33543          0.0479       0.0399164 
        4.35116       0.0474822       0.0395348 
        4.36688       0.0471221       0.0391582 
        4.38255         0.04669       0.0387879 
        4.39825       0.0464943       0.0384215 
        4.41398       0.0460807        0.038059 
         4.4297       0.0459467       0.0377016 
        4.44541       0.0455737       0.0373487 
        4.46111       0.0452009       0.0370006 
        4.47683       0.0450458       0.0366567 
        4.49251       0.0447698       0.0363177 
        4.50819       0.0447736       0.0359831 
         4.5239       0.0444807       0.0356522 
        4.53962       0.0442971       0.0353249 
        4.55535       0.0441677       0.0350016 
        4.57106        0.044043       0.0346827 
        4.58678       0.0439271       0.0343677 
         4.6025        0.043988       0.0340565 
        4.61821       0.0438889       0.0337491 
        4.63391       0.0438323       0.0334459 
         4.6496       0.0438074       0.0331465 
        4.66532       0.0437356       0.0328502 
        4.68103        0.043756       0.0325577 
        4.69673       0.0438655       0.0322689 
        4.71241       0.0438099        0.031984 
        4.72811       0.0439341       0.0317019 
        4.74384       0.0438978       0.0314228 
        4.75955       0.0440755       0.0311475 
        4.77525       0.0441917       0.0308756 
        4.79096       0.0442901       0.0306066 
        4.80669       0.0442975       0.0303406 
         4.8224       0.0445498        0.030078 
        4.83809       0.0447275       0.0298188 
        4.85379       0.0450666       0.0295625 
         4.8695       0.0450672       0.0293089 
        4.88521       0.0453609       0.0290583 
        4.90093       0.0457911       0.0288107 
        4.91663       0.0459364       0.0285661 
        4.93234       0.0461613        0.028324 
        4.94807       0.0465747       0.0280846 
        4.96377       0.0468912       0.0278483 
        4.97943       0.0474714       0.0276152 
        4.99514       0.0474054       0.0273842 
        5.01086       0.0479861       0.0271556 
        5.02654        0.048508       0.0269301 
        5.04227       0.0487923       0.0267065 
          5.058       0.0494924       0.0264854 
        5.07371       0.0498119       0.0262671 
        5.08942       0.0506029       0.0260512 
        5.10513       0.0508876       0.0258377 
        5.12084        0.051329       0.0256265 
        5.13656       0.0519978       0.0254177 
        5.15225       0.0526488       0.0252115 
        5.16796       0.0531818       0.0250072 
        5.18369       0.0539291        0.024805 
         5.1994       0.0548035       0.0246053 
        5.21509       0.0553197        0.024408 
        5.23079       0.0562588       0.0242126 
        5.24649       0.0569787       0.0240195 
        5.26217       0.0577704       0.0238286 
        5.27788       0.0584298       0.0236395 
        5.29359        0.059159       0.0234524 
        5.30933       0.0605323        0.023267 
        5.32504       0.0611701       0.0230838 
        5.34073       0.0621302       0.0229029 
        5.35646       0.0629434       0.0227235 
        5.37218        0.064383       0.0225459 
        5.38789       0.0650663       0.0223706 
        5.40357       0.0658161       0.0221972 
        5.41929       0.0669821       0.0220253 
        5.43502       0.0686151       0.0218552 
         5.4507       0.0697986       0.0216873 
        5.46639        0.070802        0.021521 
        5.48212       0.0720113       0.0213561 
        5.49786        0.073426       0.0211928 
        5.51353       0.0752168       0.0210319 
        5.52921       0.0759269       0.0208725 
        5.54495        0.077666       0.0207143 
        5.56066       0.0792813       0.0205578 
        5.57637       0.0806558        0.020403 
        5.59207       0.0817632       0.0202499 
        5.60778       0.0837278       0.0200983 
        5.62346       0.0855082       0.0199484 
        5.63916       0.0865881       0.0197999 
        5.65487       0.0890773       0.0196529 
         5.6706       0.0903629       0.0195071 
        5.68633       0.0925767       0.0193627 
        5.70203       0.0946482       0.0192201 
        5.71773       0.0967213       0.0190789 
        5.73344       0.0981422       0.0189391 
        5.74916        0.100285       0.0188005 
        5.76486         0.10281       0.0186634 
        5.78054         0.10444        0.018528 
        5.79626        0.106675       0.0183934 
          5.812        0.109511       0.0182601 
         5.8277        0.111505       0.0181284 
        5.84339        0.113426       0.0179981 
        5.85911        0.116086       0.0178687 
        5.87484        0.118126       0.0177407 
        5.89053        0.121645       0.0176141 
        5.90623        0.123612       0.0174887 
        5.92195        0.127063       0.0173642 
        5.93767        0.129502       0.0172411 
        5.95336        0.132405       0.0171193 
        5.96905        0.134849       0.0169987 
        5.98476        0.136946       0.0168792 
        6.00048         0.14034       0.0167607 
        6.01617        0.144145       0.0166435 
        6.03185        0.147292       0.0165275 
        6.04756        0.149539       0.0164123 
        6.06331        0.153777        0.016298 
        6.07903        0.158272       0.0161851 
        6.09473        0.160168       0.0160732 
        6.11044         0.16476       0.0159623 
        6.12616        0.166048       0.0158525 
        6.14186        0.171147       0.0157438 
        6.15755        0.175607       0.0156361 
        6.17326        0.178752       0.0155293 
        6.18898        0.182042       0.0154235 
        6.20467        0.186539       0.0153188 
        6.22036        0.189749       0.0152151 
         6.2361        0.191589       0.0151121 
         6.2518        0.197766       0.0150102 
        6.26748        0.201731       0.0149094 
        6.28319        0.206904       0.0148092 
        6.29893        0.211062       0.0147099 
        6.31463        0.215649       0.0146117 
        6.33033        0.218682       0.0145143 
        6.34604        0.224735       0.0144178 
        6.36177        0.228755       0.0143221 
        6.37747        0.233306       0.0142274 
