# k  (h/Mpc)    Pcb(k)  (Mpc/h)^3    Pcb_linear(k) (Mpc/h)^3   ShotnoiseSubtracted = true
      0.0200456         516.713          522.63 
      0.0350414         350.149         349.917 
      0.0492313         246.007         244.905 
      0.0637834         199.247         198.117 
      0.0800726         151.419         150.412 
       0.096163         106.107         105.969 
       0.111083         84.2415         84.5201 
       0.126058         74.1764         74.0663 
       0.142273         60.9342         60.4727 
       0.158546         47.4956         46.9448 
        0.17375         39.8561         39.9206 
       0.188953         36.0118         35.8818 
       0.204907         31.5882         30.8497 
       0.220756         26.1219         25.7393 
        0.23588         22.8396         22.5586 
         0.2514         20.5288         20.4388 
       0.267535         18.2937         18.1195 
       0.283568         16.0086         15.7829 
       0.299022          14.366         14.1027 
       0.314451         12.8985         12.8748 
       0.330372         11.7831         11.6595 
       0.346141         10.5999         10.4746 
       0.361624         9.66823         9.51039 
       0.377134         8.94309          8.7405 
       0.392932         8.00006         8.02577 
       0.408854         7.50464         7.33876 
       0.424564         6.86019         6.74348 
       0.440253         6.34369         6.23932 
       0.455999         5.91895         5.78435 
       0.471626         5.52028          5.3628 
        0.48727         5.10109         4.98086 
       0.502856         4.73418         4.64474 
       0.518488         4.48729         4.33982 
       0.534347         4.23591         4.05436 
       0.550082         3.87654         3.79437 
       0.565732         3.58002         3.56046 
       0.581496         3.44794         3.34539 
       0.597222         3.26367         3.14757 
       0.612804          3.0473         2.96634 
       0.628434         2.91351         2.79917 
       0.644267          2.7416         2.64336 
       0.660051         2.57787          2.4997 
       0.675724         2.44842         2.36739 
       0.691403         2.34009         2.24445 
       0.707174         2.20747         2.12945 
       0.722871         2.09209         2.02287 
        0.73838         2.00433         1.92465 
       0.754018         1.92848         1.83213 
       0.769845         1.82157         1.74464 
        0.78569         1.74027         1.66272 
       0.801365         1.65648         1.58682 
       0.817031         1.58901         1.51567 
       0.832809         1.51947         1.44841 
       0.848511         1.44277         1.38549 
       0.864097         1.37575         1.32671 
       0.879701         1.32094         1.27126 
       0.895507           1.271          1.2183 
       0.911279         1.23181         1.16845 
        0.92691         1.17801         1.12177 
       0.942635         1.12889         1.07736 
       0.958396         1.08093         1.03525 
       0.974128         1.04116        0.995443 
       0.989692         1.01001        0.958105 
        1.00528        0.967949        0.922611 
        1.02113        0.925634        0.888346 
        1.03692        0.902169        0.855934 
        1.05264        0.867622        0.825274 
        1.06832        0.840485        0.796152 
        1.08405        0.800667        0.768347 
        1.09979        0.776889        0.741842 
        1.11537        0.755413        0.716839 
        1.13105        0.731587        0.692831 
        1.14679        0.710303        0.669821 
        1.16256        0.679628        0.647802 
        1.17828        0.659458        0.626837 
        1.19395        0.637831        0.606863 
         1.2097        0.611263        0.587651 
        1.22537        0.599888        0.569356 
          1.241        0.581393        0.551888 
        1.25666        0.570294        0.535104 
        1.27241        0.544312        0.518933 
        1.28819        0.528707        0.503397 
        1.30392        0.516019        0.488537 
        1.31957        0.501515        0.474337 
        1.33529        0.484767        0.460645 
        1.35108        0.470398        0.447434 
        1.36674        0.453295        0.434831 
         1.3824        0.446424        0.422721 
        1.39811        0.432178        0.411028 
        1.41389        0.421934        0.399728 
        1.42964        0.411032        0.388868 
        1.44531        0.396859        0.378461 
        1.46101        0.388942         0.36841 
        1.47667        0.373542        0.358749 
        1.49229        0.369033        0.349458 
        1.50793        0.356555        0.340483 
        1.52367        0.348939        0.331762 
        1.53953        0.338669        0.323285 
        1.55526        0.330874         0.31517 
        1.57092        0.321236        0.307363 
        1.58662        0.315057        0.299801 
        1.60235        0.307453        0.292475 
        1.61809        0.296943        0.285389 
        1.63369        0.294974        0.278597 
        1.64941        0.284733        0.271977 
        1.66519        0.277456        0.265545 
        1.68085        0.270144        0.259365 
        1.69652        0.264191        0.253378 
        1.71228        0.259444        0.247545 
        1.72806        0.250956        0.241888 
        1.74368        0.248148        0.236463 
        1.75933        0.241107        0.231193 
        1.77505        0.235681        0.226056 
        1.79081        0.231084        0.221065 
         1.8065        0.223979        0.216245 
        1.82218        0.220377        0.211571 
        1.83797        0.214892        0.207002 
        1.85367        0.211958        0.202592 
        1.86928        0.206626        0.198336 
        1.88497         0.20212        0.194177 
        1.90073        0.197384        0.190121 
        1.91647        0.193786        0.186183 
        1.93218        0.188823        0.182365 
        1.94787        0.185158        0.178657 
        1.96363        0.181288        0.175038 
        1.97935        0.176997        0.171524 
        1.99499        0.173842        0.168126 
        2.01064        0.170282        0.164815 
         2.0264        0.166131        0.161571 
        2.04216        0.164284        0.158414 
        2.05781        0.160516        0.155362 
        2.07353        0.156081        0.152377 
        2.08928        0.153034        0.149464 
        2.10499        0.150751        0.146635 
        2.12065        0.148252        0.143886 
        2.13633        0.145056        0.141204 
        2.15211        0.142564        0.138573 
        2.16785        0.139166        0.136016 
        2.18349        0.136117        0.133538 
        2.19916        0.134501        0.131116 
        2.21489        0.131653        0.128746 
        2.23063        0.129579        0.126432 
         2.2463        0.126858        0.124185 
        2.26194        0.123806        0.121997 
        2.27765        0.121836        0.119851 
        2.29341        0.119953        0.117749 
        2.30914        0.117753        0.115702 
        2.32486        0.115436        0.113705 
        2.34061        0.113464         0.11175 
        2.35635        0.110938        0.109843 
        2.37203        0.109225        0.107987 
        2.38768         0.10714        0.106176 
        2.40339        0.105729        0.104401 
        2.41914        0.104045        0.102661 
        2.43483        0.102107        0.100967 
         2.4505       0.0995939        0.099313 
        2.46622        0.098001       0.0976903 
        2.48195       0.0965589       0.0961033 
        2.49759       0.0952735       0.0945597 
        2.51328       0.0934803       0.0930456 
        2.52906        0.092046       0.0915547 
        2.54479       0.0901629       0.0901017 
        2.56049       0.0884979       0.0886827 
        2.57618       0.0870232       0.0872951 
        2.59189       0.0860044       0.0859349 
        2.60758       0.0848114       0.0846054 
        2.62325        0.082983       0.0833054 
        2.63898       0.0817278       0.0820278 
        2.65468       0.0800494       0.0807794 
        2.67044       0.0792101       0.0795514 
        2.68618       0.0778875       0.0783515 
        2.70184        0.076466       0.0771808 
        2.71755       0.0750434       0.0760309 
        2.73329       0.0741116       0.0749024 
        2.74897       0.0730707       0.0738002 
        2.76462       0.0718189       0.0727224 
        2.78034       0.0707728       0.0716614 
        2.79607       0.0693661       0.0706203 
        2.81179       0.0687932       0.0696007 
        2.82749        0.067348       0.0686023 
        2.84321       0.0664823       0.0676221 
        2.85893        0.065732       0.0666611 
        2.87462       0.0646677       0.0657202 
        2.89033        0.063621       0.0647965 
        2.90605       0.0623912       0.0638895 
        2.92176       0.0617918       0.0630001 
        2.93747       0.0606377       0.0621279 
        2.95318         0.05987       0.0612719 
        2.96891       0.0589704       0.0604314 
        2.98456       0.0580929       0.0596102 
        3.00023       0.0573924       0.0588029 
        3.01596       0.0564921       0.0580079 
        3.03164       0.0559717       0.0572297 
        3.04738       0.0548201       0.0564633 
         3.0631       0.0541856       0.0557111 
        3.07883        0.053349       0.0549724 
        3.09456       0.0526467        0.054247 
        3.11026       0.0518338       0.0535357 
        3.12596       0.0512071       0.0528371 
        3.14163       0.0505061       0.0521524 
        3.15734       0.0499742       0.0514782 
        3.17308       0.0493331        0.050814 
        3.18879        0.048559       0.0501633 
        3.20447       0.0477915       0.0495248 
         3.2202       0.0474916       0.0488953 
         3.2359       0.0467675       0.0482778 
        3.25157       0.0460278       0.0476722 
        3.26729       0.0453494       0.0470751 
        3.28304       0.0450503        0.046487 
        3.29877       0.0443537       0.0459095 
        3.31446       0.0437785        0.045343 
        3.33014       0.0433748       0.0447865 
        3.34585        0.042909       0.0442383 
        3.36158       0.0423481       0.0436984 
        3.37727       0.0418512        0.043169 
        3.39294       0.0412385       0.0426489 
        3.40867       0.0407636       0.0421353 
        3.42439       0.0402772       0.0416304 
        3.44008        0.039685       0.0411346 
        3.45578       0.0394534       0.0406465 
        3.47153       0.0388414       0.0401651 
        3.48724        0.038531       0.0396922 
        3.50292       0.0380247        0.039228 
        3.51859       0.0375782       0.0387713 
        3.53431        0.037128       0.0383205 
        3.55007       0.0368246       0.0378756 
        3.56577       0.0363745       0.0374394 
        3.58146       0.0360489       0.0370102 
        3.59719       0.0356982       0.0365867 
        3.61292       0.0353349       0.0361698 
        3.62859       0.0348989        0.035761 
        3.64429       0.0345286       0.0353576 
        3.66003       0.0342562       0.0349592 
        3.67578       0.0337761       0.0345669 
        3.69146       0.0333948       0.0341821 
        3.70712       0.0332697       0.0338038 
        3.72284       0.0329513       0.0334297 
        3.73853        0.032563       0.0330619 
        3.75422        0.032311       0.0326994 
        3.76993       0.0318361       0.0323419 
        3.78564       0.0316535       0.0319899 
        3.80137       0.0313139       0.0316425 
        3.81707       0.0310424        0.031301 
        3.83279       0.0308426       0.0309641 
        3.84853       0.0305166       0.0306316 
        3.86424       0.0302145       0.0303046 
        3.87992       0.0299012       0.0299827 
        3.89561       0.0296098       0.0296655 
        3.91134       0.0293962       0.0293522 
        3.92704       0.0291235       0.0290436 
        3.94273       0.0288073       0.0287398 
        3.95845       0.0285951       0.0284398 
        3.97418       0.0283888       0.0281439 
        3.98988       0.0279957       0.0278525 
        4.00554         0.02782        0.027566 
        4.02125       0.0274437       0.0272827 
        4.03698       0.0270341       0.0270029 
        4.05268       0.0266937       0.0267276 
        4.06839       0.0264311       0.0264559 
         4.0841       0.0260053        0.026188 
        4.09983       0.0257109       0.0259234 
        4.11555       0.0253152       0.0256625 
        4.13124       0.0249888       0.0254059 
        4.14693       0.0246876       0.0251525 
        4.16266       0.0244181        0.024902 
        4.17839       0.0241433        0.024655 
        4.19408       0.0238563       0.0244119 
        4.20977       0.0235884       0.0241718 
        4.22551       0.0233127       0.0239344 
        4.24123       0.0230912       0.0237005 
        4.25691       0.0228271       0.0234702 
        4.27259       0.0226104       0.0232429 
        4.28831       0.0223919       0.0230181 
        4.30404       0.0222215        0.022796 
        4.31974       0.0220287       0.0225773 
        4.33543         0.02188       0.0223616 
        4.35116       0.0217095       0.0221481 
        4.36688       0.0215048       0.0219375 
        4.38255        0.021379       0.0217303 
        4.39825       0.0212355       0.0215254 
        4.41398       0.0211443       0.0213226 
         4.4297       0.0210738       0.0211227 
        4.44541       0.0209003       0.0209253 
        4.46111        0.020856       0.0207306 
        4.47683       0.0207285       0.0205382 
        4.49251       0.0206311       0.0203485 
        4.50819       0.0205565       0.0201613 
         4.5239       0.0204925       0.0199762 
        4.53962       0.0204572       0.0197931 
        4.55535       0.0203999       0.0196122 
        4.57106       0.0204141       0.0194338 
        4.58678       0.0202898       0.0192576 
         4.6025       0.0203474       0.0190834 
        4.61821       0.0204231       0.0189115 
        4.63391       0.0203816       0.0187418 
         4.6496       0.0203452       0.0185743 
        4.66532       0.0204144       0.0184085 
        4.68103       0.0204245       0.0182448 
        4.69673        0.020464       0.0180832 
        4.71241       0.0205226       0.0179238 
        4.72811       0.0205557       0.0177659 
        4.74384       0.0206191       0.0176098 
        4.75955       0.0207377       0.0174557 
        4.77525       0.0208378       0.0173035 
        4.79096       0.0208835        0.017153 
        4.80669       0.0209362       0.0170041 
         4.8224       0.0211578       0.0168572 
        4.83809       0.0212748       0.0167121 
        4.85379       0.0213645       0.0165686 
         4.8695       0.0216001       0.0164267 
        4.88521       0.0216636       0.0162865 
        4.90093       0.0219439       0.0161479 
        4.91663       0.0221037        0.016011 
        4.93234       0.0221531       0.0158755 
        4.94807       0.0223788       0.0157415 
        4.96377       0.0226568       0.0156092 
        4.97943       0.0229478       0.0154788 
        4.99514       0.0230039       0.0153494 
        5.01086       0.0233345       0.0152215 
        5.02654       0.0235849       0.0150953 
        5.04227       0.0237753       0.0149701 
          5.058       0.0241411       0.0148463 
        5.07371       0.0244184       0.0147241 
        5.08942       0.0246912       0.0146033 
        5.10513        0.025052       0.0144838 
        5.12084       0.0253997       0.0143655 
        5.13656       0.0256818       0.0142486 
        5.15225       0.0260447       0.0141332 
        5.16796       0.0264141       0.0140188 
        5.18369       0.0267599       0.0139056 
         5.1994       0.0271942       0.0137938 
        5.21509       0.0274831       0.0136834 
        5.23079       0.0279065        0.013574 
        5.24649       0.0284018       0.0134658 
        5.26217       0.0289056       0.0133589 
        5.27788       0.0293505       0.0132531 
        5.29359       0.0298438       0.0131483 
        5.30933       0.0303105       0.0130445 
        5.32504       0.0308073       0.0129419 
        5.34073       0.0313645       0.0128406 
        5.35646       0.0319816       0.0127402 
        5.37218       0.0324304       0.0126407 
        5.38789       0.0332524       0.0125425 
        5.40357       0.0336087       0.0124455 
        5.41929       0.0343468       0.0123492 
        5.43502        0.034914        0.012254 
         5.4507       0.0355931       0.0121599 
        5.46639       0.0365002       0.0120668 
        5.48212       0.0369228       0.0119745 
        5.49786       0.0377863        0.011883 
        5.51353       0.0388556       0.0117929 
        5.52921        0.039245       0.0117036 
        5.54495       0.0401723        0.011615 
        5.56066        0.040963       0.0115274 
        5.57637       0.0417919       0.0114407 
        5.59207       0.0429724        0.011355 
        5.60778       0.0437716       0.0112701 
        5.62346       0.0446588       0.0111861 
        5.63916        0.045723        0.011103 
        5.65487       0.0467089       0.0110206 
         5.6706       0.0474594       0.0109389 
        5.68633       0.0487096       0.0108581 
        5.70203       0.0494645       0.0107782 
        5.71773       0.0510735       0.0106991 
        5.73344        0.051988       0.0106208 
        5.74916       0.0533253       0.0105431 
        5.76486       0.0546525       0.0104664 
        5.78054       0.0556044       0.0103905 
        5.79626       0.0566864       0.0103151 
          5.812       0.0583998       0.0102405 
         5.8277       0.0596409       0.0101667 
        5.84339       0.0611198       0.0100937 
        5.85911       0.0627072       0.0100212 
        5.87484       0.0639775      0.00994949 
        5.89053       0.0659211      0.00987859 
        5.90623       0.0674366      0.00980833 
        5.92195       0.0692079      0.00973863 
        5.93767       0.0710176      0.00966964 
        5.95336       0.0722055      0.00960142 
        5.96905       0.0742429      0.00953388 
        5.98476       0.0762105      0.00946688 
        6.00048       0.0775828       0.0094005 
        6.01617       0.0796331      0.00933483 
        6.03185       0.0822127      0.00926987 
        6.04756       0.0842556      0.00920536 
        6.06331       0.0858478      0.00914132 
        6.07903       0.0885873      0.00907802 
        6.09473       0.0912752      0.00901537 
        6.11044       0.0935194      0.00895324 
        6.12616       0.0956239      0.00889171 
        6.14186       0.0981747       0.0088308 
        6.15755        0.100944      0.00877047 
        6.17326        0.103858      0.00871064 
        6.18898        0.105437      0.00865134 
        6.20467        0.109375      0.00859269 
        6.22036        0.111327      0.00853458 
         6.2361         0.11493      0.00847685 
         6.2518        0.117568      0.00841974 
        6.26748        0.120266      0.00836327 
        6.28319        0.123705      0.00830716 
        6.29893        0.127659      0.00825151 
        6.31463         0.13034      0.00819645 
        6.33033        0.134082      0.00814192 
        6.34604        0.138569      0.00808783 
        6.36177        0.140907      0.00803418 
        6.37747         0.14571      0.00798111 
