# k  (h/Mpc)    Pcb(k)  (Mpc/h)^3    Pcb_linear(k) (Mpc/h)^3   ShotnoiseSubtracted = true
      0.0200456         24669.6         25177.4 
      0.0350414         16126.9         16857.1 
      0.0492313         11603.4         11798.1 
      0.0637834         9833.77         9544.17 
      0.0800726         7482.67         7245.99 
       0.096163         5048.71         5104.98 
       0.111083         4065.59         4071.71 
       0.126058         3698.84          3568.1 
       0.142273         3147.49         2913.23 
       0.158546         2722.73         2261.54 
        0.17375         2173.92         1923.15 
       0.188953         2115.38         1728.59 
       0.204907         1962.21         1486.17 
       0.220756         1687.32         1239.98 
        0.23588         1510.69         1086.75 
         0.2514         1307.41         984.628 
       0.267535         1294.26         872.894 
       0.283568         1167.55         760.334 
       0.299022         1103.85          679.39 
       0.314451            1046         620.236 
       0.330372         956.276         561.689 
       0.346141         908.415         504.606 
       0.361624         871.806         458.157 
       0.377134         809.618         421.068 
       0.392932         769.967         386.637 
       0.408854         756.479          353.54 
       0.424564         694.231         324.863 
       0.440253         682.754         300.576 
       0.455999         652.726         278.657 
       0.471626         630.084          258.35 
        0.48727         599.832          239.95 
       0.502856         581.674         223.758 
       0.518488         574.059         209.068 
       0.534347         536.843         195.316 
       0.550082         521.105         182.791 
       0.565732         518.071         171.523 
       0.581496         485.808         161.162 
       0.597222          475.88         151.632 
       0.612804         465.785         142.901 
       0.628434         451.336         134.848 
       0.644267          438.76         127.342 
       0.660051         424.919         120.421 
       0.675724          419.23         114.048 
       0.691403         403.904         108.125 
       0.707174         389.948         102.585 
       0.722871         384.205         97.4507 
        0.73838          377.57         92.7187 
       0.754018         367.897          88.262 
       0.769845         360.521         84.0469 
        0.78569         353.579         80.1005 
       0.801365         343.958         76.4441 
       0.817031         333.509         73.0166 
       0.832809         330.377          69.776 
       0.848511         322.265         66.7451 
       0.864097         312.959         63.9135 
       0.879701         307.687         61.2422 
       0.895507         304.156         58.6909 
       0.911279         295.158         56.2891 
        0.92691          291.37         54.0405 
       0.942635         282.958         51.9013 
       0.958396         276.993         49.8725 
       0.974128         272.158         47.9549 
       0.989692         269.381         46.1561 
        1.00528         262.233         44.4462 
        1.02113         259.126         42.7955 
        1.03692         253.007         41.2341 
        1.05264         250.458         39.7571 
        1.06832         243.324         38.3541 
        1.08405         239.672         37.0146 
        1.09979         234.779         35.7378 
        1.11537         231.547         34.5333 
        1.13105         226.426         33.3767 
        1.14679         220.202         32.2682 
        1.16256         217.843         31.2075 
        1.17828         216.377         30.1975 
        1.19395         210.503         29.2353 
         1.2097         207.736         28.3097 
        1.22537          203.83         27.4284 
          1.241         201.947         26.5869 
        1.25666         198.895         25.7783 
        1.27241         194.791         24.9993 
        1.28819         191.985         24.2508 
        1.30392         187.535          23.535 
        1.31957         187.482         22.8509 
        1.33529         183.456         22.1913 
        1.35108         179.006         21.5549 
        1.36674         176.731         20.9477 
         1.3824          175.95         20.3643 
        1.39811         172.465          19.801 
        1.41389         169.862         19.2566 
        1.42964         168.022         18.7335 
        1.44531         165.523         18.2321 
        1.46101         162.086         17.7479 
        1.47667         159.738         17.2825 
        1.49229         158.971          16.835 
        1.50793         154.473         16.4026 
        1.52367         153.594         15.9824 
        1.53953         151.317         15.5741 
        1.55526         148.037         15.1831 
        1.57092         146.468          14.807 
        1.58662         144.869         14.4427 
        1.60235         142.277         14.0898 
        1.61809         141.225         13.7484 
        1.63369         138.525         13.4213 
        1.64941         135.301         13.1023 
        1.66519         134.346         12.7925 
        1.68085         132.283         12.4948 
        1.69652         131.064         12.2063 
        1.71228         128.127         11.9253 
        1.72806         126.142         11.6528 
        1.74368          125.26         11.3915 
        1.75933         122.972         11.1376 
        1.77505         121.873         10.8901 
        1.79081          120.38         10.6497 
         1.8065         118.198         10.4175 
        1.82218         117.285         10.1923 
        1.83797         115.458         9.97221 
        1.85367         113.897         9.75975 
        1.86928         112.015          9.5547 
        1.88497         110.984         9.35436 
        1.90073         109.198         9.15897 
        1.91647         107.674         8.96928 
        1.93218          106.53         8.78531 
        1.94787         104.321         8.60671 
        1.96363         103.208         8.43233 
        1.97935         102.086         8.26308 
        1.99499         100.532         8.09939 
        2.01064         99.1742         7.93985 
         2.0264         98.1301         7.78356 
        2.04216         96.7021         7.63152 
        2.05781         95.6043         7.48445 
        2.07353         94.8792         7.34069 
        2.08928         92.5993         7.20036 
        2.10499          91.666         7.06404 
        2.12065         90.4183         6.93161 
        2.13633         89.2319         6.80243 
        2.15211         88.0557         6.67568 
        2.16785         86.6703         6.55247 
        2.18349         85.7649         6.43312 
        2.19916         84.8676         6.31645 
        2.21489         83.7373         6.20226 
        2.23063         82.3557         6.09079 
         2.2463         81.7703         5.98253 
        2.26194         80.1353         5.87714 
        2.27765         79.0935         5.77373 
        2.29341         78.5161         5.67251 
        2.30914         77.2505          5.5739 
        2.32486         76.5517         5.47766 
        2.34061         75.5974         5.38351 
        2.35635         74.4624         5.29163 
        2.37203         73.4642         5.20219 
        2.38768         72.5204         5.11499 
        2.40339         71.7602         5.02944 
        2.41914          70.865         4.94563 
        2.43483         70.0654         4.86401 
         2.4505         68.9233         4.78434 
        2.46622         68.2664         4.70617 
        2.48195         67.2039         4.62972 
        2.49759         66.2253         4.55536 
        2.51328         65.9587         4.48241 
        2.52906         64.8521         4.41059 
        2.54479         63.9044         4.34059 
        2.56049         63.1799         4.27223 
        2.57618         62.5898         4.20539 
        2.59189         61.5869         4.13986 
        2.60758          60.955         4.07581 
        2.62325         60.2581         4.01319 
        2.63898         59.3298         3.95164 
        2.65468         58.6703          3.8915 
        2.67044          58.118         3.83234 
        2.68618         57.5607         3.77454 
        2.70184         57.0667         3.71814 
        2.71755         56.1089         3.66274 
        2.73329         55.4251         3.60838 
        2.74897         54.9986         3.55528 
        2.76462         54.0822         3.50336 
        2.78034         53.6466         3.45225 
        2.79607         52.7695         3.40209 
        2.81179         52.3179         3.35297 
        2.82749         51.7397         3.30487 
        2.84321         51.1654         3.25765 
        2.85893         50.5734         3.21136 
        2.87462         49.9951         3.16603 
        2.89033         49.4738         3.12153 
        2.90605         48.7697         3.07784 
        2.92176         48.1867         3.03499 
        2.93747         47.8397         2.99297 
        2.95318          47.254         2.95173 
        2.96891         46.7844         2.91124 
        2.98456         46.2568         2.87168 
        3.00023         45.4917         2.83279 
        3.01596         45.0688          2.7945 
        3.03164         44.5047         2.75701 
        3.04738         44.2802         2.72009 
         3.0631         43.5624         2.68385 
        3.07883         43.3028         2.64826 
        3.09456         42.6569         2.61332 
        3.11026         42.1574         2.57905 
        3.12596         41.5873          2.5454 
        3.14163         41.3358         2.51241 
        3.15734         40.8789         2.47993 
        3.17308         40.2777         2.44794 
        3.18879         40.0291         2.41659 
        3.20447         39.4919         2.38583 
         3.2202         39.2188          2.3555 
         3.2359         38.7016         2.32575 
        3.25157         38.1965         2.29658 
        3.26729         37.8702         2.26782 
        3.28304         37.5442         2.23948 
        3.29877         37.1208         2.21166 
        3.31446         36.4498         2.18437 
        3.33014         36.3431         2.15756 
        3.34585         35.8385         2.13115 
        3.36158         35.5743         2.10514 
        3.37727         35.3072         2.07964 
        3.39294         34.9282         2.05458 
        3.40867         34.4592         2.02984 
        3.42439         34.0871         2.00552 
        3.44008         33.8037         1.98164 
        3.45578         33.3615         1.95812 
        3.47153         33.0586         1.93493 
        3.48724         32.7192         1.91215 
        3.50292         32.4744         1.88979 
        3.51859         32.0965         1.86779 
        3.53431         31.7426         1.84606 
        3.55007         31.3153         1.82463 
        3.56577         31.0696         1.80362 
        3.58146          30.815         1.78294 
        3.59719         30.4252         1.76254 
        3.61292         30.2323         1.74246 
        3.62859         29.9141         1.72276 
        3.64429         29.5574         1.70333 
        3.66003         29.3199         1.68414 
        3.67578         29.0619         1.66524 
        3.69146         28.7169          1.6467 
        3.70712         28.4203         1.62848 
        3.72284         28.1236         1.61046 
        3.73853         27.8901         1.59274 
        3.75422         27.5981         1.57527 
        3.76993         27.4101         1.55805 
        3.78564         27.1008          1.5411 
        3.80137         26.7907         1.52436 
        3.81707         26.5636          1.5079 
        3.83279         26.2964         1.49168 
        3.84853         26.0741         1.47566 
        3.86424          25.908          1.4599 
        3.87992         25.5453          1.4444 
        3.89561         25.4011         1.42912 
        3.91134         25.1231         1.41402 
        3.92704         24.8924         1.39916 
        3.94273         24.5693         1.38452 
        3.95845          24.481         1.37007 
        3.97418         24.1426         1.35581 
        3.98988         23.9351         1.34178 
        4.00554         23.7016         1.32798 
        4.02125         23.4522         1.31433 
        4.03698          23.348         1.30085 
        4.05268         23.1033         1.28759 
        4.06839         22.8956          1.2745 
         4.0841         22.6703         1.26159 
        4.09983         22.4452         1.24884 
        4.11555          22.218         1.23628 
        4.13124         22.0041         1.22391 
        4.14693         21.9056         1.21171 
        4.16266         21.6088         1.19964 
        4.17839         21.3876         1.18774 
        4.19408         21.2168         1.17603 
        4.20977         21.0258         1.16446 
        4.22551         20.8409         1.15303 
        4.24123         20.6099         1.14175 
        4.25691         20.4732         1.13066 
        4.27259         20.2763         1.11971 
        4.28831          20.124         1.10888 
        4.30404          19.996         1.09818 
        4.31974         19.7548         1.08765 
        4.33543         19.5857         1.07725 
        4.35116         19.4123         1.06697 
        4.36688         19.2696         1.05682 
        4.38255          19.066         1.04685 
        4.39825         18.9271         1.03697 
        4.41398          18.734          1.0272 
         4.4297         18.5475         1.01757 
        4.44541         18.3966         1.00806 
        4.46111         18.2164        0.998683 
        4.47683         18.1074        0.989413 
        4.49251         17.8993        0.980279 
        4.50819         17.7401         0.97126 
         4.5239         17.6682        0.962341 
        4.53962         17.4293        0.953521 
        4.55535         17.3619        0.944807 
        4.57106         17.2073        0.936212 
        4.58678         17.0499        0.927722 
         4.6025         16.9199        0.919333 
        4.61821         16.7441        0.911048 
        4.63391         16.5963        0.902875 
         4.6496         16.5067        0.894804 
        4.66532         16.3338        0.886819 
        4.68103         16.1779        0.878933 
        4.69673          16.052        0.871149 
        4.71241         15.9186        0.863467 
        4.72811         15.7802        0.855863 
        4.74384         15.6413         0.84834 
        4.75955         15.5418        0.840918 
        4.77525          15.403        0.833588 
        4.79096         15.2889        0.826335 
        4.80669          15.104        0.819164 
         4.8224         15.0144        0.812085 
        4.83809         14.9004        0.805096 
        4.85379         14.7939        0.798185 
         4.8695         14.6726        0.791347 
        4.88521         14.5028        0.784592 
        4.90093         14.3774        0.777914 
        4.91663         14.2905        0.771319 
        4.93234         14.1723        0.764792 
        4.94807           14.07        0.758336 
        4.96377         13.9463        0.751965 
        4.97943         13.8221         0.74568 
        4.99514          13.738         0.73945 
        5.01086         13.6098        0.733285 
        5.02654          13.511        0.727206 
        5.04227         13.4222        0.721177 
          5.058         13.3201        0.715212 
        5.07371         13.1637        0.709326 
        5.08942           13.08        0.703504 
        5.10513         12.9779        0.697747 
        5.12084         12.8655         0.69205 
        5.13656         12.7592        0.686418 
        5.15225         12.6876        0.680856 
        5.16796         12.5726        0.675347 
        5.18369         12.4649        0.669893 
         5.1994         12.3965        0.664508 
        5.21509          12.314        0.659187 
        5.23079         12.2128        0.653917 
        5.24649         12.1159        0.648708 
        5.26217         11.9978        0.643559 
        5.27788         11.9293        0.638458 
        5.29359         11.8476         0.63341 
        5.30933         11.7243        0.628409 
        5.32504          11.653         0.62347 
        5.34073         11.5471        0.618589 
        5.35646         11.4492         0.61375 
        5.37218         11.3717         0.60896 
        5.38789         11.2958        0.604229 
        5.40357         11.1956        0.599554 
        5.41929         11.1144        0.594916 
        5.43502         11.0091        0.590327 
         5.4507         10.9615        0.585796 
        5.46639         10.8892        0.581312 
        5.48212         10.7932        0.576864 
        5.49786         10.7077        0.572456 
        5.51353         10.6297        0.568116 
        5.52921         10.5588        0.563816 
        5.54495         10.4608        0.559547 
        5.56066         10.3941        0.555326 
        5.57637         10.3198        0.551149 
        5.59207         10.2506        0.547019 
        5.60778         10.1704        0.542928 
        5.62346         10.0914        0.538885 
        5.63916         9.99502        0.534878 
        5.65487         9.93231         0.53091 
         5.6706         9.86156        0.526976 
        5.68633         9.80366        0.523081 
        5.70203         9.72482        0.519233 
        5.71773         9.67174        0.515423 
        5.73344         9.57514         0.51165 
        5.74916          9.5334         0.50791 
        5.76486         9.45465        0.504212 
        5.78054         9.37261        0.500556 
        5.79626         9.30597        0.496926 
          5.812         9.24271        0.493328 
         5.8277         9.17133        0.489775 
        5.84339         9.11299        0.486257 
        5.85911         9.04625        0.482767 
        5.87484         8.96246        0.479311 
        5.89053         8.92289        0.475895 
        5.90623         8.85702         0.47251 
        5.92195         8.79337        0.469153 
        5.93767         8.72559        0.465829 
        5.95336          8.6663        0.462543 
        5.96905           8.619        0.459289 
        5.98476         8.54578        0.456061 
        6.00048         8.49515        0.452863 
        6.01617         8.42871          0.4497 
        6.03185         8.37141         0.44657 
        6.04756         8.32115        0.443463 
        6.06331         8.27964        0.440378 
        6.07903         8.18795        0.437328 
        6.09473         8.15132         0.43431 
        6.11044         8.07046        0.431317 
        6.12616         8.03976        0.428353 
        6.14186         7.98206        0.425419 
        6.15755         7.91895        0.422512 
        6.17326         7.85744         0.41963 
        6.18898         7.81936        0.416773 
        6.20467         7.76234        0.413948 
        6.22036         7.69766        0.411148 
         6.2361         7.65423        0.408367 
         6.2518         7.60386        0.405616 
        6.26748         7.54677        0.402895 
        6.28319         7.49972        0.400192 
        6.29893         7.45379        0.397511 
        6.31463         7.40042        0.394859 
        6.33033         7.34934        0.392232 
        6.34604         7.29209        0.389626 
        6.36177         7.25851        0.387042 
        6.37747         7.19851        0.384485 
