# k  (h/Mpc)    Pcb(k)  (Mpc/h)^3    Pcb_linear(k) (Mpc/h)^3   ShotnoiseSubtracted = true
      0.0200456         5184.82          5254.9 
      0.0350414          3469.3         3518.33 
      0.0492313         2464.73         2462.45 
      0.0637834         2028.82         1992.01 
      0.0800726          1544.1         1512.35 
       0.096163         1059.22         1065.49 
       0.111083         840.008         849.827 
       0.126058         756.913         744.717 
       0.142273         631.406         608.036 
       0.158546         502.466         472.017 
        0.17375         410.278         401.391 
       0.188953         383.707         360.782 
       0.204907         348.656         310.185 
       0.220756          288.02         258.802 
        0.23588         251.739         226.821 
         0.2514          222.16         205.507 
       0.267535         205.469         182.186 
       0.283568         183.248         158.693 
       0.299022         167.575         141.799 
       0.314451          151.09         129.453 
       0.330372         139.232         117.233 
       0.346141         124.389         105.319 
       0.361624         116.876         95.6244 
       0.377134          109.35         87.8833 
       0.392932         97.8301          80.697 
       0.408854         93.4971         73.7893 
       0.424564         88.7552         67.8039 
       0.440253          82.347         62.7347 
       0.455999         76.8963           58.16 
       0.471626         71.2324         53.9215 
        0.48727          68.262         50.0812 
       0.502856         64.6015         46.7016 
       0.518488         61.8594         43.6358 
       0.534347         59.2472         40.7655 
       0.550082         54.1007         38.1513 
       0.565732         51.0914         35.7994 
       0.581496         49.3919          33.637 
       0.597222         47.5792          31.648 
       0.612804         44.6745         29.8257 
       0.628434          43.275         28.1449 
       0.644267         41.8649         26.5783 
       0.660051          40.096         25.1338 
       0.675724         38.0785         23.8035 
       0.691403         36.8377         22.5673 
       0.707174         35.5395          21.411 
       0.722871         34.2532         20.3394 
        0.73838         33.1149         19.3518 
       0.754018         31.5056         18.4216 
       0.769845         30.6382         17.5419 
        0.78569         29.7191         16.7182 
       0.801365         28.5242          15.955 
       0.817031         27.7931         15.2397 
       0.832809         27.2138         14.5633 
       0.848511         25.6286         13.9307 
       0.864097         25.1375         13.3397 
       0.879701         24.4929         12.7822 
       0.895507         23.9901         12.2497 
       0.911279         23.1254         11.7484 
        0.92691          22.602         11.2791 
       0.942635         21.6639         10.8326 
       0.958396         21.3685         10.4091 
       0.974128         20.6647         10.0089 
       0.989692         20.3599         9.63349 
        1.00528         19.8623         9.27661 
        1.02113         19.0888         8.93208 
        1.03692         18.6302         8.60618 
        1.05264         18.3884         8.29791 
        1.06832         17.7643         8.00509 
        1.08405         17.3837         7.72552 
        1.09979         17.0054         7.45902 
        1.11537         16.5987         7.20763 
        1.13105         16.3947         6.96623 
        1.14679         16.1111         6.73486 
        1.16256         15.4924         6.51347 
        1.17828         15.3583         6.30268 
        1.19395         14.9157         6.10185 
         1.2097         14.7746         5.90867 
        1.22537         14.4314         5.72472 
          1.241         14.0901         5.54909 
        1.25666         13.7241         5.38032 
        1.27241         13.4619         5.21773 
        1.28819         13.1685         5.06152 
        1.30392          13.034          4.9121 
        1.31957         12.8602         4.76933 
        1.33529         12.6263         4.63166 
        1.35108         12.3248         4.49883 
        1.36674         12.1477         4.37211 
         1.3824         11.8587         4.25034 
        1.39811         11.6968         4.13277 
        1.41389         11.5482         4.01916 
        1.42964         11.3138         3.90996 
        1.44531         11.2239         3.80533 
        1.46101         10.8945         3.70426 
        1.47667         10.7633         3.60713 
        1.49229         10.6163         3.51371 
        1.50793          10.461         3.42346 
        1.52367         10.2776         3.33578 
        1.53953         10.1481         3.25055 
        1.55526         9.96976         3.16895 
        1.57092          9.7637         3.09046 
        1.58662         9.70386         3.01441 
        1.60235         9.52829         2.94076 
        1.61809          9.3973          2.8695 
        1.63369         9.26838         2.80122 
        1.64941         9.08221         2.73465 
        1.66519         9.02289         2.66998 
        1.68085         8.86464         2.60785 
        1.69652         8.73897         2.54765 
        1.71228         8.61637         2.48899 
        1.72806         8.52376         2.43212 
        1.74368         8.37623         2.37758 
        1.75933         8.29342         2.32458 
        1.77505         8.18897         2.27293 
        1.79081         8.04458         2.22275 
         1.8065         7.98886         2.17429 
        1.82218         7.82287         2.12729 
        1.83797         7.73422         2.08135 
        1.85367         7.63625         2.03701 
        1.86928         7.60162         1.99421 
        1.88497         7.44469          1.9524 
        1.90073         7.42027         1.91162 
        1.91647         7.30278         1.87202 
        1.93218         7.24627         1.83363 
        1.94787         7.12961         1.79635 
        1.96363         7.06903         1.75995 
        1.97935         6.94225         1.72463 
        1.99499         6.83973         1.69047 
        2.01064         6.79263         1.65717 
         2.0264         6.72437         1.62455 
        2.04216         6.63556         1.59281 
        2.05781         6.53339         1.56212 
        2.07353         6.50004         1.53211 
        2.08928         6.41135         1.50282 
        2.10499         6.36086         1.47437 
        2.12065         6.25975         1.44673 
        2.13633         6.24158         1.41977 
        2.15211         6.13436         1.39332 
        2.16785         6.08816          1.3676 
        2.18349         6.03439         1.34269 
        2.19916         5.96244         1.31834 
        2.21489         5.89547         1.29451 
        2.23063         5.82632         1.27124 
         2.2463         5.75821         1.24865 
        2.26194         5.69313         1.22665 
        2.27765         5.67133         1.20507 
        2.29341         5.59936         1.18394 
        2.30914         5.50804         1.16336 
        2.32486         5.46604         1.14327 
        2.34061         5.42088         1.12362 
        2.35635         5.37741         1.10444 
        2.37203         5.33444         1.08578 
        2.38768         5.22595         1.06758 
        2.40339          5.2194         1.04972 
        2.41914         5.14394         1.03223 
        2.43483          5.1242         1.01519 
         2.4505         5.07231        0.998565 
        2.46622         5.01579        0.982249 
        2.48195         4.96442        0.966293 
        2.49759         4.92155        0.950772 
        2.51328         4.87952        0.935548 
        2.52906          4.8448        0.920558 
        2.54479         4.78366        0.905948 
        2.56049         4.76729         0.89168 
        2.57618         4.71848        0.877729 
        2.59189          4.6496        0.864052 
        2.60758         4.63739        0.850684 
        2.62325         4.57599        0.837613 
        2.63898         4.52046        0.824767 
        2.65468         4.46343        0.812215 
        2.67044         4.45222        0.799868 
        2.68618         4.41174        0.787803 
        2.70184          4.3734        0.776032 
        2.71755         4.33356         0.76447 
        2.73329         4.29513        0.753123 
        2.74897         4.27147        0.742041 
        2.76462         4.24205        0.731204 
        2.78034         4.17537        0.720536 
        2.79607         4.15192        0.710068 
        2.81179         4.11955        0.699817 
        2.82749         4.08744        0.689777 
        2.84321         4.06799        0.679922 
        2.85893          4.0328        0.670259 
        2.87462         3.98011        0.660799 
        2.89033         3.95093        0.651511 
        2.90605         3.91438        0.642391 
        2.92176         3.88298        0.633449 
        2.93747         3.85608        0.624679 
        2.95318         3.82633        0.616072 
        2.96891         3.79006        0.607621 
        2.98456         3.74726        0.599364 
        3.00023         3.72066        0.591247 
        3.01596         3.69716        0.583254 
        3.03164         3.68176        0.575429 
        3.04738         3.65001        0.567723 
         3.0631          3.6107         0.56016 
        3.07883         3.59006        0.552732 
        3.09456         3.55532        0.545439 
        3.11026         3.53361        0.538287 
        3.12596         3.50827        0.531263 
        3.14163         3.47092        0.524379 
        3.15734         3.45078        0.517599 
        3.17308         3.41999        0.510921 
        3.18879         3.39496        0.504379 
        3.20447         3.38051        0.497959 
         3.2202         3.33076        0.491629 
         3.2359         3.32146         0.48542 
        3.25157         3.29792        0.479331 
        3.26729         3.28351        0.473328 
        3.28304         3.24883        0.467414 
        3.29877         3.22153        0.461608 
        3.31446         3.20158        0.455912 
        3.33014         3.18013        0.450316 
        3.34585         3.16477        0.444804 
        3.36158         3.12259        0.439375 
        3.37727         3.11346        0.434053 
        3.39294         3.09713        0.428823 
        3.40867         3.06135        0.423659 
        3.42439         3.05239        0.418582 
        3.44008         3.02182        0.413597 
        3.45578         2.99629        0.408689 
        3.47153         2.97857        0.403849 
        3.48724         2.95621        0.399095 
        3.50292         2.94241        0.394427 
        3.51859          2.9188        0.389835 
        3.53431         2.89571        0.385302 
        3.55007         2.87817        0.380829 
        3.56577         2.85848        0.376443 
        3.58146         2.84977        0.372128 
        3.59719         2.82834        0.367869 
        3.61292         2.80864        0.363678 
        3.62859         2.78134        0.359567 
        3.64429         2.76289        0.355511 
        3.66003         2.74188        0.351505 
        3.67578         2.73096        0.347561 
        3.69146         2.69829        0.343692 
        3.70712         2.69244        0.339888 
        3.72284         2.67442        0.336127 
        3.73853         2.65026        0.332428 
        3.75422         2.63156        0.328783 
        3.76993         2.61992         0.32519 
        3.78564         2.60434         0.32165 
        3.80137         2.59361        0.318157 
        3.81707          2.5685        0.314723 
        3.83279         2.54833        0.311336 
        3.84853         2.53248        0.307992 
        3.86424          2.5141        0.304704 
        3.87992         2.49827        0.301468 
        3.89561         2.49637        0.298278 
        3.91134         2.46389        0.295128 
        3.92704         2.45351        0.292026 
        3.94273         2.43566        0.288971 
        3.95845         2.41806        0.285954 
        3.97418         2.40531        0.282979 
        3.98988         2.39279        0.280049 
        4.00554         2.37185        0.277169 
        4.02125         2.35783         0.27432 
        4.03698         2.33972        0.271507 
        4.05268         2.31849        0.268739 
        4.06839         2.31192        0.266007 
         4.0841         2.29322        0.263313 
        4.09983         2.27601        0.260653 
        4.11555         2.26351         0.25803 
        4.13124         2.24526         0.25545 
        4.14693         2.23148        0.252902 
        4.16266         2.21723        0.250383 
        4.17839         2.19838        0.247899 
        4.19408         2.18441        0.245455 
        4.20977         2.17279        0.243041 
        4.22551         2.15438        0.240654 
        4.24123         2.14082        0.238302 
        4.25691         2.12792        0.235986 
        4.27259         2.11993        0.233701 
        4.28831         2.10112         0.23144 
        4.30404         2.09011        0.229208 
        4.31974          2.0757        0.227009 
        4.33543         2.06353        0.224839 
        4.35116         2.04949        0.222693 
        4.36688         2.04163        0.220575 
        4.38255         2.02674        0.218493 
        4.39825         2.01012        0.216432 
        4.41398         2.00549        0.214393 
         4.4297         1.98898        0.212383 
        4.44541            1.98        0.210398 
        4.46111          1.9645         0.20844 
        4.47683         1.94694        0.206506 
        4.49251         1.94561        0.204599 
        4.50819         1.93072        0.202717 
         4.5239         1.91853        0.200855 
        4.53962         1.91125        0.199014 
        4.55535         1.89549        0.197196 
        4.57106         1.89054        0.195402 
        4.58678          1.8779         0.19363 
         4.6025          1.8677        0.191879 
        4.61821         1.85757         0.19015 
        4.63391         1.84599        0.188444 
         4.6496         1.83729        0.186759 
        4.66532         1.82243        0.185093 
        4.68103         1.81305        0.183447 
        4.69673          1.8058        0.181822 
        4.71241         1.79315        0.180219 
        4.72811         1.78507        0.178632 
        4.74384         1.77603        0.177061 
        4.75955          1.7686        0.175512 
        4.77525         1.76165        0.173982 
        4.79096         1.74546        0.172469 
        4.80669         1.73406        0.170972 
         4.8224         1.73374        0.169494 
        4.83809         1.72159        0.168036 
        4.85379         1.71385        0.166593 
         4.8695         1.70564        0.165166 
        4.88521         1.69168        0.163756 
        4.90093         1.68653        0.162363 
        4.91663         1.67798        0.160986 
        4.93234          1.6677        0.159624 
        4.94807         1.66064        0.158276 
        4.96377         1.65287        0.156947 
        4.97943         1.64447        0.155635 
        4.99514          1.6333        0.154334 
        5.01086         1.62746        0.153048 
        5.02654         1.61539        0.151779 
        5.04227         1.61439        0.150521 
          5.058         1.60248        0.149276 
        5.07371         1.59764        0.148047 
        5.08942         1.58816        0.146832 
        5.10513         1.58164         0.14563 
        5.12084         1.57438        0.144441 
        5.13656         1.56543        0.143266 
        5.15225         1.55545        0.142105 
        5.16796         1.54962        0.140955 
        5.18369         1.54272        0.139817 
         5.1994         1.53974        0.138693 
        5.21509         1.52968        0.137582 
        5.23079          1.5246        0.136482 
        5.24649          1.5182        0.135395 
        5.26217         1.50908        0.134321 
        5.27788          1.5002        0.133256 
        5.29359         1.49655        0.132202 
        5.30933         1.49273        0.131159 
        5.32504         1.48115        0.130128 
        5.34073         1.47666        0.129109 
        5.35646         1.46863        0.128099 
        5.37218         1.46154        0.127099 
        5.38789         1.45821        0.126112 
        5.40357         1.45113        0.125136 
        5.41929         1.44549        0.124168 
        5.43502         1.44061         0.12321 
         5.4507          1.4369        0.122265 
        5.46639         1.42793        0.121329 
        5.48212         1.42144          0.1204 
        5.49786         1.41795         0.11948 
        5.51353         1.40946        0.118574 
        5.52921         1.40186        0.117677 
        5.54495         1.40001        0.116786 
        5.56066         1.39398        0.115905 
        5.57637          1.3869        0.115033 
        5.59207         1.38248        0.114171 
        5.60778         1.37782        0.113317 
        5.62346         1.37203        0.112473 
        5.63916          1.3639        0.111637 
        5.65487         1.35935        0.110809 
         5.6706         1.35338        0.109988 
        5.68633         1.35234        0.109175 
        5.70203         1.34113        0.108372 
        5.71773         1.33732        0.107577 
        5.73344         1.33398        0.106789 
        5.74916         1.32443        0.106008 
        5.76486         1.32272        0.105237 
        5.78054         1.31576        0.104474 
        5.79626         1.31311        0.103716 
          5.812         1.30744        0.102965 
         5.8277         1.29998        0.102224 
        5.84339         1.29793        0.101489 
        5.85911         1.29054        0.100761 
        5.87484         1.28811        0.100039 
        5.89053         1.28348       0.0993265 
        5.90623            1.28       0.0986201 
        5.92195          1.2723       0.0979193 
        5.93767         1.27177       0.0972256 
        5.95336         1.26333       0.0965397 
        5.96905         1.25939       0.0958605 
        5.98476          1.2533       0.0951869 
        6.00048          1.2489       0.0945195 
        6.01617         1.24519       0.0938592 
        6.03185         1.24151        0.093206 
        6.04756         1.23689       0.0925574 
        6.06331         1.23426       0.0919135 
        6.07903         1.22822        0.091277 
        6.09473         1.22719       0.0906471 
        6.11044         1.22216       0.0900224 
        6.12616         1.21704       0.0894037 
        6.14186         1.20991       0.0887913 
        6.15755         1.20792       0.0881847 
        6.17326         1.20505       0.0875832 
        6.18898         1.19921       0.0869869 
        6.20467         1.19465       0.0863972 
        6.22036          1.1914       0.0858129 
         6.2361         1.18707       0.0852324 
         6.2518         1.18469       0.0846582 
        6.26748         1.17891       0.0840904 
        6.28319         1.17548       0.0835262 
        6.29893         1.17469       0.0829667 
        6.31463         1.16798       0.0824131 
        6.33033         1.16193       0.0818648 
        6.34604         1.15862       0.0813209 
        6.36177         1.15684       0.0807815 
        6.37747         1.15339       0.0802479 
