# k  (h/Mpc)    Pcb(k)  (Mpc/h)^3    Pcb_linear(k) (Mpc/h)^3   ShotnoiseSubtracted = true
      0.0200456         2940.55         2977.63 
      0.0350414         1976.72         1993.62 
      0.0492313         1399.11         1395.32 
      0.0637834         1144.72         1128.75 
      0.0800726         870.823         856.954 
       0.096163         601.341         603.745 
       0.111083         476.763         481.544 
       0.126058         426.439         421.985 
       0.142273         353.657         344.537 
       0.158546         278.325         267.463 
        0.17375         229.527         227.443 
       0.188953         211.805         204.433 
       0.204907         190.401         175.763 
       0.220756         156.685         146.647 
        0.23588          136.88         128.525 
         0.2514         121.687         116.448 
       0.267535         110.695         103.234 
       0.283568         97.9739         89.9216 
       0.299022         88.9667         80.3488 
       0.314451         79.4564         73.3528 
       0.330372         73.2017         66.4288 
       0.346141         65.6735         59.6777 
       0.361624         60.8336         54.1844 
       0.377134         56.9277         49.7981 
       0.392932         50.2914          45.726 
       0.408854         48.0751         41.8118 
       0.424564         45.0276         38.4203 
       0.440253         41.4094         35.5479 
       0.455999          38.721         32.9557 
       0.471626         36.1137          30.554 
        0.48727         34.1862         28.3779 
       0.502856         31.9839         26.4629 
       0.518488         30.4081         24.7257 
       0.534347         29.0863         23.0993 
       0.550082         26.4193          21.618 
       0.565732         24.5685         20.2853 
       0.581496         23.9361           19.06 
       0.597222          23.018          17.933 
       0.612804         21.3932         16.9004 
       0.628434         20.5679          15.948 
       0.644267         19.8998         15.0603 
       0.660051         18.7806         14.2418 
       0.675724         17.7513          13.488 
       0.691403         17.1346         12.7875 
       0.707174          16.422         12.1323 
       0.722871          15.742         11.5251 
        0.73838         15.0671         10.9655 
       0.754018         14.4836         10.4384 
       0.769845         13.9139         9.93989 
        0.78569         13.4274         9.47317 
       0.801365         12.8576         9.04074 
       0.817031          12.447         8.63539 
       0.832809          12.152         8.25213 
       0.848511         11.3778         7.89367 
       0.864097         11.1113         7.55879 
       0.879701         10.7576         7.24287 
       0.895507          10.297         6.94114 
       0.911279         10.0559         6.65709 
        0.92691         9.74101         6.39115 
       0.942635         9.30428         6.13816 
       0.958396         9.05575         5.89822 
       0.974128          8.7736         5.67143 
       0.989692         8.64371          5.4587 
        1.00528         8.35805         5.25648 
        1.02113         7.99435         5.06126 
        1.03692         7.78022         4.87659 
        1.05264         7.61464         4.70191 
        1.06832         7.38877         4.53599 
        1.08405         7.12868         4.37757 
        1.09979         6.95269         4.22657 
        1.11537         6.82695         4.08412 
        1.13105         6.62208         3.94733 
        1.14679         6.49383         3.81623 
        1.16256         6.24988         3.69078 
        1.17828         6.18716         3.57134 
        1.19395         5.93506         3.45754 
         1.2097         5.82382         3.34808 
        1.22537         5.65496         3.24384 
          1.241         5.55197         3.14432 
        1.25666         5.44408          3.0487 
        1.27241         5.27979         2.95656 
        1.28819         5.15329         2.86805 
        1.30392         5.08395         2.78339 
        1.31957         4.96014         2.70248 
        1.33529         4.84922         2.62447 
        1.35108         4.72225         2.54921 
        1.36674         4.68163          2.4774 
         1.3824         4.50435         2.40841 
        1.39811         4.43335         2.34179 
        1.41389         4.35247         2.27741 
        1.42964         4.27382         2.21554 
        1.44531         4.18484         2.15624 
        1.46101         4.08837         2.09897 
        1.47667         4.01336         2.04394 
        1.49229         3.95912           1.991 
        1.50793         3.85026         1.93987 
        1.52367         3.79618         1.89018 
        1.53953         3.70682         1.84188 
        1.55526         3.65049         1.79565 
        1.57092         3.58808         1.75117 
        1.58662         3.50516         1.70808 
        1.60235         3.45566         1.66635 
        1.61809          3.3895         1.62597 
        1.63369         3.32613         1.58728 
        1.64941         3.26796         1.54956 
        1.66519         3.22431         1.51291 
        1.68085         3.15532         1.47771 
        1.69652         3.09244          1.4436 
        1.71228         3.05269         1.41036 
        1.72806         2.99768         1.37813 
        1.74368         2.93788         1.34723 
        1.75933          2.9055          1.3172 
        1.77505         2.86111         1.28793 
        1.79081         2.79833          1.2595 
         1.8065         2.76982         1.23203 
        1.82218         2.72849         1.20541 
        1.83797          2.6973         1.17937 
        1.85367         2.63279         1.15425 
        1.86928         2.60881            1.13 
        1.88497         2.56243          1.1063 
        1.90073         2.51482         1.08319 
        1.91647         2.47908         1.06076 
        1.93218         2.45442           1.039 
        1.94787         2.42633         1.01788 
        1.96363          2.3779        0.997258 
        1.97935         2.34277        0.977242 
        1.99499          2.3027        0.957883 
        2.01064         2.28019        0.939015 
         2.0264         2.23974        0.920531 
        2.04216         2.21836        0.902549 
        2.05781         2.18103        0.885156 
        2.07353         2.16213        0.868155 
        2.08928         2.13182        0.851558 
        2.10499         2.09416        0.835435 
        2.12065         2.08113        0.819774 
        2.13633         2.04314        0.804496 
        2.15211         2.01758        0.789506 
        2.16785         1.99641        0.774935 
        2.18349         1.96754        0.760819 
        2.19916          1.9318        0.747021 
        2.21489         1.92255        0.733517 
        2.23063         1.88107        0.720334 
         2.2463         1.86664         0.70753 
        2.26194         1.83896        0.695066 
        2.27765         1.82807        0.682836 
        2.29341         1.79885        0.670865 
        2.30914         1.77198        0.659202 
        2.32486         1.76037        0.647821 
        2.34061          1.7364        0.636686 
        2.35635         1.71324         0.62582 
        2.37203         1.70157        0.615243 
        2.38768         1.67958        0.604929 
        2.40339         1.65329        0.594812 
        2.41914         1.63505          0.5849 
        2.43483         1.62406        0.575247 
         2.4505         1.60006        0.565825 
        2.46622         1.58998         0.55658 
        2.48195         1.56234        0.547538 
        2.49759         1.54764        0.538744 
        2.51328         1.52988        0.530117 
        2.52906         1.52199        0.521623 
        2.54479         1.49631        0.513345 
        2.56049         1.48241         0.50526 
        2.57618          1.4677        0.497355 
        2.59189         1.45805        0.489605 
        2.60758         1.43825         0.48203 
        2.62325         1.41989        0.474623 
        2.63898         1.40481        0.467345 
        2.65468           1.393        0.460232 
        2.67044         1.38108        0.453236 
        2.68618         1.36269        0.446399 
        2.70184         1.35182         0.43973 
        2.71755         1.33816        0.433178 
        2.73329         1.32198        0.426748 
        2.74897         1.31357        0.420469 
        2.76462         1.29918        0.414328 
        2.78034         1.28459        0.408283 
        2.79607         1.27267        0.402351 
        2.81179          1.2642        0.396543 
        2.82749         1.24423        0.390854 
        2.84321         1.24042         0.38527 
        2.85893         1.22795        0.379795 
        2.87462         1.21215        0.374434 
        2.89033         1.20107        0.369171 
        2.90605         1.18923        0.364003 
        2.92176         1.17891        0.358936 
        2.93747          1.1657        0.353967 
        2.95318         1.15699         0.34909 
        2.96891         1.15045        0.344301 
        2.98456         1.13768        0.339623 
        3.00023         1.12747        0.335023 
        3.01596         1.11896        0.330494 
        3.03164         1.11244         0.32606 
        3.04738         1.09534        0.321694 
         3.0631         1.08984        0.317408 
        3.07883         1.07941        0.313199 
        3.09456         1.07009        0.309067 
        3.11026         1.06391        0.305014 
        3.12596         1.05032        0.301034 
        3.14163         1.04451        0.297133 
        3.15734         1.03527        0.293291 
        3.17308          1.0244        0.289508 
        3.18879          1.0206          0.2858 
        3.20447         1.01227        0.282162 
         3.2202        0.999792        0.278576 
         3.2359        0.992435        0.275058 
        3.25157        0.987126        0.271608 
        3.26729        0.974546        0.268206 
        3.28304        0.973403        0.264855 
        3.29877        0.958806        0.261565 
        3.31446        0.954114        0.258337 
        3.33014        0.950394        0.255166 
        3.34585        0.941707        0.252043 
        3.36158        0.932684        0.248967 
        3.37727        0.925853        0.245951 
        3.39294        0.918489        0.242987 
        3.40867        0.907655        0.240061 
        3.42439        0.905665        0.237185 
        3.44008        0.899698         0.23436 
        3.45578        0.891766        0.231579 
        3.47153        0.885812        0.228836 
        3.48724         0.87728        0.226142 
        3.50292        0.872781        0.223497 
        3.51859        0.868402        0.220896 
        3.53431        0.859644        0.218327 
        3.55007        0.853644        0.215792 
        3.56577        0.848611        0.213307 
        3.58146        0.844583        0.210862 
        3.59719        0.836367        0.208449 
        3.61292        0.832223        0.206074 
        3.62859        0.825503        0.203745 
        3.64429        0.816052        0.201446 
        3.66003        0.813157        0.199176 
        3.67578        0.808644        0.196941 
        3.69146        0.803692        0.194749 
        3.70712        0.795104        0.192593 
        3.72284        0.791284        0.190462 
        3.73853        0.786623        0.188366 
        3.75422        0.782206        0.186301 
        3.76993        0.776408        0.184265 
        3.78564        0.772112        0.182259 
        3.80137        0.767366         0.18028 
        3.81707        0.761672        0.178334 
        3.83279        0.755148        0.176415 
        3.84853        0.751975         0.17452 
        3.86424        0.744045        0.172657 
        3.87992        0.744649        0.170823 
        3.89561        0.736165        0.169016 
        3.91134           0.734        0.167231 
        3.92704        0.728743        0.165473 
        3.94273        0.723908        0.163742 
        3.95845        0.718552        0.162033 
        3.97418        0.713762        0.160347 
        3.98988        0.709592        0.158687 
        4.00554        0.703547        0.157055 
        4.02125        0.699076         0.15544 
        4.03698        0.694071        0.153846 
        4.05268        0.688442        0.152278 
        4.06839        0.682346         0.15073 
         4.0841        0.677968        0.149203 
        4.09983          0.6722        0.147696 
        4.11555        0.669409         0.14621 
        4.13124        0.662933        0.144747 
        4.14693        0.657536        0.143304 
        4.16266         0.65282        0.141877 
        4.17839        0.649058        0.140469 
        4.19408        0.645825        0.139084 
        4.20977        0.639287        0.137717 
        4.22551        0.636735        0.136364 
        4.24123        0.632394        0.135031 
        4.25691         0.62628        0.133719 
        4.27259        0.624756        0.132424 
        4.28831         0.61937        0.131143 
        4.30404        0.615153        0.129878 
        4.31974        0.612467        0.128632 
        4.33543        0.607617        0.127403 
        4.35116        0.604923        0.126186 
        4.36688        0.601167        0.124986 
        4.38255        0.596636        0.123806 
        4.39825        0.593862        0.122639 
        4.41398        0.591496        0.121483 
         4.4297        0.587429        0.120344 
        4.44541        0.584957         0.11922 
        4.46111          0.5831         0.11811 
        4.47683        0.579516        0.117014 
        4.49251        0.577243        0.115934 
        4.50819        0.573523        0.114867 
         4.5239        0.570961        0.113812 
        4.53962         0.56939        0.112769 
        4.55535         0.56466        0.111739 
        4.57106        0.563253        0.110722 
        4.58678         0.56026        0.109718 
         4.6025        0.559424        0.108726 
        4.61821        0.556321        0.107746 
        4.63391        0.553587        0.106779 
         4.6496        0.550566        0.105825 
        4.66532        0.550781        0.104881 
        4.68103         0.54601        0.103948 
        4.69673        0.545136        0.103027 
        4.71241        0.543379        0.102119 
        4.72811        0.541381         0.10122 
        4.74384        0.538836         0.10033 
        4.75955        0.536521        0.099452 
        4.77525        0.535682       0.0985851 
        4.79096        0.533318       0.0977273 
        4.80669        0.532615       0.0968792 
         4.8224         0.53106       0.0960421 
        4.83809        0.529429       0.0952155 
        4.85379        0.528159       0.0943981 
         4.8695        0.526719       0.0935895 
        4.88521        0.523625       0.0927906 
        4.90093        0.524537       0.0920008 
        4.91663        0.523988       0.0912208 
        4.93234        0.520599       0.0904489 
        4.94807        0.520861       0.0896853 
        4.96377        0.518226       0.0889319 
        4.97943        0.519331       0.0881886 
        4.99514        0.516941       0.0874518 
        5.01086        0.515996       0.0867227 
        5.02654        0.516323       0.0860037 
        5.04227        0.514707       0.0852907 
          5.058        0.514569       0.0845853 
        5.07371        0.513709       0.0838892 
        5.08942        0.512227       0.0832007 
        5.10513        0.511596       0.0825198 
        5.12084        0.511292        0.081846 
        5.13656         0.51227       0.0811799 
        5.15225        0.509603       0.0805222 
        5.16796        0.510335       0.0798706 
        5.18369         0.50921       0.0792256 
         5.1994        0.509398       0.0785888 
        5.21509         0.50926       0.0779594 
        5.23079        0.508957       0.0773362 
        5.24649        0.508822       0.0767202 
        5.26217        0.507024       0.0761112 
        5.27788        0.508981       0.0755079 
        5.29359        0.508235       0.0749109 
        5.30933        0.506898       0.0743195 
        5.32504        0.508837       0.0737353 
        5.34073        0.508344       0.0731581 
        5.35646        0.507214       0.0725857 
        5.37218        0.507984       0.0720193 
        5.38789        0.509047       0.0714598 
        5.40357         0.50861       0.0709068 
        5.41929        0.508091       0.0703584 
        5.43502        0.508425       0.0698156 
         5.4507         0.50922       0.0692798 
        5.46639        0.508556       0.0687495 
        5.48212        0.508673       0.0682234 
        5.49786        0.509663       0.0677021 
        5.51353        0.510405       0.0671888 
        5.52921        0.508821       0.0666802 
        5.54495        0.510345       0.0661754 
        5.56066        0.511794       0.0656762 
        5.57637        0.512222       0.0651822 
        5.59207        0.510893       0.0646937 
        5.60778        0.512461         0.06421 
        5.62346        0.513001       0.0637317 
        5.63916        0.513049       0.0632579 
        5.65487        0.513774       0.0627886 
         5.6706        0.513963       0.0623234 
        5.68633        0.516149       0.0618627 
        5.70203        0.516182       0.0614076 
        5.71773         0.51734       0.0609571 
        5.73344         0.51752       0.0605108 
        5.74916        0.517365       0.0600685 
        5.76486        0.518714       0.0596311 
        5.78054        0.517648       0.0591988 
        5.79626        0.519496       0.0587694 
          5.812        0.519163       0.0583439 
         5.8277        0.521013       0.0579238 
        5.84339        0.521293       0.0575077 
        5.85911        0.522044       0.0570949 
        5.87484        0.522779       0.0566862 
        5.89053         0.52422       0.0562822 
        5.90623        0.524776       0.0558819 
        5.92195        0.525201       0.0554848 
        5.93767        0.525225       0.0550917 
        5.95336        0.526853       0.0547031 
        5.96905         0.52755       0.0543182 
        5.98476        0.527092       0.0539365 
        6.00048        0.528156       0.0535583 
        6.01617        0.531057       0.0531842 
        6.03185         0.52965       0.0528141 
        6.04756        0.531688       0.0524466 
        6.06331        0.531739       0.0520817 
        6.07903        0.532525        0.051721 
        6.09473         0.53277       0.0513641 
        6.11044        0.534526       0.0510101 
        6.12616        0.535322       0.0506596 
        6.14186         0.53426       0.0503126 
        6.15755         0.53618       0.0499688 
        6.17326        0.537427        0.049628 
        6.18898         0.53803       0.0492901 
        6.20467        0.538152       0.0489559 
        6.22036        0.538765       0.0486249 
         6.2361        0.539571       0.0482959 
         6.2518        0.540775       0.0479705 
        6.26748        0.539558       0.0476488 
        6.28319        0.541583       0.0473291 
        6.29893        0.543146       0.0470121 
        6.31463        0.543106       0.0466984 
        6.33033        0.544272       0.0463877 
        6.34604        0.543639       0.0460796 
        6.36177        0.544621       0.0457739 
        6.37747        0.545963       0.0454715 
