# k  (h/Mpc)    Pcb(k)  (Mpc/h)^3    Pcb_linear(k) (Mpc/h)^3   ShotnoiseSubtracted = true
      0.0200456         23709.4         24189.6 
      0.0350414         15512.5         16195.7 
      0.0492313         11157.7         11335.2 
      0.0637834         9446.23         9169.71 
      0.0800726         7188.16          6961.7 
       0.096163         4850.91         4904.69 
       0.111083         3902.23         3911.96 
       0.126058         3551.59         3428.11 
       0.142273          3020.5         2798.94 
       0.158546         2604.59         2172.81 
        0.17375          2078.8          1847.7 
       0.188953         2021.81         1660.77 
       0.204907         1874.96         1427.86 
       0.220756         1610.48         1191.33 
        0.23588         1439.88         1044.11 
         0.2514          1245.4         945.997 
       0.267535         1231.55         838.647 
       0.283568         1110.73         730.503 
       0.299022         1049.23         652.735 
       0.314451         994.241         595.901 
       0.330372          909.35         539.652 
       0.346141         859.895         484.808 
       0.361624         825.377         440.182 
       0.377134         765.611         404.548 
       0.392932         728.935         371.467 
       0.408854         714.563          339.67 
       0.424564         656.687         312.117 
       0.440253         646.117         288.783 
       0.455999         615.813         267.725 
       0.471626         593.876         248.214 
        0.48727         565.309         230.536 
       0.502856         548.464         214.979 
       0.518488         540.997         200.866 
       0.534347         505.495         187.653 
       0.550082         489.652          175.62 
       0.565732          487.21         164.793 
       0.581496         456.265         154.839 
       0.597222         447.434         145.683 
       0.612804         437.477         137.295 
       0.628434         423.411         129.558 
       0.644267         411.527         122.346 
       0.660051         398.286         115.697 
       0.675724         393.115         109.573 
       0.691403         378.762         103.883 
       0.707174         365.709         98.5601 
       0.722871         360.322         93.6273 
        0.73838         354.269          89.081 
       0.754018         344.852         84.7991 
       0.769845         337.612         80.7494 
        0.78569         331.663         76.9579 
       0.801365         322.333         73.4449 
       0.817031         312.038         70.1519 
       0.832809         309.457         67.0384 
       0.848511          301.47         64.1264 
       0.864097         293.469         61.4059 
       0.879701         288.475         58.8394 
       0.895507         284.685         56.3882 
       0.911279         276.046         54.0807 
        0.92691         272.865         51.9203 
       0.942635         265.122          49.865 
       0.958396         259.667         47.9158 
       0.974128         254.994         46.0734 
       0.989692         252.122         44.3452 
        1.00528         245.926         42.7024 
        1.02113         242.857         41.1165 
        1.03692         237.178         39.6163 
        1.05264         234.701         38.1973 
        1.06832         228.174         36.8494 
        1.08405         224.733         35.5624 
        1.09979         219.781         34.3357 
        1.11537         217.234         33.1784 
        1.13105         211.885         32.0672 
        1.14679         207.036         31.0022 
        1.16256         204.802         29.9831 
        1.17828         203.046         29.0127 
        1.19395         197.627         28.0883 
         1.2097          195.68          27.199 
        1.22537         191.918         26.3522 
          1.241         190.198         25.5438 
        1.25666         187.124         24.7669 
        1.27241         183.452         24.0184 
        1.28819          180.89         23.2994 
        1.30392         176.572         22.6116 
        1.31957         176.644         21.9544 
        1.33529         172.713         21.3206 
        1.35108         168.441         20.7092 
        1.36674         166.707         20.1259 
         1.3824         166.049         19.5653 
        1.39811         162.827         19.0241 
        1.41389         160.151         18.5011 
        1.42964         158.361         17.9985 
        1.44531         156.026         17.5168 
        1.46101         152.853         17.0516 
        1.47667         150.586         16.6045 
        1.49229         149.902         16.1744 
        1.50793         145.827          15.759 
        1.52367          144.83         15.3554 
        1.53953         142.697          14.963 
        1.55526         139.611         14.5874 
        1.57092         138.237         14.2261 
        1.58662         136.794         13.8761 
        1.60235         134.162          13.537 
        1.61809         133.355          13.209 
        1.63369          130.59         12.8947 
        1.64941         127.699         12.5882 
        1.66519         126.649         12.2906 
        1.68085         125.042         12.0045 
        1.69652         123.912         11.7274 
        1.71228         121.106         11.4574 
        1.72806         119.444         11.1956 
        1.74368         118.591         10.9445 
        1.75933         116.288         10.7006 
        1.77505         115.309         10.4629 
        1.79081         113.922         10.2319 
         1.8065         112.044         10.0088 
        1.82218         110.816         9.79243 
        1.83797         109.209         9.58096 
        1.85367         107.762         9.37684 
        1.86928         105.947         9.17983 
        1.88497         104.883         8.98735 
        1.90073          103.22         8.79962 
        1.91647         101.753         8.61738 
        1.93218         100.742         8.44062 
        1.94787         98.7077         8.26903 
        1.96363         97.6917         8.10149 
        1.97935         96.4212         7.93889 
        1.99499         95.0794         7.78162 
        2.01064         93.7142         7.62834 
         2.0264         92.7001         7.47818 
        2.04216         91.3847          7.3321 
        2.05781         90.4906          7.1908 
        2.07353         89.7101         7.05269 
        2.08928         87.4962         6.91786 
        2.10499          86.611         6.78688 
        2.12065         85.4601         6.65965 
        2.13633         84.4983         6.53554 
        2.15211         83.2675         6.41376 
        2.16785         81.9521         6.29539 
        2.18349         81.0814         6.18072 
        2.19916         80.2356         6.06863 
        2.21489         79.2162         5.95892 
        2.23063         77.9614         5.85183 
         2.2463         77.2603         5.74781 
        2.26194         75.8461         5.64656 
        2.27765         74.8606          5.5472 
        2.29341         74.4235         5.44995 
        2.30914         73.1397         5.35521 
        2.32486         72.5248         5.26275 
        2.34061           71.59         5.17229 
        2.35635         70.3846         5.08402 
        2.37203         69.4469         4.99809 
        2.38768         68.6037          4.9143 
        2.40339         67.8501         4.83211 
        2.41914         66.9853         4.75159 
        2.43483         66.2846         4.67317 
         2.4505         65.1965         4.59663 
        2.46622         64.4492         4.52153 
        2.48195         63.6115         4.44808 
        2.49759         62.6741         4.37663 
        2.51328          62.415         4.30655 
        2.52906         61.3423         4.23755 
        2.54479         60.4917          4.1703 
        2.56049         59.8038         4.10462 
        2.57618          59.314          4.0404 
        2.59189         58.3365         3.97744 
        2.60758         57.6731          3.9159 
        2.62325         57.0585         3.85573 
        2.63898         56.1437          3.7966 
        2.65468         55.6325         3.73882 
        2.67044         55.1018         3.68198 
        2.68618          54.495         3.62645 
        2.70184         54.0865         3.57226 
        2.71755         53.1148         3.51904 
        2.73329         52.5316         3.46681 
        2.74897         52.0646         3.41579 
        2.76462         51.2811         3.36591 
        2.78034         50.8269          3.3168 
        2.79607         50.1911         3.26861 
        2.81179         49.6312         3.22142 
        2.82749         49.0823         3.17521 
        2.84321         48.5513         3.12984 
        2.85893         47.9661         3.08536 
        2.87462           47.42         3.04182 
        2.89033         46.8892         2.99906 
        2.90605         46.2673         2.95708 
        2.92176         45.6987         2.91592 
        2.93747         45.3946         2.87555 
        2.95318         44.8255         2.83593 
        2.96891         44.3372         2.79702 
        2.98456          43.807         2.75902 
        3.00023         43.1328         2.72165 
        3.01596         42.7534         2.68486 
        3.03164         42.2102         2.64884 
        3.04738         41.9819         2.61337 
         3.0631         41.2698         2.57855 
        3.07883         41.0563         2.54436 
        3.09456         40.4324         2.51079 
        3.11026         39.9867         2.47786 
        3.12596         39.3952         2.44553 
        3.14163         39.2459         2.41384 
        3.15734         38.7618         2.38263 
        3.17308         38.2651         2.35189 
        3.18879         37.9824         2.32178 
        3.20447         37.4135         2.29222 
         3.2202         37.1443         2.26309 
         3.2359         36.7724          2.2345 
        3.25157         36.2359         2.20648 
        3.26729         35.8803         2.17884 
        3.28304         35.5889         2.15162 
        3.29877         35.2285         2.12489 
        3.31446         34.5227         2.09867 
        3.33014         34.4655         2.07291 
        3.34585         34.0336         2.04754 
        3.36158         33.7806         2.02255 
        3.37727         33.4691         1.99805 
        3.39294         33.1188         1.97397 
        3.40867         32.6693          1.9502 
        3.42439         32.3327         1.92683 
        3.44008         32.0532         1.90389 
        3.45578         31.6235         1.88129 
        3.47153         31.3924         1.85901 
        3.48724         31.0272         1.83713 
        3.50292         30.7759         1.81564 
        3.51859          30.464         1.79451 
        3.53431         30.0924         1.77364 
        3.55007         29.7072         1.75304 
        3.56577         29.5088         1.73286 
        3.58146         29.2641         1.71299 
        3.59719         28.9117         1.69339 
        3.61292         28.6522          1.6741 
        3.62859         28.3837         1.65517 
        3.64429         28.0534          1.6365 
        3.66003         27.8476         1.61806 
        3.67578         27.5717         1.59991 
        3.69146         27.2977         1.58209 
        3.70712         27.0055         1.56458 
        3.72284         26.7186         1.54727 
        3.73853         26.4607         1.53025 
        3.75422          26.206         1.51347 
        3.76993         26.0117         1.49692 
        3.78564         25.7058         1.48063 
        3.80137         25.4427         1.46455 
        3.81707         25.2208         1.44874 
        3.83279         24.9636         1.43315 
        3.84853         24.7172         1.41776 
        3.86424         24.5775         1.40263 
        3.87992         24.2654         1.38773 
        3.89561         24.1323         1.37305 
        3.91134         23.8308         1.35854 
        3.92704         23.6162         1.34427 
        3.94273         23.2903          1.3302 
        3.95845         23.2178         1.31631 
        3.97418         22.9263         1.30262 
        3.98988         22.6999         1.28913 
        4.00554         22.5258         1.27588 
        4.02125         22.2449         1.26276 
        4.03698         22.1742         1.24981 
        4.05268         21.9908         1.23707 
        4.06839         21.7567         1.22449 
         4.0841          21.525         1.21209 
        4.09983         21.3065         1.19985 
        4.11555         21.0789         1.18777 
        4.13124         20.8761          1.1759 
        4.14693         20.7806         1.16417 
        4.16266         20.5164         1.15257 
        4.17839         20.3095         1.14114 
        4.19408         20.1412         1.12989 
        4.20977         19.9344         1.11878 
        4.22551         19.7537         1.10779 
        4.24123         19.5647         1.09696 
        4.25691         19.4343          1.0863 
        4.27259          19.263         1.07578 
        4.28831         19.1081         1.06538 
        4.30404         18.9595          1.0551 
        4.31974         18.7524         1.04497 
        4.33543         18.5998         1.03499 
        4.35116         18.4049         1.02511 
        4.36688         18.2851         1.01536 
        4.38255         18.1107         1.00577 
        4.39825         17.9729        0.996287 
        4.41398         17.7941        0.986903 
         4.4297         17.6331        0.977649 
        4.44541          17.465        0.968514 
        4.46111         17.3169        0.959501 
        4.47683         17.2127        0.950595 
        4.49251         17.0216        0.941818 
        4.50819          16.873        0.933154 
         4.5239         16.7625        0.924584 
        4.53962         16.6121        0.916111 
        4.55535         16.5183        0.907738 
        4.57106         16.3348        0.899481 
        4.58678         16.1873        0.891323 
         4.6025         16.0774        0.883264 
        4.61821         15.9163        0.875304 
        4.63391         15.7564        0.867452 
         4.6496         15.6835        0.859698 
        4.66532         15.5085        0.852025 
        4.68103         15.3795        0.844449 
        4.69673         15.2436        0.836971 
        4.71241          15.098        0.829589 
        4.72811         14.9836        0.822284 
        4.74384         14.8634        0.815056 
        4.75955         14.7779        0.807925 
        4.77525         14.6217        0.800883 
        4.79096         14.5251        0.793914 
        4.80669         14.3543        0.787025 
         4.8224         14.2642        0.780224 
        4.83809         14.1486        0.773509 
        4.85379         14.0382        0.766868 
         4.8695         13.9358          0.7603 
        4.88521         13.8043         0.75381 
        4.90093         13.6665        0.747394 
        4.91663         13.6058        0.741057 
        4.93234         13.4819        0.734786 
        4.94807         13.3928        0.728583 
        4.96377         13.2511        0.722462 
        4.97943         13.1522        0.716424 
        4.99514         13.0452        0.710438 
        5.01086         12.9412        0.704515 
        5.02654         12.8369        0.698674 
        5.04227         12.7526        0.692882 
          5.058         12.6549        0.687151 
        5.07371         12.5279        0.681496 
        5.08942          12.426        0.675903 
        5.10513          12.328        0.670371 
        5.12084         12.2354        0.664898 
        5.13656         12.1228        0.659487 
        5.15225         12.0677        0.654143 
        5.16796         11.9434         0.64885 
        5.18369          11.864         0.64361 
         5.1994         11.7732        0.638437 
        5.21509          11.696        0.633325 
        5.23079         11.6098        0.628261 
        5.24649         11.5052        0.623257 
        5.26217         11.4053         0.61831 
        5.27788         11.3308        0.613409 
        5.29359          11.257        0.608559 
        5.30933         11.1386        0.603754 
        5.32504         11.0412        0.599009 
        5.34073         10.9778        0.594319 
        5.35646         10.8797         0.58967 
        5.37218         10.8073        0.585068 
        5.38789          10.729        0.580523 
        5.40357         10.6383        0.576031 
        5.41929          10.571        0.571575 
        5.43502         10.4641        0.567166 
         5.4507         10.3956        0.562813 
        5.46639         10.3281        0.558505 
        5.48212         10.2605        0.554231 
        5.49786          10.151        0.549996 
        5.51353         10.0836        0.545826 
        5.52921         10.0225        0.541695 
        5.54495          9.9375        0.537593 
        5.56066         9.88678        0.533539 
        5.57637         9.80502        0.529526 
        5.59207         9.73703        0.525557 
        5.60778         9.65626        0.521627 
        5.62346         9.58342        0.517742 
        5.63916         9.50467        0.513893 
        5.65487         9.42514         0.51008 
         5.6706         9.37933        0.506301 
        5.68633         9.30833        0.502559 
        5.70203         9.23673        0.498861 
        5.71773         9.17402        0.495201 
        5.73344         9.10522        0.491575 
        5.74916         9.04655        0.487982 
        5.76486         8.96264         0.48443 
        5.78054         8.90506        0.480917 
        5.79626         8.85204        0.477429 
          5.812         8.76033        0.473972 
         5.8277         8.71215        0.470559 
        5.84339         8.64833        0.467179 
        5.85911         8.59512        0.463826 
        5.87484         8.52086        0.460505 
        5.89053         8.47106        0.457224 
        5.90623         8.42513        0.453972 
        5.92195         8.36222        0.450746 
        5.93767         8.28186        0.447553 
        5.95336         8.24432        0.444395 
        5.96905          8.1785        0.441269 
        5.98476         8.11564        0.438168 
        6.00048         8.06123        0.435096 
        6.01617         8.01708        0.432056 
        6.03185         7.94164         0.42905 
        6.04756         7.89446        0.426064 
        6.06331          7.8643          0.4231 
        6.07903         7.78036         0.42017 
        6.09473          7.7401         0.41727 
        6.11044         7.67095        0.414395 
        6.12616         7.62617        0.411547 
        6.14186         7.58332        0.408728 
        6.15755         7.51708        0.405935 
        6.17326         7.46541        0.403166 
        6.18898         7.44039        0.400421 
        6.20467         7.38026        0.397707 
        6.22036         7.31882        0.395017 
         6.2361         7.27088        0.392345 
         6.2518         7.21473        0.389702 
        6.26748         7.16113        0.387088 
        6.28319         7.12413        0.384491 
        6.29893         7.06501        0.381915 
        6.31463         7.03061        0.379367 
        6.33033         6.97246        0.376843 
        6.34604          6.9273         0.37434 
        6.36177         6.89203        0.371856 
        6.37747         6.84918          0.3694 
