# k  (h/Mpc)    Pcb(k)  (Mpc/h)^3    Pcb_linear(k) (Mpc/h)^3   ShotnoiseSubtracted = true
      0.0200456         8810.78         8915.24 
      0.0350414         6141.58         5969.04 
      0.0492313         4166.48         4177.69 
      0.0637834         3291.21         3379.57 
      0.0800726         2492.19         2565.79 
       0.096163         1886.55         1807.66 
       0.111083         1522.11         1441.78 
       0.126058         1264.69         1263.46 
       0.142273         1051.82         1031.57 
       0.158546          847.82         800.804 
        0.17375         737.095         680.983 
       0.188953         672.666         612.088 
       0.204907         561.168         526.248 
       0.220756         495.919         439.072 
        0.23588         438.703         384.814 
         0.2514         390.709         348.654 
       0.267535          370.83          309.09 
       0.283568         320.196         269.232 
       0.299022         301.891          240.57 
       0.314451         295.723         219.624 
       0.330372         253.621         198.893 
       0.346141         233.129         178.679 
       0.361624         219.385         162.232 
       0.377134         201.482         149.099 
       0.392932         194.481         136.907 
       0.408854         183.395         125.188 
       0.424564         174.596         115.033 
       0.440253         157.365         106.433 
       0.455999         147.178         98.6719 
       0.471626         143.905          91.481 
        0.48727          137.34         84.9656 
       0.502856         124.871          79.232 
       0.518488         123.397         74.0306 
       0.534347         114.761         69.1611 
       0.550082         111.746          64.726 
       0.565732         109.336         60.7358 
       0.581496         100.224          57.067 
       0.597222         97.8364         53.6926 
       0.612804         93.8565          50.601 
       0.628434         91.3823         47.7494 
       0.644267          86.264         45.0916 
       0.660051         83.6719         42.6409 
       0.675724         81.8069          40.384 
       0.691403         79.7585         38.2868 
       0.707174         76.5518          36.325 
       0.722871         75.0082          34.507 
        0.73838         72.8518         32.8314 
       0.754018         68.2794         31.2533 
       0.769845         67.7571         29.7608 
        0.78569         65.6271         28.3634 
       0.801365          63.287         27.0686 
       0.817031         61.1562          25.855 
       0.832809         59.8515         24.7075 
       0.848511         58.4608         23.6343 
       0.864097         57.1937         22.6316 
       0.879701         55.9253         21.6857 
       0.895507         53.7545         20.7823 
       0.911279         52.6816         19.9318 
        0.92691         51.3747         19.1356 
       0.942635         49.9919         18.3781 
       0.958396         49.9049         17.6597 
       0.974128         48.5868         16.9807 
       0.989692         47.1664         16.3438 
        1.00528         46.2077         15.7383 
        1.02113         45.0643         15.1538 
        1.03692         44.8466         14.6009 
        1.05264          43.844         14.0779 
        1.06832         42.5496         13.5811 
        1.08405         41.8052         13.1068 
        1.09979         41.4171         12.6547 
        1.11537         40.2441         12.2282 
        1.13105         39.2811         11.8186 
        1.14679         38.8102         11.4261 
        1.16256         38.1417         11.0505 
        1.17828         37.7041         10.6929 
        1.19395         36.5799         10.3521 
         1.2097         36.5884         10.0244 
        1.22537         35.5318         9.71232 
          1.241         35.2837         9.41434 
        1.25666         34.1487         9.12803 
        1.27241         34.0463         8.85217 
        1.28819         33.3712         8.58716 
        1.30392         32.7166         8.33367 
        1.31957          32.513         8.09144 
        1.33529         31.9514         7.85787 
        1.35108         31.3941         7.63252 
        1.36674         30.7805         7.41754 
         1.3824         30.3222         7.21095 
        1.39811         29.8002         7.01148 
        1.41389         29.3636         6.81873 
        1.42964         29.1855         6.63348 
        1.44531         28.5563         6.45595 
        1.46101         28.2764         6.28449 
        1.47667          27.889          6.1197 
        1.49229         27.3236         5.96121 
        1.50793         27.1633          5.8081 
        1.52367         26.6265         5.65934 
        1.53953         26.5021         5.51474 
        1.55526         25.9482          5.3763 
        1.57092         25.6919         5.24314 
        1.58662         25.3244         5.11413 
        1.60235           24.94         4.98917 
        1.61809         24.6518         4.86828 
        1.63369         24.3032         4.75243 
        1.64941         23.9707         4.63949 
        1.66519         23.6945         4.52978 
        1.68085          23.299         4.42436 
        1.69652         23.0258         4.32223 
        1.71228         22.9127         4.22272 
        1.72806         22.5208         4.12623 
        1.74368          22.151         4.03369 
        1.75933         22.0499         3.94378 
        1.77505         21.7871         3.85616 
        1.79081         21.4957         3.77103 
         1.8065         21.2365          3.6888 
        1.82218         20.9202         3.60907 
        1.83797         20.7854         3.53113 
        1.85367         20.4826          3.4559 
        1.86928         20.4412         3.38329 
        1.88497         20.0425         3.31235 
        1.90073         19.8796         3.24317 
        1.91647         19.6406           3.176 
        1.93218         19.5071         3.11085 
        1.94787         19.2641         3.04761 
        1.96363         18.9794         2.98586 
        1.97935         18.7935         2.92594 
        1.99499          18.657         2.86797 
        2.01064         18.3247         2.81148 
         2.0264         18.2266         2.75614 
        2.04216         18.1295          2.7023 
        2.05781         17.8607         2.65022 
        2.07353         17.6643         2.59932 
        2.08928         17.4452         2.54963 
        2.10499         17.2299         2.50136 
        2.12065         17.0553         2.45447 
        2.13633         16.9529         2.40872 
        2.15211         16.6624         2.36384 
        2.16785         16.6211         2.32021 
        2.18349         16.4161         2.27795 
        2.19916         16.2441         2.23664 
        2.21489         16.0405         2.19621 
        2.23063          15.936         2.15673 
         2.2463         15.7857          2.1184 
        2.26194         15.5406         2.08108 
        2.27765         15.4306         2.04446 
        2.29341         15.1885         2.00862 
        2.30914         15.0757          1.9737 
        2.32486         14.9904         1.93962 
        2.34061         14.7865         1.90629 
        2.35635         14.6044         1.87375 
        2.37203         14.5056         1.84208 
        2.38768         14.3275          1.8112 
        2.40339         14.2802         1.78091 
        2.41914         14.1445         1.75124 
        2.43483         14.0232         1.72233 
         2.4505         13.7719         1.69412 
        2.46622          13.676         1.66644 
        2.48195         13.5673         1.63937 
        2.49759         13.3842         1.61304 
        2.51328         13.2568         1.58721 
        2.52906         13.1541         1.56178 
        2.54479         13.0554         1.53699 
        2.56049          12.926         1.51279 
        2.57618         12.8345         1.48912 
        2.59189         12.6636         1.46591 
        2.60758         12.5109         1.44324 
        2.62325         12.4114         1.42106 
        2.63898          12.369         1.39927 
        2.65468         12.2219         1.37797 
        2.67044         12.0892         1.35702 
        2.68618         11.9444         1.33655 
        2.70184         11.8718         1.31658 
        2.71755         11.7237         1.29697 
        2.73329         11.6423         1.27772 
        2.74897         11.5502         1.25892 
        2.76462         11.4478         1.24053 
        2.78034         11.3168         1.22243 
        2.79607         11.2361         1.20467 
        2.81179         11.1715         1.18728 
        2.82749         11.0205         1.17025 
        2.84321         10.9526         1.15353 
        2.85893         10.8252         1.13713 
        2.87462         10.7312         1.12108 
        2.89033         10.6424         1.10533 
        2.90605         10.5469         1.08985 
        2.92176         10.4454         1.07468 
        2.93747          10.383          1.0598 
        2.95318         10.2879          1.0452 
        2.96891         10.1675         1.03086 
        2.98456         10.1007         1.01686 
        3.00023         10.0231         1.00309 
        3.01596         9.95339        0.989523 
        3.03164         9.85134        0.976248 
        3.04738         9.76077        0.963175 
         3.0631         9.66612        0.950344 
        3.07883         9.59308        0.937742 
        3.09456         9.48536        0.925369 
        3.11026         9.42572        0.913235 
        3.12596         9.35799        0.901318 
        3.14163         9.25006        0.889639 
        3.15734         9.18877        0.878136 
        3.17308         9.13186        0.866808 
        3.18879         9.03319        0.855708 
        3.20447          8.9887        0.844816 
         3.2202         8.87709        0.834078 
         3.2359          8.7998        0.823543 
        3.25157         8.74956        0.813214 
        3.26729         8.64094        0.803028 
        3.28304         8.58876        0.792995 
        3.29877         8.54746        0.783144 
        3.31446         8.45725         0.77348 
        3.33014         8.40686        0.763986 
        3.34585         8.29421        0.754635 
        3.36158         8.24753        0.745425 
        3.37727          8.1775        0.736396 
        3.39294         8.11939        0.727523 
        3.40867         8.04376        0.718762 
        3.42439         7.97553        0.710149 
        3.44008         7.91523        0.701692 
        3.45578         7.84227        0.693365 
        3.47153          7.7867        0.685153 
        3.48724         7.71922        0.677087 
        3.50292         7.65148        0.669168 
        3.51859         7.59926        0.661378 
        3.53431         7.53552        0.653687 
        3.55007         7.47524        0.646098 
        3.56577         7.37787        0.638657 
        3.58146         7.34269        0.631336 
        3.59719         7.27587        0.624111 
        3.61292         7.24389        0.617001 
        3.62859         7.17524        0.610027 
        3.64429         7.10747        0.603145 
        3.66003         7.04725        0.596348 
        3.67578         7.00588        0.589657 
        3.69146          6.9429        0.583093 
        3.70712         6.89303        0.576639 
        3.72284         6.83697        0.570258 
        3.73853          6.7906        0.563984 
        3.75422          6.7464          0.5578 
        3.76993         6.67189        0.551703 
        3.78564         6.64623        0.545698 
        3.80137         6.57362        0.539772 
        3.81707         6.50442        0.533945 
        3.83279         6.46065        0.528199 
        3.84853         6.42336        0.522527 
        3.86424         6.35699        0.516948 
        3.87992         6.33807        0.511458 
        3.89561         6.26892        0.506047 
        3.91134         6.21656        0.500702 
        3.92704         6.18264        0.495439 
        3.94273         6.13411        0.490256 
        3.95845         6.06925        0.485138 
        3.97418         6.03352         0.48009 
        3.98988         5.99457         0.47512 
        4.00554         5.93536        0.470233 
        4.02125         5.90392          0.4654 
        4.03698         5.86282        0.460627 
        4.05268         5.79362        0.455931 
        4.06839         5.75262        0.451296 
         4.0841         5.71736        0.446726 
        4.09983          5.6553        0.442213 
        4.11555         5.61783        0.437762 
        4.13124         5.56983        0.433385 
        4.14693         5.52639        0.429063 
        4.16266         5.49744        0.424789 
        4.17839         5.43871        0.420575 
        4.19408         5.42017        0.416428 
        4.20977         5.36315        0.412334 
        4.22551          5.3391        0.408284 
        4.24123          5.2858        0.404292 
        4.25691         5.24824        0.400365 
        4.27259         5.20635        0.396487 
        4.28831         5.16768        0.392652 
        4.30404         5.12266        0.388864 
        4.31974         5.08201        0.385133 
        4.33543         5.03218        0.381453 
        4.35116         5.00069        0.377812 
        4.36688         4.96532        0.374219 
        4.38255         4.94783        0.370685 
        4.39825         4.89815        0.367189 
        4.41398         4.83742        0.363731 
         4.4297         4.82369         0.36032 
        4.44541         4.79667        0.356953 
        4.46111         4.75802        0.353631 
        4.47683         4.73022        0.350349 
        4.49251         4.69785        0.347114 
        4.50819         4.64113        0.343921 
         4.5239         4.60673        0.340762 
        4.53962         4.59095        0.337639 
        4.55535         4.54896        0.334554 
        4.57106         4.52075         0.33151 
        4.58678          4.4869        0.328504 
         4.6025         4.45673        0.325533 
        4.61821         4.42166          0.3226 
        4.63391         4.39774        0.319706 
         4.6496         4.36274        0.316848 
        4.66532         4.32231         0.31402 
        4.68103          4.2996        0.311228 
        4.69673         4.26697        0.308472 
        4.71241         4.24461        0.305751 
        4.72811         4.20564        0.303059 
        4.74384         4.18205        0.300395 
        4.75955         4.14737        0.297767 
        4.77525         4.12457        0.295171 
        4.79096          4.1007        0.292603 
        4.80669         4.06583        0.290064 
         4.8224          4.0365        0.287557 
        4.83809         3.99989        0.285082 
        4.85379         3.98245        0.282635 
         4.8695         3.95241        0.280214 
        4.88521         3.93109        0.277822 
        4.90093         3.89427        0.275457 
        4.91663         3.87012        0.273122 
        4.93234         3.84065        0.270811 
        4.94807         3.81688        0.268525 
        4.96377         3.78543        0.266269 
        4.97943         3.76428        0.264043 
        4.99514         3.74808        0.261837 
        5.01086         3.71126        0.259654 
        5.02654         3.69132        0.257502 
        5.04227         3.67041        0.255367 
          5.058         3.63404        0.253255 
        5.07371         3.61579         0.25117 
        5.08942         3.60031        0.249109 
        5.10513         3.56917         0.24707 
        5.12084         3.55259        0.245053 
        5.13656         3.52195        0.243059 
        5.15225          3.4963        0.241089 
        5.16796         3.47593        0.239139 
        5.18369         3.44872        0.237207 
         5.1994         3.43362        0.235301 
        5.21509         3.41615        0.233416 
        5.23079         3.38558         0.23155 
        5.24649         3.36293        0.229706 
        5.26217         3.34497        0.227883 
        5.27788         3.32316        0.226076 
        5.29359         3.29812        0.224289 
        5.30933         3.28179        0.222518 
        5.32504         3.25372        0.220769 
        5.34073         3.23875        0.219041 
        5.35646         3.22481        0.217327 
        5.37218         3.20324        0.215631 
        5.38789          3.1773        0.213956 
        5.40357         3.15376          0.2123 
        5.41929         3.13351        0.210658 
        5.43502         3.11936        0.209033 
         5.4507         3.09145        0.207429 
        5.46639         3.07076        0.205841 
        5.48212         3.06323        0.204266 
        5.49786         3.03959        0.202705 
        5.51353         3.02084        0.201168 
        5.52921          2.9993        0.199646 
        5.54495         2.98472        0.198134 
        5.56066         2.96576         0.19664 
        5.57637         2.94355        0.195161 
        5.59207         2.92824        0.193698 
        5.60778         2.91163        0.192249 
        5.62346         2.89495        0.190818 
        5.63916         2.87861        0.189399 
        5.65487         2.85785        0.187994 
         5.6706         2.83777        0.186601 
        5.68633         2.81888        0.185222 
        5.70203         2.80552        0.183859 
        5.71773         2.79073         0.18251 
        5.73344         2.77525        0.181174 
        5.74916         2.75199         0.17985 
        5.76486         2.73959         0.17854 
        5.78054         2.72212        0.177246 
        5.79626         2.70998         0.17596 
          5.812         2.68965        0.174686 
         5.8277         2.67532        0.173428 
        5.84339         2.65667        0.172182 
        5.85911         2.64461        0.170946 
        5.87484          2.6266        0.169723 
        5.89053         2.61123        0.168513 
        5.90623         2.59878        0.167315 
        5.92195         2.58445        0.166126 
        5.93767          2.5671        0.164949 
        5.95336         2.55647        0.163785 
        5.96905         2.53829        0.162633 
        5.98476         2.52125         0.16149 
        6.00048         2.50978        0.160358 
        6.01617         2.49451        0.159238 
        6.03185          2.4823        0.158129 
        6.04756         2.46794        0.157029 
        6.06331          2.4584        0.155937 
        6.07903         2.44057        0.154857 
        6.09473         2.42463        0.153788 
        6.11044         2.40937        0.152728 
        6.12616         2.40156        0.151679 
        6.14186         2.38295         0.15064 
        6.15755           2.373         0.14961 
        6.17326         2.35719         0.14859 
        6.18898         2.34058        0.147578 
        6.20467         2.33559        0.146578 
        6.22036         2.32097        0.145587 
         6.2361         2.30617        0.144602 
         6.2518         2.29148        0.143627 
        6.26748         2.28274        0.142664 
        6.28319         2.27315        0.141707 
        6.29893         2.25901        0.140758 
        6.31463         2.24753        0.139819 
        6.33033         2.23147        0.138888 
        6.34604         2.22235        0.137966 
        6.36177         2.21068         0.13705 
        6.37747         2.19767        0.136145 
