# k  (h/Mpc)    Pcb(k)  (Mpc/h)^3    Pcb_linear(k) (Mpc/h)^3   ShotnoiseSubtracted = true
      0.0200456         12190.8         12387.8 
      0.0350414         8073.36         8294.01 
      0.0492313         5774.57         5804.92 
      0.0637834         4816.73         4695.92 
      0.0800726          3667.3         3565.17 
       0.096163         2489.37         2511.75 
       0.111083         1981.45         2003.36 
       0.126058         1803.35         1755.58 
       0.142273         1520.42         1433.37 
       0.158546          1252.3         1112.72 
        0.17375         1005.09         946.229 
       0.188953         963.751         850.499 
       0.204907         888.093         731.224 
       0.220756         746.944         610.093 
        0.23588         656.946         534.701 
         0.2514         571.011         484.457 
       0.267535         548.708         429.482 
       0.283568         493.521         374.099 
       0.299022         459.098         334.274 
       0.314451         428.112         305.168 
       0.330372         392.756         276.363 
       0.346141         352.598         248.276 
       0.361624         339.174         225.423 
       0.377134         313.381         207.174 
       0.392932         294.287         190.233 
       0.408854         281.181         173.949 
       0.424564         266.144         159.839 
       0.440253         256.154         147.889 
       0.455999         239.597         137.105 
       0.471626         223.472         127.113 
        0.48727         214.665          118.06 
       0.502856         207.039         110.093 
       0.518488         203.804         102.866 
       0.534347         191.612         96.0996 
       0.550082         179.118          89.937 
       0.565732         174.779         84.3927 
       0.581496          165.51         79.2949 
       0.597222         160.977         74.6062 
       0.612804         154.912         70.3104 
       0.628434         149.083         66.3481 
       0.644267         143.965          62.655 
       0.660051         141.947         59.2498 
       0.675724         137.882         56.1138 
       0.691403         133.507         53.1996 
       0.707174         127.887         50.4738 
       0.722871         126.204         47.9477 
        0.73838         123.207         45.6195 
       0.754018         119.142         43.4267 
       0.769845         115.482         41.3527 
        0.78569         113.309         39.4111 
       0.801365         109.479          37.612 
       0.817031         105.827         35.9257 
       0.832809         104.378         34.3312 
       0.848511         100.978         32.8399 
       0.864097          99.065         31.4467 
       0.879701         96.8425         30.1324 
       0.895507          94.399         28.8771 
       0.911279          92.283         27.6954 
        0.92691         91.2388          26.589 
       0.942635         88.3751         25.5365 
       0.958396         88.0913         24.5383 
       0.974128         85.5636         23.5948 
       0.989692         83.4085         22.7097 
        1.00528         81.4754         21.8684 
        1.02113         80.7245         21.0563 
        1.03692         77.7698          20.288 
        1.05264         77.3485         19.5613 
        1.06832         75.2591          18.871 
        1.08405         73.9867         18.2119 
        1.09979         73.6743         17.5837 
        1.11537         71.1305         16.9911 
        1.13105         70.8865          16.422 
        1.14679         69.7147         15.8766 
        1.16256         68.5927         15.3547 
        1.17828         67.0243         14.8578 
        1.19395          65.745         14.3843 
         1.2097          64.336          13.929 
        1.22537         64.3251         13.4953 
          1.241         62.8147         13.0813 
        1.25666         61.3917         12.6834 
        1.27241         60.4857         12.3001 
        1.28819          59.457         11.9319 
        1.30392         58.6785         11.5797 
        1.31957         57.9451         11.2431 
        1.33529         56.6825         10.9186 
        1.35108         56.2393         10.6054 
        1.36674         55.6799         10.3067 
         1.3824         54.3675         10.0197 
        1.39811         53.6712         9.74249 
        1.41389         52.9446         9.47466 
        1.42964         52.2035         9.21725 
        1.44531         51.1539         8.97058 
        1.46101          50.324         8.73233 
        1.47667         50.3594         8.50336 
        1.49229         49.3553         8.28313 
        1.50793         49.0343         8.07039 
        1.52367          47.913         7.86368 
        1.53953         47.2536         7.66276 
        1.55526         46.8959         7.47039 
        1.57092         46.5404         7.28536 
        1.58662         45.5538          7.1061 
        1.60235         45.1535         6.93247 
        1.61809         44.5442          6.7645 
        1.63369         43.8004         6.60353 
        1.64941          43.501          6.4466 
        1.66519         42.4077         6.29415 
        1.68085          42.294         6.14767 
        1.69652         41.4649         6.00577 
        1.71228         41.1996         5.86749 
        1.72806         40.7554         5.73342 
        1.74368         40.0769         5.60484 
        1.75933         39.6878         5.47991 
        1.77505         39.1667         5.35816 
        1.79081         38.7585         5.23986 
         1.8065         38.3064         5.12561 
        1.82218         37.7968         5.01483 
        1.83797         37.2585         4.90653 
        1.85367          36.886           4.802 
        1.86928         36.2539          4.7011 
        1.88497         36.1447         4.60253 
        1.90073         35.5496          4.5064 
        1.91647         35.2395         4.41306 
        1.93218         34.9278         4.32255 
        1.94787         34.3948         4.23468 
        1.96363         34.0017         4.14887 
        1.97935         33.5719          4.0656 
        1.99499         33.2361         3.98506 
        2.01064         32.8924         3.90657 
         2.0264         32.2036         3.82967 
        2.04216         32.1695         3.75486 
        2.05781         31.6579          3.6825 
        2.07353         31.3047         3.61177 
        2.08928         31.1185         3.54272 
        2.10499         30.5921         3.47565 
        2.12065          30.227         3.41049 
        2.13633         30.0344         3.34693 
        2.15211         29.7632         3.28457 
        2.16785         29.2141         3.22395 
        2.18349         28.9264         3.16522 
        2.19916         28.6878         3.10782 
        2.21489         28.3974         3.05164 
        2.23063         27.9872         2.99679 
         2.2463         27.6627         2.94353 
        2.26194         27.3017         2.89167 
        2.27765         27.0594         2.84079 
        2.29341         26.7701         2.79099 
        2.30914         26.5114         2.74247 
        2.32486         26.1072         2.69512 
        2.34061         25.9615         2.64879 
        2.35635         25.6624         2.60359 
        2.37203          25.379         2.55958 
        2.38768         25.1222         2.51668 
        2.40339         24.9142         2.47459 
        2.41914         24.6618         2.43335 
        2.43483         24.2784         2.39319 
         2.4505         24.0992         2.35399 
        2.46622         23.8203         2.31553 
        2.48195         23.6431         2.27791 
        2.49759         23.3744         2.24133 
        2.51328         23.0211         2.20544 
        2.52906         22.8523          2.1701 
        2.54479         22.5659         2.13566 
        2.56049         22.3743         2.10203 
        2.57618         22.1221         2.06914 
        2.59189         21.9657         2.03689 
        2.60758         21.7733         2.00538 
        2.62325         21.4676         1.97457 
        2.63898         21.3042         1.94429 
        2.65468         21.0322          1.9147 
        2.67044         20.8867         1.88559 
        2.68618         20.6433         1.85715 
        2.70184         20.3951          1.8294 
        2.71755         20.2655         1.80214 
        2.73329         20.0298         1.77539 
        2.74897         19.7852         1.74927 
        2.76462         19.5692         1.72372 
        2.78034         19.5001         1.69857 
        2.79607           19.35          1.6739 
        2.81179          19.079         1.64973 
        2.82749         18.9122         1.62606 
        2.84321         18.6631         1.60283 
        2.85893         18.4225         1.58005 
        2.87462         18.3112         1.55775 
        2.89033         18.1907         1.53586 
        2.90605         17.9743         1.51436 
        2.92176         17.8406         1.49328 
        2.93747         17.6816          1.4726 
        2.95318         17.4596         1.45231 
        2.96891         17.3112         1.43239 
        2.98456         17.1233         1.41293 
        3.00023         16.9313         1.39379 
        3.01596         16.7434         1.37495 
        3.03164         16.6428          1.3565 
        3.04738          16.459         1.33834 
         3.0631         16.3242         1.32051 
        3.07883         16.2311           1.303 
        3.09456         15.9927          1.2858 
        3.11026         15.8603         1.26894 
        3.12596         15.7164         1.25239 
        3.14163         15.5851         1.23616 
        3.15734         15.4608         1.22018 
        3.17308         15.2608         1.20443 
        3.18879         15.1773         1.18901 
        3.20447         15.0058         1.17388 
         3.2202         14.8469         1.15896 
         3.2359          14.699         1.14432 
        3.25157         14.6208         1.12996 
        3.26729         14.4758         1.11581 
        3.28304         14.3254         1.10187 
        3.29877         14.1979         1.08818 
        3.31446         14.0043         1.07475 
        3.33014         13.9252         1.06156 
        3.34585         13.7824         1.04857 
        3.36158         13.6622         1.03577 
        3.37727         13.5061         1.02323 
        3.39294         13.3916          1.0109 
        3.40867         13.2526        0.998723 
        3.42439         13.1732        0.986755 
        3.44008         13.0705        0.975004 
        3.45578         12.8989        0.963434 
        3.47153         12.7915        0.952023 
        3.48724         12.6703        0.940816 
        3.50292         12.6203        0.929813 
        3.51859          12.439        0.918988 
        3.53431         12.3526        0.908301 
        3.55007          12.233        0.897756 
        3.56577         12.0932        0.887418 
        3.58146         12.0142        0.877244 
        3.59719         11.8863        0.867206 
        3.61292         11.8075        0.857326 
        3.62859         11.6754        0.847635 
        3.64429         11.6016        0.838074 
        3.66003         11.5006        0.828629 
        3.67578         11.4131        0.819332 
        3.69146          11.319         0.81021 
        3.70712         11.1985        0.801243 
        3.72284          11.118        0.792376 
        3.73853         10.9995        0.783658 
        3.75422         10.8578        0.775066 
        3.76993          10.804        0.766594 
        3.78564         10.6883         0.75825 
        3.80137         10.6133        0.750016 
        3.81707         10.5126         0.74192 
        3.83279         10.4544        0.733935 
        3.84853         10.3226        0.726053 
        3.86424         10.2361        0.718302 
        3.87992         10.1371        0.710674 
        3.89561         10.0467        0.703154 
        3.91134         9.98139        0.695727 
        3.92704         9.87364        0.688415 
        3.94273         9.79871        0.681214 
        3.95845         9.72576        0.674101 
        3.97418         9.62938        0.667087 
        3.98988         9.54428        0.660182 
        4.00554         9.48539        0.653392 
        4.02125         9.41788        0.646676 
        4.03698         9.28789        0.640044 
        4.05268         9.20807        0.633519 
        4.06839         9.16059        0.627078 
         4.0841         9.07932        0.620729 
        4.09983         8.96549        0.614457 
        4.11555         8.92857        0.608273 
        4.13124         8.83592        0.602191 
        4.14693         8.77921        0.596185 
        4.16266         8.68545        0.590247 
        4.17839         8.62037        0.584392 
        4.19408         8.54597        0.578629 
        4.20977         8.49087         0.57294 
        4.22551         8.38755        0.567313 
        4.24123         8.33835        0.561766 
        4.25691         8.25701        0.556309 
        4.27259         8.20922         0.55092 
        4.28831         8.12606        0.545592 
        4.30404         8.05523        0.540328 
        4.31974         7.99211        0.535145 
        4.33543         7.93165        0.530031 
        4.35116         7.86918        0.524971 
        4.36688         7.81517        0.519979 
        4.38255         7.75449        0.515069 
        4.39825         7.67561        0.510211 
        4.41398         7.63312        0.505405 
         4.4297         7.53887        0.500666 
        4.44541         7.49648        0.495988 
        4.46111         7.44299        0.491372 
        4.47683         7.37166        0.486811 
        4.49251         7.30601        0.482317 
        4.50819         7.26677         0.47788 
         4.5239         7.19541        0.473491 
        4.53962         7.13746        0.469152 
        4.55535         7.07635        0.464864 
        4.57106         7.00246        0.460635 
        4.58678         6.96908        0.456458 
         4.6025         6.90526         0.45233 
        4.61821          6.8405        0.448254 
        4.63391         6.78954        0.444233 
         4.6496         6.76517        0.440262 
        4.66532         6.69676        0.436333 
        4.68103         6.64253        0.432453 
        4.69673         6.60221        0.428623 
        4.71241         6.54347        0.424843 
        4.72811         6.48403        0.421102 
        4.74384         6.43553          0.4174 
        4.75955         6.39262        0.413749 
        4.77525         6.35928        0.410142 
        4.79096         6.28064        0.406573 
        4.80669         6.24641        0.403045 
         4.8224         6.20219        0.399562 
        4.83809         6.13518        0.396124 
        4.85379         6.08971        0.392723 
         4.8695         6.05801        0.389359 
        4.88521         6.00718        0.386035 
        4.90093          5.9455         0.38275 
        4.91663         5.92161        0.379504 
        4.93234         5.86278        0.376293 
        4.94807         5.82691        0.373116 
        4.96377         5.77211        0.369982 
        4.97943         5.74328         0.36689 
        4.99514         5.69182        0.363824 
        5.01086         5.65963        0.360791 
        5.02654         5.60084          0.3578 
        5.04227          5.5779        0.354833 
          5.058         5.52203        0.351899 
        5.07371         5.49111        0.349003 
        5.08942         5.44008        0.346138 
        5.10513         5.39688        0.343306 
        5.12084         5.36704        0.340503 
        5.13656         5.32456        0.337731 
        5.15225         5.28952        0.334995 
        5.16796         5.24704        0.332284 
        5.18369         5.20418        0.329601 
         5.1994         5.16317        0.326952 
        5.21509          5.1429        0.324333 
        5.23079         5.08731         0.32174 
        5.24649         5.04946        0.319178 
        5.26217         5.01536        0.316644 
        5.27788         4.99369        0.314134 
        5.29359         4.95266        0.311651 
        5.30933         4.92347         0.30919 
        5.32504         4.87378         0.30676 
        5.34073         4.84648        0.304358 
        5.35646         4.81978        0.301977 
        5.37218         4.78984        0.299621 
        5.38789         4.74643        0.297293 
        5.40357         4.71129        0.294992 
        5.41929         4.67656        0.292711 
        5.43502         4.64786        0.290453 
         5.4507         4.62073        0.288224 
        5.46639         4.58688        0.286017 
        5.48212         4.55321        0.283829 
        5.49786         4.52258         0.28166 
        5.51353          4.4769        0.279524 
        5.52921         4.45695        0.277409 
        5.54495         4.43087        0.275308 
        5.56066         4.40677        0.273232 
        5.57637           4.368        0.271177 
        5.59207         4.33667        0.269144 
        5.60778         4.30534        0.267132 
        5.62346         4.27348        0.265142 
        5.63916         4.24998        0.263171 
        5.65487         4.21523        0.261218 
         5.6706         4.19254        0.259283 
        5.68633         4.16288        0.257366 
        5.70203         4.13608        0.255473 
        5.71773         4.10021        0.253599 
        5.73344         4.07961        0.251742 
        5.74916         4.05422        0.249902 
        5.76486         4.02983        0.248082 
        5.78054         4.00315        0.246284 
        5.79626          3.9719        0.244498 
          5.812         3.95155        0.242727 
         5.8277         3.92461        0.240979 
        5.84339         3.89485        0.239248 
        5.85911         3.87227        0.237531 
        5.87484         3.85005         0.23583 
        5.89053          3.8238         0.23415 
        5.90623         3.80335        0.232485 
        5.92195         3.77262        0.230833 
        5.93767         3.75037        0.229197 
        5.95336         3.72395         0.22758 
        5.96905         3.70519        0.225979 
        5.98476         3.67575        0.224391 
        6.00048         3.66104        0.222818 
        6.01617          3.6331        0.221261 
        6.03185         3.60609        0.219722 
        6.04756         3.58516        0.218193 
        6.06331         3.56066        0.216675 
        6.07903         3.54184        0.215174 
        6.09473          3.5195        0.213689 
        6.11044         3.50024        0.212217 
        6.12616         3.46791        0.210758 
        6.14186         3.44446        0.209315 
        6.15755         3.43323        0.207884 
        6.17326         3.41406        0.206466 
        6.18898         3.38906        0.205061 
        6.20467         3.36468        0.203671 
        6.22036         3.34751        0.202293 
         6.2361         3.32389        0.200925 
         6.2518         3.30511        0.199571 
        6.26748         3.28975        0.198233 
        6.28319          3.2593        0.196903 
        6.29893         3.23887        0.195584 
        6.31463         3.22012        0.194279 
        6.33033         3.20843        0.192986 
        6.34604         3.18787        0.191704 
        6.36177         3.16617        0.190432 
        6.37747         3.14767        0.189174 
