# k  (h/Mpc)    Pcb(k)  (Mpc/h)^3    Pcb_linear(k) (Mpc/h)^3   ShotnoiseSubtracted = true
      0.0200456         14025.1         14261.1 
      0.0350414         9267.69         9548.28 
      0.0492313         6636.64         6682.77 
      0.0637834         5551.11         5406.07 
      0.0800726          4226.2         4104.32 
       0.096163         2864.32         2891.59 
       0.111083          2283.1         2306.32 
       0.126058          2079.7         2021.07 
       0.142273         1756.56         1650.13 
       0.158546         1458.79         1280.99 
        0.17375         1168.05         1089.32 
       0.188953         1124.21         979.116 
       0.204907         1037.74         841.804 
       0.220756         876.624         702.355 
        0.23588         772.882         615.562 
         0.2514          670.11         557.719 
       0.267535         648.482          494.43 
       0.283568         583.637         430.673 
       0.299022         544.707         384.824 
       0.314451         510.787         351.318 
       0.330372         468.329         318.156 
       0.346141         423.104         285.822 
       0.361624         407.367         259.512 
       0.377134         375.718         238.504 
       0.392932         355.585         219.001 
       0.408854         340.566         200.255 
       0.424564         320.761         184.011 
       0.440253         311.032         170.254 
       0.455999         291.156         157.839 
       0.471626         273.159         146.336 
        0.48727         262.021         135.914 
       0.502856         253.212         126.742 
       0.518488         249.886         118.422 
       0.534347         234.141         110.632 
       0.550082         220.339         103.538 
       0.565732         216.204         97.1551 
       0.581496         203.914         91.2864 
       0.597222          199.13         85.8886 
       0.612804         192.386         80.9431 
       0.628434         184.395         76.3816 
       0.644267         178.343         72.1301 
       0.660051         175.649         68.2099 
       0.675724         171.202         64.5996 
       0.691403         166.019         61.2448 
       0.707174         159.341         58.1068 
       0.722871         156.986         55.1986 
        0.73838         153.465         52.5183 
       0.754018         149.351         49.9939 
       0.769845         144.057         47.6063 
        0.78569         142.366          45.371 
       0.801365         137.028         43.2999 
       0.817031          132.84         41.3585 
       0.832809         131.213          39.523 
       0.848511         126.981         37.8062 
       0.864097         125.203         36.2023 
       0.879701         122.215         34.6892 
       0.895507          118.86         33.2441 
       0.911279         115.767         31.8836 
        0.92691         115.159           30.61 
       0.942635         111.594         29.3983 
       0.958396         111.327         28.2491 
       0.974128         108.205         27.1629 
       0.989692         105.566          26.144 
        1.00528         103.446         25.1755 
        1.02113          102.45         24.2405 
        1.03692         98.9946         23.3561 
        1.05264         97.6212         22.5195 
        1.06832         95.5324         21.7248 
        1.08405         93.9628         20.9661 
        1.09979         93.4636         20.2428 
        1.11537         90.4838         19.5606 
        1.13105         89.7061         18.9054 
        1.14679         88.7428         18.2776 
        1.16256         87.3959         17.6767 
        1.17828         85.4756         17.1047 
        1.19395         83.7527         16.5596 
         1.2097         82.3226         16.0354 
        1.22537         81.7838         15.5362 
          1.241         80.0807         15.0595 
        1.25666         78.4733         14.6015 
        1.27241         77.1761         14.1602 
        1.28819          76.054         13.7363 
        1.30392         74.6578         13.3308 
        1.31957         73.9257         12.9433 
        1.33529         72.2635         12.5697 
        1.35108         71.5104         12.2092 
        1.36674         70.8778         11.8653 
         1.3824         69.3045         11.5349 
        1.39811         68.3714         11.2158 
        1.41389          67.487         10.9075 
        1.42964         66.1527         10.6111 
        1.44531         64.9696         10.3272 
        1.46101         63.9927         10.0529 
        1.47667          63.985         9.78928 
        1.49229         62.6285         9.53576 
        1.50793         62.1725         9.29084 
        1.52367         60.9408         9.05287 
        1.53953          59.949         8.82157 
        1.55526         59.5078         8.60011 
        1.57092         59.0891          8.3871 
        1.58662         57.5722         8.18073 
        1.60235         57.3487         7.98084 
        1.61809         56.4092         7.78747 
        1.63369         55.7499         7.60215 
        1.64941         55.3207         7.42149 
        1.66519          53.718         7.24599 
        1.68085         53.6363         7.07736 
        1.69652         52.4756         6.91399 
        1.71228         52.2686         6.75481 
        1.72806         51.6385         6.60046 
        1.74368         50.8831         6.45243 
        1.75933         50.0584         6.30861 
        1.77505         49.7208         6.16845 
        1.79081         48.9728         6.03227 
         1.8065          48.271         5.90073 
        1.82218         47.7296          5.7732 
        1.83797         47.1879         5.64852 
        1.85367         46.7654         5.52818 
        1.86928         46.0979         5.41203 
        1.88497         45.5776         5.29856 
        1.90073         44.8138         5.18788 
        1.91647         44.6862         5.08043 
        1.93218         44.1254         4.97623 
        1.94787         43.4222         4.87507 
        1.96363         42.9215         4.77629 
        1.97935         42.5439         4.68043 
        1.99499         41.9659         4.58771 
        2.01064         41.5738         4.49734 
         2.0264         40.6394         4.40882 
        2.04216         40.5403         4.32269 
        2.05781          40.002         4.23939 
        2.07353         39.3814         4.15796 
        2.08928         39.0952         4.07847 
        2.10499          38.552         4.00126 
        2.12065         38.1401         3.92625 
        2.13633         37.7961         3.85308 
        2.15211         37.5535         3.78128 
        2.16785         37.0271         3.71149 
        2.18349         36.6305         3.64389 
        2.19916         36.1191          3.5778 
        2.21489         35.8453         3.51313 
        2.23063         35.4018         3.44998 
         2.2463         34.9437         3.38866 
        2.26194         34.4203         3.32897 
        2.27765         34.2329         3.27039 
        2.29341         33.7004         3.21306 
        2.30914         33.2725          3.1572 
        2.32486         32.6757         3.10269 
        2.34061         32.6399         3.04936 
        2.35635         32.0919         2.99732 
        2.37203         31.8217         2.94666 
        2.38768         31.5014         2.89726 
        2.40339         31.1927         2.84881 
        2.41914         30.8474         2.80134 
        2.43483         30.5045          2.7551 
         2.4505         30.2323         2.70998 
        2.46622         29.8384          2.6657 
        2.48195         29.5146         2.62239 
        2.49759         29.1654         2.58027 
        2.51328         28.8425         2.53896 
        2.52906         28.5412         2.49828 
        2.54479         28.1846         2.45863 
        2.56049         27.8334         2.41991 
        2.57618          27.608         2.38204 
        2.59189           27.27         2.34493 
        2.60758         27.1395         2.30865 
        2.62325         26.7427         2.27317 
        2.63898         26.4403         2.23831 
        2.65468         26.0687         2.20425 
        2.67044         25.8285         2.17074 
        2.68618         25.6232           2.138 
        2.70184         25.3491         2.10605 
        2.71755         25.1532         2.07467 
        2.73329         24.8666         2.04388 
        2.74897         24.5269          2.0138 
        2.76462         24.2529         1.98439 
        2.78034         24.1347         1.95544 
        2.79607         23.8618         1.92703 
        2.81179          23.635         1.89921 
        2.82749         23.2869         1.87197 
        2.84321         23.1029         1.84522 
        2.85893         22.8704           1.819 
        2.87462         22.5881         1.79332 
        2.89033         22.3536         1.76812 
        2.90605         22.2262         1.74337 
        2.92176         22.0105          1.7191 
        2.93747         21.7964          1.6953 
        2.95318         21.5208         1.67194 
        2.96891         21.2912         1.64901 
        2.98456         21.0789          1.6266 
        3.00023         20.7982         1.60457 
        3.01596          20.599         1.58288 
        3.03164         20.5156         1.56164 
        3.04738         20.2142         1.54073 
         3.0631         20.0361          1.5202 
        3.07883         19.8748         1.50004 
        3.09456         19.6302         1.48025 
        3.11026         19.4738         1.46084 
        3.12596         19.2692         1.44178 
        3.14163         19.0735          1.4231 
        3.15734         18.9437          1.4047 
        3.17308         18.6418         1.38658 
        3.18879         18.5832         1.36882 
        3.20447         18.3606          1.3514 
         3.2202         18.1286         1.33422 
         3.2359           17.96         1.31737 
        3.25157         17.8181         1.30084 
        3.26729         17.6907         1.28455 
        3.28304         17.4522          1.2685 
        3.29877         17.3036         1.25274 
        3.31446         17.0833         1.23729 
        3.33014          16.911          1.2221 
        3.34585          16.823         1.20714 
        3.36158         16.6094         1.19241 
        3.37727         16.4385         1.17796 
        3.39294         16.3346         1.16377 
        3.40867         16.1511         1.14976 
        3.42439         15.9898         1.13598 
        3.44008         15.8901         1.12245 
        3.45578         15.6771         1.10913 
        3.47153         15.5303         1.09599 
        3.48724         15.4044         1.08309 
        3.50292         15.3381         1.07042 
        3.51859         15.1137         1.05796 
        3.53431          14.991         1.04566 
        3.55007         14.7952         1.03352 
        3.56577         14.6909         1.02162 
        3.58146         14.5425         1.00991 
        3.59719         14.3974         0.99835 
        3.61292          14.302        0.986976 
        3.62859          14.137        0.975819 
        3.64429         14.0225        0.964812 
        3.66003         13.9124        0.953939 
        3.67578         13.7801        0.943236 
        3.69146         13.6825        0.932735 
        3.70712         13.5545        0.922412 
        3.72284         13.3754        0.912204 
        3.73853         13.3037        0.902167 
        3.75422         13.1872        0.892276 
        3.76993         13.0227        0.882523 
        3.78564         12.8955        0.872917 
        3.80137         12.8084        0.863438 
        3.81707         12.7043        0.854117 
        3.83279         12.5546        0.844925 
        3.84853         12.4237        0.835851 
        3.86424         12.3292        0.826928 
        3.87992         12.2439        0.818146 
        3.89561         12.0888         0.80949 
        3.91134         12.0502        0.800939 
        3.92704         11.8831        0.792521 
        3.94273         11.7951        0.784231 
        3.95845         11.6844        0.776043 
        3.97418         11.6145        0.767968 
        3.98988         11.4863        0.760018 
        4.00554          11.386        0.752201 
        4.02125         11.2968        0.744471 
        4.03698         11.1995        0.736835 
        4.05268         11.0651        0.729323 
        4.06839         10.9643        0.721909 
         4.0841         10.9286        0.714599 
        4.09983         10.7821        0.707379 
        4.11555         10.7273         0.70026 
        4.13124          10.611        0.693257 
        4.14693         10.5228        0.686344 
        4.16266         10.4259        0.679507 
        4.17839         10.3405        0.672767 
        4.19408         10.2303        0.666132 
        4.20977         10.1696        0.659583 
        4.22551         10.0501        0.653105 
        4.24123         9.98106         0.64672 
        4.25691         9.88436        0.640437 
        4.27259         9.81745        0.634234 
        4.28831         9.70896          0.6281 
        4.30404         9.63469         0.62204 
        4.31974         9.57325        0.616072 
        4.33543         9.48534        0.610185 
        4.35116         9.39326         0.60436 
        4.36688         9.33432        0.598613 
        4.38255          9.2474        0.592961 
        4.39825         9.17621        0.587368 
        4.41398          9.0665        0.581836 
         4.4297         9.00054         0.57638 
        4.44541         8.93526        0.570994 
        4.46111         8.87547         0.56568 
        4.47683         8.76464         0.56043 
        4.49251         8.70756        0.555256 
        4.50819         8.66084        0.550147 
         4.5239         8.57135        0.545095 
        4.53962         8.50779          0.5401 
        4.55535         8.42663        0.535163 
        4.57106         8.36701        0.530295 
        4.58678         8.28378        0.525486 
         4.6025         8.23065        0.520734 
        4.61821         8.15902        0.516042 
        4.63391         8.09001        0.511412 
         4.6496         8.03719        0.506841 
        4.66532         7.95366        0.502318 
        4.68103         7.88509        0.497851 
        4.69673         7.83837        0.493442 
        4.71241         7.74991         0.48909 
        4.72811         7.70758        0.484783 
        4.74384         7.65292        0.480522 
        4.75955         7.55411        0.476318 
        4.77525         7.52124        0.472166 
        4.79096         7.46138        0.468058 
        4.80669         7.41542        0.463996 
         4.8224         7.36075        0.459986 
        4.83809         7.29186        0.456028 
        4.85379         7.21825        0.452113 
         4.8695         7.20033         0.44824 
        4.88521         7.12089        0.444414 
        4.90093         7.06031        0.440631 
        4.91663         7.00124        0.436895 
        4.93234          6.9537        0.433198 
        4.94807         6.90185        0.429541 
        4.96377         6.85198        0.425933 
        4.97943         6.80996        0.422373 
        4.99514          6.7496        0.418844 
        5.01086         6.69598        0.415352 
        5.02654         6.64065        0.411908 
        5.04227         6.59679        0.408493 
          5.058         6.54104        0.405115 
        5.07371         6.50072        0.401781 
        5.08942         6.44558        0.398483 
        5.10513         6.39469        0.395222 
        5.12084         6.34844        0.391995 
        5.13656         6.29763        0.388805 
        5.15225         6.24454        0.385655 
        5.16796         6.20789        0.382534 
        5.18369         6.14531        0.379445 
         5.1994         6.12062        0.376395 
        5.21509         6.06379        0.373381 
        5.23079         6.02195        0.370396 
        5.24649         5.96068        0.367445 
        5.26217         5.91858        0.364529 
        5.27788         5.88113        0.361639 
        5.29359          5.8386         0.35878 
        5.30933         5.79541        0.355948 
        5.32504         5.75333         0.35315 
        5.34073         5.71371        0.350385 
        5.35646         5.66108        0.347644 
        5.37218         5.63518        0.344931 
        5.38789         5.58754        0.342251 
        5.40357         5.55995        0.339603 
        5.41929         5.50128        0.336976 
        5.43502         5.47358        0.334377 
         5.4507         5.43492         0.33181 
        5.46639         5.39774         0.32927 
        5.48212          5.3592        0.326751 
        5.49786         5.30708        0.324254 
        5.51353           5.276        0.321796 
        5.52921         5.25396         0.31936 
        5.54495         5.21615        0.316942 
        5.56066         5.16769        0.314551 
        5.57637         5.12866        0.312186 
        5.59207         5.09509        0.309846 
        5.60778         5.06514        0.307529 
        5.62346         5.03148        0.305238 
        5.63916         4.98369        0.302969 
        5.65487          4.9529        0.300721 
         5.6706         4.92001        0.298493 
        5.68633         4.88835        0.296287 
        5.70203         4.84154        0.294107 
        5.71773         4.82351        0.291949 
        5.73344         4.79016        0.289812 
        5.74916         4.75252        0.287693 
        5.76486         4.72153        0.285599 
        5.78054         4.69364        0.283528 
        5.79626         4.66071        0.281472 
          5.812         4.63284        0.279434 
         5.8277         4.60265        0.277422 
        5.84339          4.5596        0.275429 
        5.85911         4.52466        0.273452 
        5.87484         4.51241        0.271494 
        5.89053         4.46293        0.269559 
        5.90623         4.43432        0.267642 
        5.92195         4.41017         0.26574 
        5.93767         4.38182        0.263858 
        5.95336         4.34565        0.261996 
        5.96905         4.31908        0.260153 
        5.98476         4.30555        0.258325 
        6.00048         4.26788        0.256514 
        6.01617         4.24527        0.254722 
        6.03185          4.2108        0.252949 
        6.04756         4.18912        0.251189 
        6.06331         4.16088        0.249441 
        6.07903         4.13125        0.247714 
        6.09473         4.10733        0.246004 
        6.11044         4.07091        0.244309 
        6.12616         4.05319         0.24263 
        6.14186         4.02663        0.240968 
        6.15755         4.00068        0.239322 
        6.17326         3.96639        0.237689 
        6.18898         3.94432        0.236071 
        6.20467         3.92367        0.234471 
        6.22036           3.903        0.232885 
         6.2361          3.8701         0.23131 
         6.2518         3.85723        0.229751 
        6.26748         3.82628        0.228211 
        6.28319         3.80048        0.226679 
        6.29893         3.77595        0.225161 
        6.31463         3.75159        0.223659 
        6.33033         3.73356         0.22217 
        6.34604         3.70523        0.220695 
        6.36177         3.68916        0.219231 
        6.37747         3.66712        0.217782 
