# k  (h/Mpc)    Pcb(k)  (Mpc/h)^3    Pcb_linear(k) (Mpc/h)^3   ShotnoiseSubtracted = true
      0.0200456         1328.98         1350.29 
      0.0350414         1018.34         1026.53 
      0.0492313         767.583          765.79 
      0.0637834         657.876         652.689 
      0.0800726         532.895         529.665 
       0.096163         387.481         389.395 
       0.111083         310.658          313.87 
       0.126058         283.046         281.964 
       0.142273         244.305         242.099 
       0.158546         196.001         192.723 
        0.17375         163.143         163.337 
       0.188953         151.307         149.219 
       0.204907         139.398          133.33 
       0.220756         117.056         113.497 
        0.23588         102.396         99.1443 
         0.2514         92.3527         90.6245 
       0.267535         85.0702         82.6085 
       0.283568         76.2237         73.2526 
       0.299022         69.0428         65.5113 
       0.314451         62.1067         60.1343 
       0.330372         57.9482          55.475 
       0.346141         52.8739         50.5887 
       0.361624         48.8859         46.1449 
       0.377134          45.871         42.6103 
       0.392932          40.945         39.5916 
       0.408854         39.4132         36.6469 
       0.424564          36.793         33.8931 
       0.440253         34.0053         31.5221 
       0.455999         32.1909         29.4681 
       0.471626         30.2914         27.5758 
        0.48727         28.5645         25.7885 
       0.502856          26.724         24.1769 
       0.518488         25.5975         22.7391 
       0.534347         24.5121         21.4002 
       0.550082         22.4721         20.1607 
       0.565732         20.8613         19.0211 
       0.581496         20.4929         17.9755 
       0.597222         19.7301         17.0149 
       0.612804         18.4101         16.1289 
       0.628434         17.7639         15.3008 
       0.644267          17.135         14.5236 
       0.660051          16.209         13.8065 
       0.675724         15.4179         13.1431 
       0.691403         14.9293         12.5232 
       0.707174         14.2694           11.94 
       0.722871         13.7104         11.3967 
        0.73838         13.2213         10.8933 
       0.754018         12.7707         10.4169 
       0.769845         12.1993           9.964 
        0.78569         11.8328         9.53796 
       0.801365         11.3559         9.14136 
       0.817031          11.022         8.76793 
       0.832809         10.7132         8.41334 
       0.848511         10.0978          8.0803 
       0.864097         9.82095         7.76789 
       0.879701         9.52369         7.47198 
       0.895507           9.136         7.18825 
       0.911279         9.00888         6.92009 
        0.92691         8.70208         6.66807 
       0.942635           8.327          6.4274 
       0.958396         8.07882          6.1983 
       0.974128         7.88577         5.98096 
       0.989692         7.77369         5.77636 
        1.00528          7.4607         5.58118 
        1.02113         7.18664         5.39209 
        1.03692         7.06951          5.2126 
        1.05264          6.8497         5.04222 
        1.06832         6.70286         4.87985 
        1.08405         6.42813          4.7243 
        1.09979         6.29983         4.57554 
        1.11537         6.17527         4.43476 
        1.13105          6.0157         4.29916 
        1.14679         5.87794         4.16878 
        1.16256         5.70733         4.04364 
        1.17828         5.60579         3.92412 
        1.19395         5.45035         3.80991 
         1.2097         5.26481         3.69974 
        1.22537         5.15248         3.59451 
          1.241         5.06171         3.49376 
        1.25666          5.0264         3.39668 
        1.27241         4.83303         3.30288 
        1.28819         4.72056         3.21252 
        1.30392         4.64975         3.12585 
        1.31957         4.55371         3.04281 
        1.33529         4.44727         2.96253 
        1.35108         4.34751         2.88486 
        1.36674          4.2786         2.81058 
         1.3824         4.13193         2.73902 
        1.39811         4.07442         2.66975 
        1.41389         4.01168         2.60264 
        1.42964          3.9319         2.53798 
        1.44531         3.86218         2.47587 
        1.46101         3.78899         2.41573 
        1.47667          3.6828          2.3578 
        1.49229          3.6546         2.30195 
        1.50793         3.55829         2.24787 
        1.52367         3.53297          2.1952 
        1.53953         3.42761         2.14389 
        1.55526         3.36493         2.09466 
        1.57092         3.32318         2.04719 
        1.58662         3.25682          2.0011 
        1.60235         3.19832         1.95636 
        1.61809          3.1452         1.91299 
        1.63369         3.10225         1.87133 
        1.64941         3.04009         1.83063 
        1.66519         3.00045         1.79101 
        1.68085         2.92537         1.75286 
        1.69652         2.88454         1.71583 
        1.71228         2.84779         1.67967 
        1.72806         2.78633         1.64453 
        1.74368          2.7515         1.61077 
        1.75933         2.70009          1.5779 
        1.77505         2.66289          1.5458 
        1.79081         2.61854         1.51456 
         1.8065         2.57949         1.48432 
        1.82218         2.55155         1.45494 
        1.83797         2.52403         1.42617 
        1.85367         2.48629         1.39834 
        1.86928          2.4473         1.37144 
        1.88497         2.39551          1.3451 
        1.90073         2.35776         1.31937 
        1.91647         2.33388         1.29434 
        1.93218          2.3098         1.27002 
        1.94787         2.26753         1.24637 
        1.96363         2.23515         1.22324 
        1.97935         2.19926         1.20075 
        1.99499         2.15942         1.17896 
        2.01064         2.14011         1.15768 
         2.0264         2.12932          1.1368 
        2.04216         2.09156         1.11646 
        2.05781         2.06017         1.09674 
        2.07353         2.03859         1.07744 
        2.08928         2.00792         1.05857 
        2.10499         1.98354          1.0402 
        2.12065         1.97063         1.02233 
        2.13633         1.93277         1.00487 
        2.15211         1.90551        0.987709 
        2.16785         1.88258        0.971002 
        2.18349         1.86558        0.954791 
        2.19916         1.82981        0.938921 
        2.21489         1.80951        0.923363 
        2.23063         1.78912        0.908151 
         2.2463         1.77659        0.893354 
        2.26194         1.74129        0.878928 
        2.27765         1.72443         0.86475 
        2.29341         1.71104        0.850851 
        2.30914          1.6956        0.837291 
        2.32486         1.67401        0.824037 
        2.34061         1.64799        0.811051 
        2.35635         1.62506         0.79836 
        2.37203         1.61513        0.785987 
        2.38768         1.59831        0.773906 
        2.40339         1.58362        0.762037 
        2.41914         1.56286        0.750393 
        2.43483         1.54472        0.739036 
         2.4505         1.52314        0.727936 
        2.46622         1.50959        0.717028 
        2.48195         1.50108        0.706346 
        2.49759         1.48116        0.695941 
        2.51328         1.45831         0.68572 
        2.52906         1.44834        0.675643 
        2.54479         1.43538        0.665808 
        2.56049          1.4163         0.65619 
        2.57618         1.40611        0.646773 
        2.59189         1.39197        0.637528 
        2.60758         1.37399        0.628481 
        2.62325         1.36209        0.619622 
        2.63898         1.35178        0.610905 
        2.65468         1.33693        0.602376 
        2.67044         1.32281        0.593975 
        2.68618         1.30534        0.585755 
        2.70184         1.29346        0.577726 
        2.71755         1.28198        0.569828 
        2.73329         1.27209        0.562068 
        2.74897         1.25983         0.55448 
        2.76462         1.24655        0.547049 
        2.78034         1.23891        0.539726 
        2.79607         1.22439        0.532531 
        2.81179         1.21006        0.525476 
        2.82749           1.205        0.518559 
        2.84321         1.19472         0.51176 
        2.85893         1.17974        0.505086 
        2.87462         1.17236        0.498543 
        2.89033         1.15686        0.492112 
        2.90605         1.14934         0.48579 
        2.92176         1.13798        0.479584 
        2.93747         1.13018         0.47349 
        2.95318         1.12013        0.467503 
        2.96891         1.10996        0.461617 
        2.98456          1.1052        0.455859 
        3.00023         1.09224        0.450193 
        3.01596         1.08539        0.444606 
        3.03164         1.07626        0.439131 
        3.04738         1.05963        0.433733 
         3.0631         1.05609        0.428429 
        3.07883         1.04763        0.423214 
        3.09456         1.03831        0.418088 
        3.11026         1.03035        0.413055 
        3.12596         1.02172        0.408107 
        3.14163          1.0127        0.403252 
        3.15734         1.00981        0.398465 
        3.17308        0.996855        0.393746 
        3.18879        0.989044        0.389117 
        3.20447        0.981544        0.384569 
         3.2202         0.97622        0.380081 
         3.2359        0.969141        0.375674 
        3.25157        0.958836        0.371347 
        3.26729        0.956717        0.367077 
        3.28304        0.944312        0.362865 
        3.29877        0.936598        0.358727 
        3.31446        0.931748        0.354662 
        3.33014        0.927105        0.350664 
        3.34585        0.918822        0.346723 
        3.36158        0.909587        0.342837 
        3.37727        0.907069        0.339024 
        3.39294        0.900936        0.335272 
        3.40867        0.894045        0.331565 
        3.42439         0.88435        0.327916 
        3.44008        0.882416        0.324329 
        3.45578        0.876144        0.320794 
        3.47153        0.867463        0.317305 
        3.48724        0.864261        0.313874 
        3.50292         0.86013        0.310503 
        3.51859        0.851716        0.307183 
        3.53431        0.848246        0.303902 
        3.55007        0.844105        0.300661 
        3.56577        0.835828        0.297481 
        3.58146        0.829424        0.294349 
        3.59719        0.827614        0.291255 
        3.61292        0.821557        0.288207 
        3.62859        0.812447        0.285214 
        3.64429        0.812149        0.282259 
        3.66003        0.804463        0.279337 
        3.67578        0.798067        0.276458 
        3.69146        0.794892         0.27363 
        3.70712        0.788162        0.270848 
        3.72284        0.785464        0.268095 
        3.73853        0.778202        0.265385 
        3.75422        0.772636        0.262712 
        3.76993        0.771816        0.260074 
        3.78564         0.76562        0.257473 
        3.80137        0.759748        0.254904 
        3.81707        0.758324        0.252376 
        3.83279        0.750275        0.249881 
        3.84853        0.745349        0.247415 
        3.86424        0.742093        0.244988 
        3.87992        0.737923        0.242598 
        3.89561        0.733446        0.240239 
        3.91134        0.728879        0.237908 
        3.92704        0.722342         0.23561 
        3.94273        0.720856        0.233345 
        3.95845        0.717122        0.231107 
        3.97418         0.71051        0.228897 
        3.98988        0.706469         0.22672 
        4.00554        0.701434        0.224577 
        4.02125         0.69623        0.222456 
        4.03698        0.689328        0.220359 
        4.05268        0.684422        0.218295 
        4.06839        0.679534        0.216256 
         4.0841        0.674662        0.214243 
        4.09983        0.669723        0.212254 
        4.11555        0.663817        0.210291 
        4.13124         0.65889        0.208358 
        4.14693        0.654106        0.206449 
        4.16266        0.649135        0.204559 
        4.17839        0.644983        0.202694 
        4.19408        0.640888        0.200857 
        4.20977        0.637513        0.199042 
        4.22551        0.632249        0.197245 
        4.24123        0.626916        0.195473 
        4.25691        0.624138        0.193727 
        4.27259        0.619783        0.192002 
        4.28831        0.616297        0.190296 
        4.30404        0.611133        0.188608 
        4.31974         0.60792        0.186945 
        4.33543        0.604568        0.185303 
        4.35116        0.602003        0.183677 
        4.36688         0.59742        0.182071 
        4.38255        0.595505        0.180491 
        4.39825        0.590578        0.178926 
        4.41398        0.587468        0.177377 
         4.4297         0.58413        0.175848 
        4.44541        0.581365        0.174338 
        4.46111        0.579498        0.172846 
        4.47683        0.576471        0.171371 
        4.49251        0.572733        0.169917 
        4.50819        0.568861         0.16848 
         4.5239        0.568966        0.167057 
        4.53962        0.564781         0.16565 
        4.55535        0.563783        0.164258 
        4.57106        0.560191        0.162884 
        4.58678        0.557515        0.161526 
         4.6025        0.554624        0.160183 
        4.61821        0.552481        0.158856 
        4.63391        0.550285        0.157546 
         4.6496        0.547308        0.156251 
        4.66532        0.545939        0.154969 
        4.68103         0.54375        0.153702 
        4.69673        0.542445        0.152451 
        4.71241        0.539656        0.151215 
        4.72811        0.538421         0.14999 
        4.74384        0.536702        0.148778 
        4.75955        0.535009        0.147581 
        4.77525        0.532754        0.146398 
        4.79096        0.531844        0.145227 
        4.80669         0.52961        0.144068 
         4.8224        0.528475        0.142923 
        4.83809        0.526704        0.141792 
        4.85379        0.525806        0.140673 
         4.8695        0.524249        0.139565 
        4.88521        0.522282        0.138469 
        4.90093        0.522603        0.137386 
        4.91663        0.520154        0.136315 
        4.93234        0.518268        0.135254 
        4.94807        0.518456        0.134204 
        4.96377        0.517181        0.133167 
        4.97943        0.516707        0.132143 
        4.99514        0.514712        0.131128 
        5.01086        0.515184        0.130123 
        5.02654        0.513489        0.129131 
        5.04227        0.512204        0.128146 
          5.058        0.511637        0.127171 
        5.07371         0.51015        0.126209 
        5.08942        0.510553        0.125256 
        5.10513        0.509108        0.124313 
        5.12084        0.508949         0.12338 
        5.13656        0.508744        0.122456 
        5.15225        0.508305        0.121544 
        5.16796        0.508824        0.120639 
        5.18369        0.508502        0.119743 
         5.1994        0.508348        0.118858 
        5.21509        0.507639        0.117983 
        5.23079        0.506845        0.117115 
        5.24649        0.507096        0.116257 
        5.26217        0.505907        0.115408 
        5.27788        0.506771        0.114567 
        5.29359        0.506534        0.113734 
        5.30933        0.506212        0.112908 
        5.32504        0.506053        0.112091 
        5.34073        0.505839        0.111284 
        5.35646        0.506373        0.110483 
        5.37218        0.506633         0.10969 
        5.38789        0.506407        0.108906 
        5.40357        0.507096        0.108131 
        5.41929        0.506026        0.107362 
        5.43502        0.506929          0.1066 
         5.4507        0.507053        0.105847 
        5.46639        0.508498        0.105102 
        5.48212        0.506782        0.104362 
        5.49786        0.506902        0.103629 
        5.51353        0.508473        0.102906 
        5.52921        0.507686        0.102189 
        5.54495        0.508354        0.101478 
        5.56066         0.50999        0.100773 
        5.57637        0.508873        0.100076 
        5.59207        0.510139       0.0993861 
        5.60778        0.510597       0.0987023 
        5.62346        0.509558       0.0980261 
        5.63916         0.51065       0.0973556 
        5.65487        0.511978        0.096691 
         5.6706        0.511806        0.096032 
        5.68633         0.51334       0.0953789 
        5.70203        0.514388       0.0947333 
        5.71773         0.51437       0.0940938 
        5.73344        0.514015         0.09346 
        5.74916        0.514521       0.0928315 
        5.76486        0.516517       0.0922096 
        5.78054        0.516399       0.0915945 
        5.79626        0.516337       0.0909833 
          5.812        0.518354       0.0903772 
         5.8277        0.518326       0.0897784 
        5.84339        0.518718        0.089185 
        5.85911        0.519405        0.088596 
        5.87484        0.520101       0.0880124 
        5.89053        0.521076       0.0874353 
        5.90623        0.521124       0.0868631 
        5.92195        0.522481       0.0862951 
        5.93767        0.522735       0.0857326 
        5.95336        0.522239        0.085176 
        5.96905        0.523765       0.0846247 
        5.98476        0.524699       0.0840775 
        6.00048        0.526386        0.083535 
        6.01617           0.526       0.0829981 
        6.03185        0.526113       0.0824666 
        6.04756        0.528402       0.0819385 
        6.06331         0.52904       0.0814139 
        6.07903        0.530646       0.0808951 
        6.09473        0.530515       0.0803813 
        6.11044        0.532427       0.0798716 
        6.12616        0.532061       0.0793665 
        6.14186        0.532574       0.0788662 
        6.15755         0.53403       0.0783703 
        6.17326        0.534009       0.0778784 
        6.18898        0.535125       0.0773904 
        6.20467        0.537508       0.0769076 
        6.22036        0.535402        0.076429 
         6.2361        0.536146       0.0759532 
         6.2518        0.536272       0.0754822 
        6.26748        0.537983       0.0750163 
        6.28319        0.540101       0.0745531 
        6.29893        0.540198       0.0740935 
        6.31463        0.541232       0.0736386 
        6.33033         0.54041       0.0731876 
        6.34604        0.541339       0.0727401 
        6.36177         0.54182        0.072296 
        6.37747        0.544707       0.0718565 
