# k  (h/Mpc)    Pcb(k)  (Mpc/h)^3    Pcb_linear(k) (Mpc/h)^3   ShotnoiseSubtracted = true
      0.0200456         15049.8         15315.7 
      0.0350414         11938.2         11643.4 
      0.0492313         8533.36         8685.98 
      0.0637834         7049.31         7403.13 
      0.0800726         5658.83         6007.73 
       0.096163         4524.28         4416.72 
       0.111083         3722.95         3560.07 
       0.126058         3118.08         3198.17 
       0.142273         2735.02            2746 
       0.158546         2262.67         2185.97 
        0.17375         2010.38         1852.65 
       0.188953         1889.59         1692.51 
       0.204907         1632.36          1512.3 
       0.220756         1474.14         1287.33 
        0.23588          1318.6         1124.54 
         0.2514         1191.68         1027.91 
       0.267535         1159.64         936.987 
       0.283568         1025.88         830.868 
       0.299022         983.509         743.062 
       0.314451         1013.07         682.074 
       0.330372         882.616         629.225 
       0.346141         817.554         573.803 
       0.361624         786.086         523.399 
       0.377134         746.983         483.307 
       0.392932         723.165         449.068 
       0.408854         689.782         415.668 
       0.424564         672.453         384.432 
       0.440253         617.732         357.539 
       0.455999         592.882         334.242 
       0.471626         603.668         312.779 
        0.48727         572.472         292.507 
       0.502856          535.17         274.226 
       0.518488          532.83         257.918 
       0.534347         500.282         242.732 
       0.550082         482.906         228.672 
       0.565732         479.916         215.747 
       0.581496         467.793         203.887 
       0.597222         455.012         192.992 
       0.612804         446.031         182.942 
       0.628434         428.343         173.549 
       0.644267         413.483         164.734 
       0.660051         407.735         156.601 
       0.675724         403.314         149.076 
       0.691403         393.178         142.044 
       0.707174         379.509          135.43 
       0.722871         373.856         129.267 
        0.73838         370.341         123.558 
       0.754018         356.767         118.153 
       0.769845         354.944         113.017 
        0.78569         348.375         108.184 
       0.801365         339.243         103.686 
       0.817031         333.309         99.4502 
       0.832809          329.71         95.4283 
       0.848511         321.691         91.6508 
       0.864097         314.957         88.1073 
       0.879701         313.148          84.751 
       0.895507         304.717         81.5328 
       0.911279         297.211         78.4912 
        0.92691         295.468         75.6326 
       0.942635         293.884         72.9028 
       0.958396         285.762         70.3042 
       0.974128         281.928         67.8391 
       0.989692         272.561         65.5184 
        1.00528         272.194         63.3046 
        1.02113         268.442         61.1598 
        1.03692         262.776         59.1239 
        1.05264         259.259         57.1914 
        1.06832         258.716         55.3497 
        1.08405         251.904         53.5854 
        1.09979         250.698         51.8981 
        1.11537         245.072         50.3013 
        1.13105         241.642         48.7632 
        1.14679         239.702         47.2844 
        1.16256         236.921          45.865 
        1.17828         234.152         44.5094 
        1.19395         228.099          43.214 
         1.2097         227.993         41.9643 
        1.22537         226.059         40.7708 
          1.241          221.13          39.628 
        1.25666         217.941         38.5268 
        1.27241         213.725         37.4629 
        1.28819         212.277          36.438 
        1.30392          208.71         35.4549 
        1.31957         204.844         34.5131 
        1.33529         202.719         33.6025 
        1.35108          200.77         32.7216 
        1.36674         197.814          31.879 
         1.3824         196.162         31.0673 
        1.39811         192.579         30.2816 
        1.41389           190.2         29.5204 
        1.42964         187.574         28.7871 
        1.44531         185.644         28.0826 
        1.46101         182.286         27.4005 
        1.47667         181.659         26.7434 
        1.49229         178.889         26.1099 
        1.50793         175.972         25.4965 
        1.52367         174.484         24.8991 
        1.53953         171.322         24.3171 
        1.55526         170.952         23.7586 
        1.57092         168.511         23.2203 
        1.58662         164.947         22.6975 
        1.60235         163.394           22.19 
        1.61809         161.407          21.698 
        1.63369         159.795         21.2255 
        1.64941         158.697         20.7639 
        1.66519         155.873         20.3145 
        1.68085         154.002         19.8818 
        1.69652         152.489         19.4618 
        1.71228         151.341         19.0516 
        1.72806         149.188         18.6531 
        1.74368         147.215         18.2701 
        1.75933         145.989         17.8973 
        1.77505         143.485         17.5333 
        1.79081           142.1         17.1789 
         1.8065         139.903         16.8359 
        1.82218         138.305         16.5027 
        1.83797          138.14         16.1763 
        1.85367         135.368         15.8607 
        1.86928         134.857         15.5555 
        1.88497         132.916         15.2568 
        1.90073          131.71         14.9649 
        1.91647         129.742         14.6811 
        1.93218         128.418         14.4052 
        1.94787         126.661          14.137 
        1.96363         125.724         13.8746 
        1.97935         124.366         13.6195 
        1.99499         123.415         13.3723 
        2.01064         120.875          13.131 
         2.0264         120.102         12.8942 
        2.04216         117.897         12.6634 
        2.05781          117.32         12.4398 
        2.07353         115.708         12.2209 
        2.08928          114.26         12.0068 
        2.10499         113.022         11.7985 
        2.12065         112.732         11.5958 
        2.13633         111.347         11.3977 
        2.15211         109.661         11.2031 
        2.16785         108.145         11.0136 
        2.18349         106.683         10.8297 
        2.19916         105.924         10.6497 
        2.21489         104.552         10.4732 
        2.23063         103.588         10.3007 
         2.2463         102.784         10.1329 
        2.26194         101.398         9.96924 
        2.27765         100.332         9.80843 
        2.29341         99.3546         9.65078 
        2.30914         98.1141         9.49697 
        2.32486         96.2331         9.34664 
        2.34061         95.8031         9.19934 
        2.35635         94.7629          9.0554 
        2.37203         93.5411         8.91506 
        2.38768         92.7063         8.77803 
        2.40339         91.6304         8.64341 
        2.41914         90.6541         8.51133 
        2.43483          89.893         8.38252 
         2.4505         88.6363         8.25661 
        2.46622         88.0403         8.13289 
        2.48195         86.8484         8.01173 
        2.49759         85.8853         7.89371 
        2.51328         85.0634         7.77778 
        2.52906         83.8285         7.66348 
        2.54479         83.1161         7.55193 
        2.56049         82.3378         7.44284 
        2.57618         81.2246         7.33602 
        2.59189         80.7325         7.23116 
        2.60758          79.766         7.12854 
        2.62325         78.9458         7.02806 
        2.63898         77.8634         6.92919 
        2.65468         77.2952         6.83245 
        2.67044         76.5889         6.73716 
        2.68618         75.7089         6.64393 
        2.70184         74.6608         6.55285 
        2.71755         73.9679         6.46328 
        2.73329         73.4207         6.37526 
        2.74897          72.889         6.28919 
        2.76462         72.1885         6.20491 
        2.78034         71.3073         6.12184 
        2.79607         70.3008         6.04023 
        2.81179         69.5351         5.96021 
        2.82749         69.0577         5.88175 
        2.84321         68.6275         5.80463 
        2.85893         67.7384         5.72893 
        2.87462         66.8639         5.65473 
        2.89033         66.1634         5.58179 
        2.90605         65.5948         5.51008 
        2.92176         64.9486         5.43968 
        2.93747         64.1128         5.37057 
        2.95318         63.7697         5.30265 
        2.96891         62.9727         5.23589 
        2.98456         62.3514         5.17058 
        3.00023         61.5645         5.10631 
        3.01596         61.1078         5.04294 
        3.03164         60.5655         4.98084 
        3.04738         59.9852         4.91962 
         3.0631         59.3338         4.85945 
        3.07883         58.8169         4.80031 
        3.09456         58.0606         4.74216 
        3.11026         57.4027         4.68508 
        3.12596          56.993         4.62895 
        3.14163         56.5582         4.57389 
        3.15734         55.8923          4.5196 
        3.17308         55.6505         4.46606 
        3.18879         54.9535         4.41356 
        3.20447         54.2856         4.36198 
         3.2202         53.8565         4.31107 
         3.2359         53.4225         4.26108 
        3.25157         52.7205         4.21201 
        3.26729         52.3779         4.16357 
        3.28304         51.8401          4.1158 
        3.29877         51.1522         4.06886 
        3.31446         50.9008         4.02275 
        3.33014         50.3628         3.97741 
        3.34585         49.8257         3.93271 
        3.36158          49.371         3.88863 
        3.37727         48.8495         3.84538 
        3.39294          48.348         3.80283 
        3.40867         48.0299         3.76077 
        3.42439         47.5704         3.71938 
        3.44008         47.0947         3.67871 
        3.45578         46.6691         3.63861 
        3.47153         46.3518         3.59903 
        3.48724          45.804         3.56012 
        3.50292         45.4371         3.52188 
        3.51859         45.0631         3.48422 
        3.53431         44.5924         3.44701 
        3.55007         44.0964         3.41025 
        3.56577         43.8384         3.37418 
        3.58146         43.3968         3.33865 
        3.59719         42.8596         3.30355 
        3.61292         42.6172         3.26898 
        3.62859         42.0689         3.23504 
        3.64429         41.9102         3.20152 
        3.66003         41.4545         3.16838 
        3.67578          41.063         3.13572 
        3.69146         40.8521         3.10365 
        3.70712          40.333          3.0721 
        3.72284         40.0885         3.04087 
        3.73853         39.7751         3.01013 
        3.75422         39.3781         2.97981 
        3.76993         39.0174         2.94988 
        3.78564          38.621         2.92039 
        3.80137         38.3727         2.89125 
        3.81707         38.0044         2.86258 
        3.83279         37.5912         2.83427 
        3.84853         37.2889         2.80631 
        3.86424         36.8415         2.77878 
        3.87992         36.6213         2.75166 
        3.89561         36.4242         2.72491 
        3.91134         36.1462         2.69847 
        3.92704          35.644         2.67241 
        3.94273         35.3366         2.64672 
        3.95845         35.1898         2.62133 
        3.97418         34.7774         2.59627 
        3.98988         34.4226         2.57157 
        4.00554         34.0816         2.54727 
        4.02125         33.9498         2.52321 
        4.03698         33.6506         2.49943 
        4.05268         33.2876         2.47601 
        4.06839         32.9836         2.45288 
         4.0841         32.8529         2.43005 
        4.09983         32.4214         2.40749 
        4.11555         32.1891         2.38522 
        4.13124         32.0183          2.3633 
        4.14693         31.6878         2.34164 
        4.16266          31.361         2.32021 
        4.17839          31.311         2.29905 
        4.19408         30.8833         2.27822 
        4.20977         30.6898         2.25763 
        4.22551         30.4418         2.23725 
        4.24123         30.1356         2.21715 
        4.25691         29.8815         2.19735 
        4.27259         29.6792         2.17779 
        4.28831         29.4012         2.15843 
        4.30404         29.1392         2.13929 
        4.31974         28.8736         2.12042 
        4.33543         28.7194          2.1018 
        4.35116         28.4587         2.08336 
        4.36688         28.2233         2.06514 
        4.38255         28.0103         2.04722 
        4.39825         27.7949         2.02947 
        4.41398         27.5313          2.0119 
         4.4297         27.3148         1.99456 
        4.44541         26.9914         1.97742 
        4.46111         26.8593         1.96051 
        4.47683         26.6155         1.94378 
        4.49251         26.4926         1.92728 
        4.50819         26.2886         1.91098 
         4.5239         26.0289         1.89485 
        4.53962         25.8812         1.87888 
        4.55535         25.6088          1.8631 
        4.57106         25.4381         1.84752 
        4.58678         25.2424         1.83211 
         4.6025         24.9698         1.81688 
        4.61821         24.8396         1.80183 
        4.63391         24.6944         1.78697 
         4.6496         24.4324         1.77228 
        4.66532         24.2442         1.75774 
        4.68103         24.0524         1.74337 
        4.69673         23.8496         1.72917 
        4.71241         23.7221         1.71515 
        4.72811         23.5264         1.70126 
        4.74384         23.2906         1.68751 
        4.75955         23.1269         1.67394 
        4.77525         22.9679         1.66052 
        4.79096         22.7509         1.64724 
        4.80669         22.6195         1.63409 
         4.8224         22.4019         1.62111 
        4.83809         22.2651         1.60828 
        4.85379         22.0906         1.59558 
         4.8695         21.9291         1.58302 
        4.88521         21.7672         1.57059 
        4.90093         21.6009          1.5583 
        4.91663          21.415         1.54615 
        4.93234         21.2493         1.53412 
        4.94807         21.1309         1.52221 
        4.96377         20.9541         1.51045 
        4.97943          20.767         1.49884 
        4.99514         20.6581         1.48732 
        5.01086         20.5044         1.47592 
        5.02654         20.3447         1.46466 
        5.04227         20.1374          1.4535 
          5.058         20.0429         1.44244 
        5.07371         19.8597         1.43152 
        5.08942         19.7674         1.42072 
        5.10513         19.6165         1.41003 
        5.12084         19.4243         1.39944 
        5.13656         19.3087         1.38896 
        5.15225         19.1432         1.37861 
        5.16796         18.9813         1.36835 
        5.18369         18.8999         1.35819 
         5.1994         18.7323         1.34815 
        5.21509          18.627         1.33822 
        5.23079         18.4609         1.32838 
        5.24649         18.3413         1.31864 
        5.26217           18.17         1.30902 
        5.27788         18.0325         1.29947 
        5.29359         17.9112         1.29002 
        5.30933         17.8296         1.28066 
        5.32504         17.6681          1.2714 
        5.34073         17.5599         1.26224 
        5.35646         17.3933         1.25316 
        5.37218          17.299         1.24416 
        5.38789         17.1419         1.23527 
        5.40357         17.0692         1.22648 
        5.41929         16.9288         1.21775 
        5.43502         16.8067         1.20911 
         5.4507         16.6738         1.20057 
        5.46639         16.5456         1.19212 
        5.48212         16.4312         1.18373 
        5.49786         16.3589         1.17541 
        5.51353         16.2211         1.16721 
        5.52921         16.1381         1.15908 
        5.54495         16.0096         1.15101 
        5.56066         15.8749         1.14302 
        5.57637         15.7898         1.13511 
        5.59207           15.65         1.12729 
        5.60778         15.5274         1.11953 
        5.62346         15.4165         1.11186 
        5.63916         15.3311         1.10426 
        5.65487         15.2296         1.09672 
         5.6706         15.1281         1.08924 
        5.68633         15.0035         1.08184 
        5.70203           14.91         1.07451 
        5.71773         14.8046         1.06726 
        5.73344         14.7218         1.06007 
        5.74916         14.6326         1.05294 
        5.76486         14.5253         1.04589 
        5.78054         14.4153         1.03891 
        5.79626         14.3428         1.03198 
          5.812         14.1881          1.0251 
         5.8277         14.0979         1.01831 
        5.84339         14.0031         1.01158 
        5.85911         13.9129          1.0049 
        5.87484         13.8094        0.998281 
        5.89053         13.7214        0.991735 
        5.90623         13.6332        0.985245 
        5.92195         13.5446        0.978803 
        5.93767         13.4665        0.972422 
        5.95336          13.338        0.966109 
        5.96905         13.2668        0.959856 
        5.98476         13.2002        0.953649 
        6.00048         13.1137        0.947496 
        6.01617          12.989        0.941406 
        6.03185         12.9461        0.935377 
        6.04756         12.8326        0.929387 
        6.06331         12.7677        0.923438 
        6.07903         12.6464        0.917553 
        6.09473         12.5772        0.911726 
        6.11044         12.5073        0.905944 
        6.12616         12.4192        0.900214 
        6.14186         12.3245         0.89454 
        6.15755         12.2824        0.888915 
        6.17326         12.1731        0.883336 
        6.18898         12.0924        0.877801 
        6.20467         12.0184        0.872325 
        6.22036          11.937        0.866896 
         6.2361         11.8586        0.861499 
         6.2518         11.7883        0.856157 
        6.26748         11.7167        0.850873 
        6.28319         11.6426        0.845619 
        6.29893         11.5584        0.840406 
        6.31463         11.4929        0.835245 
        6.33033         11.3935        0.830131 
        6.34604         11.3472        0.825055 
        6.36177         11.2626        0.820018 
        6.37747         11.1664        0.815033 
