# k  (h/Mpc)    Pcb(k)  (Mpc/h)^3    Pcb_linear(k) (Mpc/h)^3   ShotnoiseSubtracted = true
      0.0200456         3553.42         3615.45 
      0.0350414         2705.87         2748.56 
      0.0492313         2048.68         2050.43 
      0.0637834         1768.23          1747.6 
      0.0800726         1431.34          1418.2 
       0.096163            1030         1042.62 
       0.111083         824.324           840.4 
       0.126058         759.671         754.969 
       0.142273         658.789         648.229 
       0.158546         534.392         516.025 
        0.17375         439.485          437.34 
       0.188953         414.669         399.539 
       0.204907         387.801         356.997 
       0.220756         325.648         303.892 
        0.23588         285.492         265.463 
         0.2514         255.077         242.651 
       0.267535         239.362         221.188 
       0.283568         216.512         196.137 
       0.299022         198.236         175.409 
       0.314451         179.701         161.012 
       0.330372         167.764         148.537 
       0.346141         152.354         135.453 
       0.361624         143.177         123.555 
       0.377134         135.322         114.091 
       0.392932          121.65         106.008 
       0.408854          117.48         98.1236 
       0.424564         112.186         90.7501 
       0.440253         104.088         84.4017 
       0.455999          98.536         78.9019 
       0.471626         91.6694         73.8354 
        0.48727         88.6815         69.0499 
       0.502856         83.9788         64.7346 
       0.518488         80.8153         60.8848 
       0.534347         77.7555         57.2998 
       0.550082         71.7151          53.981 
       0.565732         67.9281         50.9297 
       0.581496         66.0738         48.1301 
       0.597222         64.0688         45.5582 
       0.612804         60.3197         43.1858 
       0.628434         58.6634         40.9684 
       0.644267         57.1953         38.8876 
       0.660051         54.8488         36.9675 
       0.675724          52.337         35.1913 
       0.691403         50.7804         33.5313 
       0.707174         49.4325         31.9699 
       0.722871         47.5553         30.5151 
        0.73838         46.2569         29.1674 
       0.754018         44.2716         27.8916 
       0.769845         43.2336          26.679 
        0.78569         41.9604         25.5383 
       0.801365         40.5743         24.4764 
       0.817031         39.6924         23.4765 
       0.832809         38.9843         22.5271 
       0.848511         36.7559         21.6353 
       0.864097         36.1826         20.7988 
       0.879701         35.5368         20.0065 
       0.895507          34.852         19.2468 
       0.911279         33.7916         18.5288 
        0.92691         32.9701          17.854 
       0.942635         31.8193         17.2096 
       0.958396         31.3907         16.5962 
       0.974128         30.4869         16.0143 
       0.989692         30.2076         15.4664 
        1.00528         29.5146         14.9438 
        1.02113         28.4311         14.4375 
        1.03692         27.9363         13.9569 
        1.05264         27.3995         13.5008 
        1.06832         26.8773          13.066 
        1.08405         26.2359         12.6495 
        1.09979         25.7345         12.2512 
        1.11537          25.228         11.8743 
        1.13105         24.8927         11.5112 
        1.14679          24.553         11.1621 
        1.16256         23.7356          10.827 
        1.17828         23.6869          10.507 
        1.19395         22.9324         10.2012 
         1.2097         22.7642         9.90619 
        1.22537         22.2036         9.62445 
          1.241         21.9241         9.35468 
        1.25666         21.3821         9.09473 
        1.27241         21.0209         8.84359 
        1.28819         20.6271         8.60164 
        1.30392         20.4799         8.36958 
        1.31957         20.2213         8.14724 
        1.33529         19.9227         7.93228 
        1.35108         19.4407         7.72434 
        1.36674         19.2374         7.52544 
         1.3824         18.8249         7.33383 
        1.39811         18.5728         7.14835 
        1.41389         18.3853         6.96867 
        1.42964         18.1745         6.79555 
        1.44531         17.9741         6.62924 
        1.46101         17.4767         6.46822 
        1.47667         17.3047         6.31311 
        1.49229         17.1046         6.16357 
        1.50793         16.8626         6.01877 
        1.52367         16.6402         5.87775 
        1.53953         16.4206         5.74036 
        1.55526          16.178         5.60853 
        1.57092          15.987         5.48143 
        1.58662         15.8083         5.35803 
        1.60235         15.5664         5.23824 
        1.61809         15.3945          5.1221 
        1.63369         15.1834         5.01056 
        1.64941         14.9571         4.90158 
        1.66519         14.8565          4.7955 
        1.68085          14.646         4.69336 
        1.69652         14.4397         4.59419 
        1.71228         14.2534         4.49737 
        1.72806         14.2088          4.4033 
        1.74368         13.9566          4.3129 
        1.75933          13.801         4.22489 
        1.77505         13.6412         4.13895 
        1.79081         13.4198         4.05529 
         1.8065         13.3568         3.97432 
        1.82218         13.1317         3.89566 
        1.83797         13.0552         3.81863 
        1.85367         12.8483         3.74412 
        1.86928         12.8418         3.67208 
        1.88497          12.566         3.60157 
        1.90073         12.5138         3.53266 
        1.91647         12.4208         3.46565 
        1.93218          12.296         3.40054 
        1.94787         12.1014         3.33722 
        1.96363         12.0319         3.27528 
        1.97935         11.8548         3.21505 
        1.99499         11.6974         3.15671 
        2.01064         11.5869         3.09974 
         2.0264         11.4952         3.04384 
        2.04216         11.3856         2.98936 
        2.05781         11.2246         2.93657 
        2.07353         11.1542         2.88489 
        2.08928         11.0624         2.83435 
        2.10499         11.0061         2.78518 
        2.12065         10.8367         2.73733 
        2.13633         10.7891         2.69058 
        2.15211         10.6337         2.64463 
        2.16785         10.5616          2.5999 
        2.18349         10.4955         2.55649 
        2.19916         10.3795           2.514 
        2.21489         10.2423         2.47234 
        2.23063         10.1758         2.43161 
         2.2463         10.0482         2.39199 
        2.26194         9.94874         2.35336 
        2.27765         9.91606          2.3154 
        2.29341         9.80711         2.27819 
        2.30914         9.69969         2.24188 
        2.32486          9.6016         2.20639 
        2.34061         9.54194         2.17162 
        2.35635         9.49222         2.13764 
        2.37203         9.38022         2.10451 
        2.38768         9.26583         2.07216 
        2.40339         9.21407         2.04039 
        2.41914         9.07788         2.00921 
        2.43483          9.0687          1.9788 
         2.4505         8.98536         1.94908 
        2.46622         8.90243         1.91987 
        2.48195         8.81222         1.89127 
        2.49759         8.78358         1.86341 
        2.51328         8.66573         1.83604 
        2.52906         8.63653         1.80906 
        2.54479         8.54001         1.78273 
        2.56049          8.4657         1.75698 
        2.57618          8.4216         1.73176 
        2.59189         8.31068         1.70701 
        2.60758         8.28818         1.68278 
        2.62325         8.19804         1.65906 
        2.63898         8.10411         1.63572 
        2.65468         8.04905         1.61289 
        2.67044         7.99114         1.59039 
        2.68618         7.95092         1.56838 
        2.70184         7.86429         1.54688 
        2.71755         7.78726         1.52574 
        2.73329           7.754         1.50496 
        2.74897         7.69839         1.48464 
        2.76462         7.65826         1.46475 
        2.78034         7.56845         1.44514 
        2.79607          7.5184         1.42587 
        2.81179         7.47941         1.40698 
        2.82749         7.39152         1.38846 
        2.84321         7.39689         1.37026 
        2.85893         7.31233         1.35239 
        2.87462         7.23237         1.33487 
        2.89033         7.17902         1.31765 
        2.90605         7.11994         1.30072 
        2.92176         7.05538         1.28411 
        2.93747         7.02268         1.26779 
        2.95318         6.98944         1.25176 
        2.96891         6.92284           1.236 
        2.98456         6.87759         1.22058 
        3.00023         6.80247         1.20541 
        3.01596         6.76662         1.19045 
        3.03164         6.73039         1.17579 
        3.04738         6.68545         1.16134 
         3.0631         6.62704         1.14714 
        3.07883         6.57588         1.13317 
        3.09456         6.52802         1.11945 
        3.11026         6.51283         1.10597 
        3.12596         6.44728         1.09272 
        3.14163         6.38594         1.07972 
        3.15734         6.33887         1.06691 
        3.17308         6.31546         1.05427 
        3.18879         6.25532         1.04188 
        3.20447          6.2282          1.0297 
         3.2202         6.16309         1.01768 
         3.2359         6.14242         1.00588 
        3.25157         6.07633        0.994298 
        3.26729         6.05795        0.982863 
        3.28304         6.00357        0.971587 
        3.29877         5.95489        0.960505 
        3.31446         5.90833        0.949622 
        3.33014         5.88626        0.938918 
        3.34585         5.84464        0.928365 
        3.36158         5.82368        0.917961 
        3.37727         5.77492        0.907749 
        3.39294         5.74444        0.897705 
        3.40867         5.68772        0.887777 
        3.42439         5.65107        0.878007 
        3.44008         5.61569        0.868405 
        3.45578         5.57812         0.85894 
        3.47153         5.53399        0.849597 
        3.48724         5.51451        0.840411 
        3.50292         5.47294        0.831384 
        3.51859          5.4227        0.822495 
        3.53431         5.38101        0.813709 
        3.55007         5.37283        0.805032 
        3.56577         5.34296        0.796517 
        3.58146         5.29352         0.78813 
        3.59719         5.26588        0.779846 
        3.61292         5.23611        0.771685 
        3.62859         5.18529        0.763672 
        3.64429         5.15357        0.755759 
        3.66003         5.13102        0.747936 
        3.67578         5.09118        0.740227 
        3.69146         5.05035        0.732656 
        3.70712          5.0232        0.725207 
        3.72284         4.99321        0.717835 
        3.73853          4.9731        0.710579 
        3.75422         4.93366        0.703421 
        3.76993         4.88995        0.696357 
        3.78564         4.86881        0.689394 
        3.80137         4.84144        0.682516 
        3.81707         4.80168        0.675747 
        3.83279         4.77897        0.669065 
        3.84853         4.72471        0.662464 
        3.86424         4.71312        0.655966 
        3.87992         4.68379        0.649565 
        3.89561         4.64912         0.64325 
        3.91134         4.61911        0.637008 
        3.92704         4.59263        0.630856 
        3.94273         4.56578        0.624792 
        3.95845         4.55329        0.618798 
        3.97418         4.50336        0.612881 
        3.98988         4.48233        0.607051 
        4.00554         4.44799        0.601314 
        4.02125         4.41085        0.595635 
        4.03698         4.38378        0.590021 
        4.05268         4.35903        0.584493 
        4.06839         4.34055        0.579033 
         4.0841         4.30178        0.573645 
        4.09983         4.26728        0.568318 
        4.11555         4.24643        0.563062 
        4.13124         4.21978        0.557888 
        4.14693         4.18725        0.552774 
        4.16266         4.16701        0.547714 
        4.17839          4.1468        0.542721 
        4.19408         4.10524        0.537802 
        4.20977         4.08123        0.532942 
        4.22551         4.05466        0.528132 
        4.24123         4.02659        0.523386 
        4.25691         4.00219        0.518712 
        4.27259         3.98596        0.514094 
        4.28831         3.95001        0.509524 
        4.30404         3.92819        0.505006 
        4.31974         3.90268        0.500553 
        4.33543         3.87744        0.496156 
        4.35116         3.85077        0.491803 
        4.36688         3.83772        0.487503 
        4.38255          3.8073        0.483272 
        4.39825         3.79383        0.479082 
        4.41398         3.77033        0.474934 
         4.4297         3.74556         0.47084 
        4.44541         3.72219        0.466796 
        4.46111         3.69374        0.462803 
        4.47683         3.67371        0.458854 
        4.49251         3.65104        0.454959 
        4.50819         3.62546        0.451111 
         4.5239         3.61269        0.447303 
        4.53962         3.58474        0.443534 
        4.55535         3.56586        0.439807 
        4.57106         3.54974        0.436129 
        4.58678         3.51831        0.432493 
         4.6025         3.50084        0.428898 
        4.61821         3.48633        0.425344 
        4.63391         3.46393        0.421836 
         4.6496         3.44283        0.418369 
        4.66532         3.40325        0.414936 
        4.68103          3.3945        0.411544 
        4.69673         3.37693        0.408193 
        4.71241         3.35365        0.404883 
        4.72811          3.3351        0.401605 
        4.74384         3.31994        0.398359 
        4.75955         3.30405        0.395154 
        4.77525         3.28509        0.391987 
        4.79096         3.25295        0.388851 
        4.80669         3.24623        0.385748 
         4.8224         3.23164        0.382683 
        4.83809         3.21213        0.379655 
        4.85379          3.1908        0.376658 
         4.8695         3.17078        0.373691 
        4.88521         3.15424        0.370758 
        4.90093         3.12758        0.367856 
        4.91663         3.11417        0.364988 
        4.93234         3.09993        0.362148 
        4.94807         3.07995        0.359336 
        4.96377         3.05723         0.35656 
        4.97943         3.04363        0.353819 
        4.99514         3.02359        0.351101 
        5.01086         3.00387        0.348409 
        5.02654         2.99581        0.345752 
        5.04227          2.9788        0.343116 
          5.058         2.96153        0.340506 
        5.07371         2.94128        0.337929 
        5.08942         2.92768        0.335379 
        5.10513         2.90875        0.332854 
        5.12084         2.89964        0.330355 
        5.13656         2.87578        0.327882 
        5.15225         2.86308        0.325439 
        5.16796         2.83912        0.323017 
        5.18369         2.82433        0.320617 
         5.1994         2.81224        0.318247 
        5.21509         2.80004        0.315903 
        5.23079          2.7814         0.31358 
        5.24649         2.76879        0.311283 
        5.26217         2.75397         0.30901 
        5.27788         2.73056        0.306757 
        5.29359         2.72182        0.304526 
        5.30933         2.71098        0.302315 
        5.32504         2.68689        0.300129 
        5.34073         2.67759        0.297968 
        5.35646         2.66209        0.295824 
        5.37218         2.65072          0.2937 
        5.38789         2.63362        0.291601 
        5.40357         2.62353        0.289526 
        5.41929         2.60873        0.287466 
        5.43502         2.59243        0.285426 
         5.4507         2.57741        0.283411 
        5.46639          2.5698        0.281415 
        5.48212         2.55524        0.279434 
        5.49786         2.54472         0.27747 
        5.51353         2.52565        0.275535 
        5.52921         2.50923        0.273616 
        5.54495         2.50299         0.27171 
        5.56066          2.4903        0.269825 
        5.57637         2.47505        0.267958 
        5.59207         2.46087         0.26611 
        5.60778         2.45093        0.264279 
        5.62346         2.43916        0.262469 
        5.63916         2.42229        0.260673 
        5.65487         2.41144        0.258894 
         5.6706          2.4019         0.25713 
        5.68633         2.38734        0.255381 
        5.70203         2.37616        0.253652 
        5.71773          2.3668         0.25194 
        5.73344         2.34988        0.250243 
        5.74916         2.33815         0.24856 
        5.76486         2.32978        0.246895 
        5.78054         2.31516        0.245248 
        5.79626          2.3085        0.243612 
          5.812         2.29332        0.241989 
         5.8277         2.28022        0.240385 
        5.84339         2.27419        0.238797 
        5.85911         2.25801        0.237219 
        5.87484         2.24978        0.235657 
        5.89053          2.2374        0.234111 
        5.90623         2.22727        0.232579 
        5.92195         2.21481        0.231059 
        5.93767          2.2053        0.229552 
        5.95336         2.19415        0.228062 
        5.96905          2.1804        0.226586 
        5.98476         2.17359        0.225121 
        6.00048         2.15875        0.223668 
        6.01617         2.15185        0.222231 
        6.03185         2.14154        0.220808 
        6.04756         2.13067        0.219394 
        6.06331         2.11842        0.217989 
        6.07903         2.10948          0.2166 
        6.09473          2.1032        0.215224 
        6.11044         2.08907         0.21386 
        6.12616            2.08        0.212507 
        6.14186         2.06776        0.211167 
        6.15755         2.05852         0.20984 
        6.17326         2.05024        0.208522 
        6.18898         2.04293        0.207216 
        6.20467         2.03152        0.205923 
        6.22036         2.02431        0.204642 
         6.2361         2.01233        0.203368 
         6.2518         2.00089        0.202107 
        6.26748          1.9926        0.200859 
        6.28319         1.98489        0.199619 
        6.29893         1.97815        0.198388 
        6.31463         1.96539         0.19717 
        6.33033         1.95641        0.195963 
        6.34604         1.94811        0.194765 
        6.36177         1.93841        0.193576 
        6.37747         1.93164        0.192399 
