# k  (h/Mpc)    Pcb(k)  (Mpc/h)^3    Pcb_linear(k) (Mpc/h)^3   ShotnoiseSubtracted = true
      0.0200456         927.994         942.602 
      0.0350414         712.189         716.591 
      0.0492313         536.124         534.579 
      0.0637834         458.665         455.626 
      0.0800726         371.553         369.746 
       0.096163         270.954         271.827 
       0.111083          217.38         219.105 
       0.126058           197.4         196.832 
       0.142273         170.159         169.003 
       0.158546         136.297         134.535 
        0.17375         113.799         114.021 
       0.188953         105.108         104.166 
       0.204907         96.3698         93.0745 
       0.220756         81.0385         79.2291 
        0.23588         70.8599         69.2101 
         0.2514         64.0486         63.2626 
       0.267535          58.785         57.6669 
       0.283568         52.5516         51.1358 
       0.299022         47.4676         45.7318 
       0.314451         42.7416         41.9783 
       0.330372         39.8227         38.7257 
       0.346141          36.351         35.3147 
       0.361624         33.5024         32.2126 
       0.377134          31.333         29.7451 
       0.392932         28.0574         27.6379 
       0.408854         26.9002         25.5823 
       0.424564         24.9636         23.6599 
       0.440253         23.1145         22.0048 
       0.455999         21.8553         20.5709 
       0.471626         20.5756           19.25 
        0.48727         19.2801         18.0023 
       0.502856         18.0154         16.8773 
       0.518488         17.2469         15.8736 
       0.534347           16.47         14.9389 
       0.550082         15.1126         14.0736 
       0.565732         14.0047         13.2781 
       0.581496         13.7215         12.5482 
       0.597222         13.1612         11.8777 
       0.612804         12.2917         11.2592 
       0.628434         11.8578         10.6811 
       0.644267         11.3461         10.1386 
       0.660051         10.7277         9.63798 
       0.675724         10.2174         9.17489 
       0.691403         9.87656          8.7421 
       0.707174          9.3902         8.33503 
       0.722871         9.00717         7.95575 
        0.73838         8.68119         7.60436 
       0.754018         8.39276         7.27175 
       0.769845         7.97643         6.95561 
        0.78569         7.72362          6.6582 
       0.801365         7.39849         6.38135 
       0.817031         7.16591         6.12067 
       0.832809         6.92479         5.87314 
       0.848511         6.54952         5.64065 
       0.864097          6.3304         5.42257 
       0.879701         6.12735           5.216 
       0.895507          5.8838         5.01794 
       0.911279         5.79462         4.83074 
        0.92691         5.58207         4.65481 
       0.942635         5.34346         4.48681 
       0.958396         5.16318         4.32688 
       0.974128         5.03102         4.17516 
       0.989692         4.93777         4.03233 
        1.00528         4.72609         3.89608 
        1.02113         4.55567         3.76408 
        1.03692         4.48421         3.63878 
        1.05264         4.32749         3.51985 
        1.06832         4.22887          3.4065 
        1.08405          4.0338         3.29791 
        1.09979         3.95671         3.19407 
        1.11537         3.86283          3.0958 
        1.13105         3.76899         3.00113 
        1.14679         3.67179         2.91012 
        1.16256         3.55555         2.82276 
        1.17828         3.47956         2.73933 
        1.19395         3.38871          2.6596 
         1.2097         3.25044         2.58269 
        1.22537         3.18662         2.50924 
          1.241         3.12332         2.43891 
        1.25666         3.10118         2.37113 
        1.27241         2.96334         2.30566 
        1.28819         2.89736         2.24258 
        1.30392         2.85247         2.18207 
        1.31957         2.78783         2.12411 
        1.33529         2.70984         2.06806 
        1.35108         2.65266         2.01385 
        1.36674         2.57994         1.96199 
         1.3824         2.51518         1.91204 
        1.39811         2.46447         1.86368 
        1.41389         2.42497         1.81683 
        1.42964         2.37354          1.7717 
        1.44531         2.32423         1.72834 
        1.46101         2.28248         1.68636 
        1.47667         2.20327         1.64592 
        1.49229          2.1877         1.60693 
        1.50793         2.13137         1.56918 
        1.52367         2.10395         1.53242 
        1.53953         2.03693          1.4966 
        1.55526         2.00103         1.46223 
        1.57092         1.96621         1.42909 
        1.58662         1.93298         1.39692 
        1.60235         1.89124         1.36569 
        1.61809         1.85148         1.33541 
        1.63369         1.83376         1.30633 
        1.64941         1.78644         1.27792 
        1.66519         1.76074         1.25026 
        1.68085         1.70917         1.22363 
        1.69652          1.6859         1.19777 
        1.71228         1.66605         1.17253 
        1.72806         1.62037         1.14801 
        1.74368         1.60375         1.12444 
        1.75933          1.5661         1.10149 
        1.77505          1.5439         1.07909 
        1.79081         1.51755         1.05727 
         1.8065         1.48594         1.03616 
        1.82218         1.47024         1.01566 
        1.83797         1.44887        0.995573 
        1.85367         1.43161        0.976149 
        1.86928         1.40533        0.957366 
        1.88497         1.37204        0.938982 
        1.90073         1.34532        0.921018 
        1.91647         1.33854        0.903546 
        1.93218         1.31179        0.886571 
        1.94787         1.28734        0.870062 
        1.96363         1.26751        0.853913 
        1.97935         1.24568        0.838212 
        1.99499         1.22572           0.823 
        2.01064         1.20732        0.808148 
         2.0264          1.1965        0.793574 
        2.04216         1.17629         0.77937 
        2.05781          1.1578        0.765608 
        2.07353         1.14152        0.752134 
        2.08928         1.11926        0.738958 
        2.10499         1.10663        0.726137 
        2.12065         1.09936        0.713663 
        2.13633         1.07738        0.701474 
        2.15211         1.05785        0.689495 
        2.16785         1.04202        0.677832 
        2.18349         1.03028        0.666516 
        2.19916         1.01519        0.655437 
        2.21489        0.998381        0.644576 
        2.23063        0.985781        0.633957 
         2.2463        0.980113        0.623628 
        2.26194        0.953168        0.613557 
        2.27765        0.944175         0.60366 
        2.29341        0.937065        0.593958 
        2.30914        0.929836        0.584491 
        2.32486        0.911523        0.575239 
        2.34061        0.898107        0.566174 
        2.35635        0.883921        0.557315 
        2.37203        0.875058        0.548678 
        2.38768         0.86487        0.540244 
        2.40339        0.854943        0.531959 
        2.41914        0.844576         0.52383 
        2.43483         0.83174        0.515902 
         2.4505        0.820871        0.508153 
        2.46622        0.811051        0.500539 
        2.48195         0.80669        0.493082 
        2.49759        0.793346        0.485818 
        2.51328        0.779435        0.478684 
        2.52906        0.773136        0.471649 
        2.54479        0.764582        0.464784 
        2.56049        0.752111         0.45807 
        2.57618        0.746927        0.451496 
        2.59189        0.737811        0.445042 
        2.60758         0.72893        0.438726 
        2.62325        0.719191        0.432542 
        2.63898        0.714917        0.426457 
        2.65468         0.70407        0.420503 
        2.67044        0.694053        0.414639 
        2.68618        0.687081        0.408901 
        2.70184        0.680042        0.403296 
        2.71755         0.67208        0.397783 
        2.73329        0.665138        0.392366 
        2.74897        0.658487        0.387068 
        2.76462        0.650833        0.381881 
        2.78034        0.643552        0.376769 
        2.79607        0.637611        0.371746 
        2.81179        0.629043        0.366822 
        2.82749        0.624557        0.361993 
        2.84321        0.618606        0.357246 
        2.85893        0.610529        0.352587 
        2.87462         0.60419         0.34802 
        2.89033        0.596501        0.343531 
        2.90605        0.592934        0.339118 
        2.92176         0.58539        0.334785 
        2.93747         0.57969        0.330532 
        2.95318        0.573843        0.326352 
        2.96891        0.568448        0.322243 
        2.98456        0.563415        0.318224 
        3.00023        0.558356        0.314268 
        3.01596        0.551767        0.310368 
        3.03164        0.546568        0.306546 
        3.04738        0.538414        0.302778 
         3.0631        0.536867        0.299075 
        3.07883        0.529878        0.295435 
        3.09456        0.524171        0.291856 
        3.11026        0.520742        0.288343 
        3.12596        0.514575        0.284889 
        3.14163        0.511185          0.2815 
        3.15734        0.508164        0.278159 
        3.17308        0.501427        0.274864 
        3.18879        0.498312        0.271632 
        3.20447        0.491178        0.268458 
         3.2202        0.489845        0.265325 
         3.2359        0.484334        0.262248 
        3.25157        0.479348        0.259228 
        3.26729        0.476709        0.256247 
        3.28304        0.471878        0.253307 
        3.29877        0.466728        0.250418 
        3.31446        0.463629         0.24758 
        3.33014          0.4598         0.24479 
        3.34585        0.457873        0.242039 
        3.36158        0.452772        0.239326 
        3.37727        0.449318        0.236664 
        3.39294        0.445716        0.234045 
        3.40867        0.441671        0.231457 
        3.42439        0.438685         0.22891 
        3.44008        0.435749        0.226406 
        3.45578        0.433475        0.223938 
        3.47153         0.42843        0.221503 
        3.48724        0.426854        0.219108 
        3.50292        0.423573        0.216754 
        3.51859        0.418927        0.214437 
        3.53431        0.416277        0.212146 
        3.55007        0.414458        0.209884 
        3.56577        0.409409        0.207664 
        3.58146        0.406125        0.205477 
        3.59719        0.403956        0.203317 
        3.61292        0.402187         0.20119 
        3.62859        0.397118        0.199101 
        3.64429        0.395462        0.197038 
        3.66003        0.392049        0.194998 
        3.67578        0.389362        0.192988 
        3.69146        0.386249        0.191014 
        3.70712        0.384288        0.189072 
        3.72284         0.38144         0.18715 
        3.73853        0.379932        0.185258 
        3.75422        0.375674        0.183392 
        3.76993        0.373759        0.181551 
        3.78564        0.370626        0.179735 
        3.80137          0.3681        0.177942 
        3.81707        0.366545        0.176177 
        3.83279        0.362838        0.174435 
        3.84853         0.36042        0.172714 
        3.86424        0.357778         0.17102 
        3.87992        0.355967        0.169351 
        3.89561        0.352911        0.167705 
        3.91134        0.351951        0.166077 
        3.92704        0.347915        0.164473 
        3.94273        0.345277        0.162893 
        3.95845        0.343208         0.16133 
        3.97418        0.340758        0.159787 
        3.98988        0.337888        0.158267 
        4.00554        0.335947        0.156771 
        4.02125         0.33293        0.155291 
        4.03698        0.330029        0.153827 
        4.05268        0.327613        0.152386 
        4.06839         0.32341        0.150963 
         4.0841        0.319932        0.149558 
        4.09983        0.317164        0.148169 
        4.11555        0.314183        0.146799 
        4.13124         0.31065         0.14545 
        4.14693         0.30848        0.144116 
        4.16266        0.305707        0.142797 
        4.17839        0.303455        0.141495 
        4.19408        0.300412        0.140213 
        4.20977        0.298781        0.138946 
        4.22551        0.295833        0.137692 
        4.24123        0.293819        0.136454 
        4.25691        0.291462        0.135236 
        4.27259        0.288753        0.134032 
        4.28831        0.287107        0.132841 
        4.30404        0.284028        0.131663 
        4.31974        0.283198        0.130502 
        4.33543        0.280581        0.129355 
        4.35116        0.278374         0.12822 
        4.36688        0.277243        0.127099 
        4.38255        0.274749        0.125996 
        4.39825        0.273611        0.124904 
        4.41398        0.271403        0.123822 
         4.4297         0.26994        0.122755 
        4.44541        0.268584        0.121701 
        4.46111        0.267342         0.12066 
        4.47683        0.266035         0.11963 
        4.49251        0.263953        0.118615 
        4.50819        0.262069        0.117611 
         4.5239        0.261753        0.116619 
        4.53962         0.26064        0.115636 
        4.55535        0.258665        0.114664 
        4.57106        0.258116        0.113705 
        4.58678        0.257219        0.112757 
         4.6025        0.255705         0.11182 
        4.61821         0.25482        0.110894 
        4.63391        0.253788        0.109979 
         4.6496        0.252826        0.109075 
        4.66532         0.25223         0.10818 
        4.68103        0.251851        0.107296 
        4.69673        0.250584        0.106422 
        4.71241        0.250352        0.105559 
        4.72811        0.249082        0.104704 
        4.74384        0.249319        0.103858 
        4.75955        0.248479        0.103023 
        4.77525        0.248014        0.102197 
        4.79096        0.246997        0.101379 
        4.80669        0.247142         0.10057 
         4.8224         0.24614       0.0997712 
        4.83809        0.245912       0.0989816 
        4.85379        0.246044       0.0982002 
         4.8695        0.245769       0.0974267 
        4.88521        0.244913        0.096662 
        4.90093        0.245713       0.0959054 
        4.91663        0.245511       0.0951577 
        4.93234         0.24473       0.0944172 
        4.94807        0.245083       0.0936843 
        4.96377        0.245639       0.0929605 
        4.97943        0.245961        0.092246 
        4.99514        0.245474       0.0915372 
        5.01086        0.246177       0.0908354 
        5.02654        0.245698       0.0901428 
        5.04227        0.245791       0.0894555 
          5.058        0.246137       0.0887751 
        5.07371        0.247149       0.0881032 
        5.08942        0.247565       0.0874382 
        5.10513        0.247382         0.08678 
        5.12084        0.248545       0.0861284 
        5.13656        0.248884       0.0854837 
        5.15225        0.249055       0.0848467 
        5.16796         0.25075       0.0842153 
        5.18369        0.249915       0.0835897 
         5.1994        0.251436       0.0829718 
        5.21509        0.251801       0.0823606 
        5.23079        0.253181        0.081755 
        5.24649        0.254038        0.081156 
        5.26217        0.254251       0.0805635 
        5.27788        0.255641       0.0799761 
        5.29359        0.256473       0.0793946 
        5.30933        0.257691        0.078818 
        5.32504        0.258153       0.0782482 
        5.34073        0.259592       0.0776847 
        5.35646        0.259648       0.0771256 
        5.37218        0.261102        0.076572 
        5.38789        0.262288       0.0760248 
        5.40357        0.264625       0.0754836 
        5.41929        0.265252       0.0749466 
        5.43502         0.26497       0.0744147 
         5.4507        0.267656       0.0738894 
        5.46639        0.268257       0.0733691 
        5.48212         0.27048       0.0728526 
        5.49786        0.271563       0.0723405 
        5.51353        0.273859        0.071836 
        5.52921        0.274608       0.0713357 
        5.54495        0.276275       0.0708389 
        5.56066        0.277746       0.0703473 
        5.57637        0.279796       0.0698606 
        5.59207        0.281024       0.0693789 
        5.60778        0.283221       0.0689016 
        5.62346        0.284886       0.0684295 
        5.63916        0.285881       0.0679614 
        5.65487        0.287398       0.0674975 
         5.6706        0.289418       0.0670375 
        5.68633        0.291565       0.0665816 
        5.70203        0.293265       0.0661309 
        5.71773         0.29512       0.0656845 
        5.73344        0.296577       0.0652421 
        5.74916        0.299775       0.0648033 
        5.76486        0.300753       0.0643692 
        5.78054        0.302191       0.0639398 
        5.79626        0.304648       0.0635132 
          5.812         0.30669         0.06309 
         5.8277        0.307845        0.062672 
        5.84339        0.311374       0.0622578 
        5.85911        0.312661       0.0618466 
        5.87484        0.313836       0.0614392 
        5.89053        0.317732       0.0610363 
        5.90623        0.319317       0.0606369 
        5.92195        0.321185       0.0602404 
        5.93767        0.322674       0.0598477 
        5.95336         0.32514       0.0594592 
        5.96905        0.328853       0.0590743 
        5.98476        0.329191       0.0586924 
        6.00048        0.332803       0.0583137 
        6.01617        0.334115       0.0579388 
        6.03185        0.335891       0.0575678 
        6.04756        0.338109       0.0571992 
        6.06331         0.33984        0.056833 
        6.07903        0.341717       0.0564708 
        6.09473        0.344968       0.0561122 
        6.11044         0.34792       0.0557564 
        6.12616        0.349408       0.0554037 
        6.14186        0.353445       0.0550545 
        6.15755        0.354635       0.0547083 
        6.17326        0.357663       0.0543649 
        6.18898        0.359942       0.0540243 
        6.20467        0.361389       0.0536872 
        6.22036        0.361609       0.0533531 
         6.2361        0.364951        0.053021 
         6.2518        0.368574       0.0526922 
        6.26748        0.368555        0.052367 
        6.28319        0.371403       0.0520437 
        6.29893        0.374251       0.0517228 
        6.31463        0.378673       0.0514052 
        6.33033        0.378043       0.0510904 
        6.34604        0.382112        0.050778 
        6.36177        0.383851        0.050468 
        6.37747        0.386254       0.0501612 
