# k  (h/Mpc)    Pcb(k)  (Mpc/h)^3    Pcb_linear(k) (Mpc/h)^3   ShotnoiseSubtracted = true
      0.0200456         9290.86         9439.93 
      0.0350414         7335.24         7176.49 
      0.0492313         5304.01         5353.68 
      0.0637834         4398.98         4562.98 
      0.0800726         3541.94         3702.91 
       0.096163         2787.58         2722.28 
       0.111083         2288.13         2194.28 
       0.126058         1934.05         1971.22 
       0.142273         1680.02         1692.52 
       0.158546         1387.59         1347.34 
        0.17375         1217.31         1141.89 
       0.188953         1127.57         1043.19 
       0.204907         969.415         932.119 
       0.220756         871.358          793.46 
        0.23588         775.631         693.123 
         0.2514         698.729          633.56 
       0.267535         678.042          577.52 
       0.283568         594.356         512.113 
       0.299022         566.191         457.992 
       0.314451         567.905         420.402 
       0.330372         490.784         387.828 
       0.346141         456.796         353.668 
       0.361624         436.568         322.601 
       0.377134         406.152          297.89 
       0.392932         396.656         276.787 
       0.408854          376.92           256.2 
       0.424564         363.749         236.948 
       0.440253         329.175         220.372 
       0.455999         315.309         206.013 
       0.471626         314.029         192.784 
        0.48727         300.072         180.289 
       0.502856         275.115         169.022 
       0.518488         275.787          158.97 
       0.534347         256.707          149.61 
       0.550082          251.17         140.944 
       0.565732         248.951         132.977 
       0.581496         233.924         125.667 
       0.597222         228.762         118.952 
       0.612804         222.891         112.758 
       0.628434         215.169         106.968 
       0.644267         205.867         101.535 
       0.660051          201.26          96.522 
       0.675724          199.95         91.8843 
       0.691403         194.439           87.55 
       0.707174         188.413         83.4733 
       0.722871         185.601         79.6749 
        0.73838         183.465         76.1558 
       0.754018         172.816         72.8248 
       0.769845          172.66         69.6588 
        0.78569         168.515         66.6803 
       0.801365         164.033         63.9076 
       0.817031         159.371          61.297 
       0.832809         157.032          58.818 
       0.848511         153.615         56.4897 
       0.864097         151.066         54.3057 
       0.879701         149.166          52.237 
       0.895507         144.723         50.2534 
       0.911279         141.922         48.3787 
        0.92691         138.962         46.6168 
       0.942635         136.641         44.9343 
       0.958396         134.706         43.3326 
       0.974128         131.962         41.8132 
       0.989692         129.439         40.3828 
        1.00528         127.604         39.0183 
        1.02113          124.32         37.6964 
        1.03692         124.004         36.4415 
        1.05264         122.428         35.2504 
        1.06832         118.663         34.1152 
        1.08405          117.96         33.0278 
        1.09979         117.023         31.9878 
        1.11537           114.1         31.0036 
        1.13105         112.863         30.0556 
        1.14679         110.811         29.1441 
        1.16256         108.752         28.2693 
        1.17828         107.734         27.4337 
        1.19395         104.836         26.6353 
         1.2097         105.034          25.865 
        1.22537         102.487         25.1294 
          1.241         102.164          24.425 
        1.25666         98.9033         23.7463 
        1.27241         98.2968         23.0906 
        1.28819         97.6304         22.4588 
        1.30392           95.66         21.8529 
        1.31957         94.8513         21.2724 
        1.33529         93.6494         20.7112 
        1.35108         92.9773         20.1682 
        1.36674          91.547         19.6489 
         1.3824         90.5319         19.1486 
        1.39811         88.5951         18.6643 
        1.41389         87.4937         18.1952 
        1.42964         86.5708         17.7431 
        1.44531         85.6829         17.3089 
        1.46101          84.811         16.8885 
        1.47667         83.6651         16.4835 
        1.49229         82.8553          16.093 
        1.50793          81.789          15.715 
        1.52367         81.1642         15.3468 
        1.53953         79.6444         14.9881 
        1.55526         78.6897         14.6438 
        1.57092         78.4607          14.312 
        1.58662         77.2589         13.9898 
        1.60235         76.1993          13.677 
        1.61809         75.1699         13.3738 
        1.63369         74.2794         13.0825 
        1.64941         74.0095          12.798 
        1.66519         72.3833          12.521 
        1.68085         72.1196         12.2543 
        1.69652         70.3836         11.9954 
        1.71228         70.4017         11.7426 
        1.72806         69.4548          11.497 
        1.74368          68.541          11.261 
        1.75933         68.0745         11.0312 
        1.77505         67.4456         10.8068 
        1.79081         66.3885         10.5883 
         1.8065         65.9401         10.3769 
        1.82218         64.1446         10.1716 
        1.83797         63.9396         9.97042 
        1.85367         63.4759         9.77589 
        1.86928         63.0121         9.58779 
        1.88497         61.7944         9.40367 
        1.90073         61.0697         9.22377 
        1.91647         60.7181          9.0488 
        1.93218         60.4959         8.87879 
        1.94787         59.4335         8.71346 
        1.96363         58.4199         8.55173 
        1.97935         58.1054         8.39449 
        1.99499          57.458         8.24214 
        2.01064         56.8759          8.0934 
         2.0264         56.4391         7.94745 
        2.04216         55.5831          7.8052 
        2.05781         54.8858         7.66738 
        2.07353         54.1852         7.53244 
        2.08928         54.0584         7.40049 
        2.10499         53.5054         7.27209 
        2.12065         52.8557         7.14716 
        2.13633         52.4716         7.02509 
        2.15211         51.6211         6.90512 
        2.16785         50.9194         6.78832 
        2.18349         50.4002         6.67499 
        2.19916         49.9551         6.56404 
        2.21489         49.5946         6.45527 
        2.23063         48.9335         6.34892 
         2.2463         48.6564         6.24548 
        2.26194         47.9116         6.14462 
        2.27765           47.41          6.0455 
        2.29341         46.9082         5.94834 
        2.30914         46.5344         5.85354 
        2.32486         45.7305         5.76088 
        2.34061         45.5838         5.67009 
        2.35635         45.0453         5.58137 
        2.37203         44.6703         5.49487 
        2.38768         44.2499         5.41041 
        2.40339         43.9457         5.32744 
        2.41914         43.3822         5.24603 
        2.43483         42.8722         5.16663 
         2.4505         42.5274         5.08903 
        2.46622         42.0672         5.01278 
        2.48195         41.7114          4.9381 
        2.49759         41.1042         4.86535 
        2.51328         40.7547          4.7939 
        2.52906         40.4721         4.72345 
        2.54479         40.0468         4.65469 
        2.56049         39.7981         4.58745 
        2.57618         39.2245         4.52162 
        2.59189         38.7584         4.45699 
        2.60758         38.5008         4.39374 
        2.62325         38.1595          4.3318 
        2.63898         37.9235         4.27086 
        2.65468         37.3718         4.21124 
        2.67044         37.0157          4.1525 
        2.68618         36.7972         4.09504 
        2.70184         36.2896         4.03891 
        2.71755         36.0474          3.9837 
        2.73329         35.5727         3.92944 
        2.74897         35.2444         3.87639 
        2.76462         34.9499         3.82445 
        2.78034         34.5967         3.77325 
        2.79607         34.2386         3.72295 
        2.81179         34.0366         3.67363 
        2.82749         33.6271         3.62527 
        2.84321         33.3696         3.57773 
        2.85893         33.0912         3.53108 
        2.87462         32.7494         3.48534 
        2.89033         32.4226         3.44038 
        2.90605          32.124         3.39618 
        2.92176          31.849         3.35279 
        2.93747         31.5045         3.31019 
        2.95318         31.3358         3.26833 
        2.96891         30.9782         3.22718 
        2.98456         30.6097         3.18693 
        3.00023         30.3347         3.14732 
        3.01596         29.9827         3.10826 
        3.03164         29.7845         3.06998 
        3.04738         29.5571         3.03225 
         3.0631         29.3078         2.99517 
        3.07883         28.9437         2.95871 
        3.09456         28.7358         2.92287 
        3.11026         28.3424         2.88769 
        3.12596         28.0515         2.85309 
        3.14163         27.7926         2.81915 
        3.15734         27.6313         2.78569 
        3.17308         27.3928          2.7527 
        3.18879         27.1316         2.72033 
        3.20447         26.8712         2.68854 
         3.2202         26.5785         2.65717 
         3.2359         26.4379         2.62635 
        3.25157         26.1357         2.59611 
        3.26729         25.9579         2.56625 
        3.28304         25.7009         2.53681 
        3.29877         25.4111         2.50787 
        3.31446         25.1999         2.47946 
        3.33014         24.9409         2.45151 
        3.34585         24.8506         2.42396 
        3.36158          24.522         2.39679 
        3.37727         24.3517         2.37013 
        3.39294         24.1551          2.3439 
        3.40867         23.9349         2.31798 
        3.42439         23.7241         2.29247 
        3.44008         23.4753          2.2674 
        3.45578         23.2999         2.24269 
        3.47153         23.0305         2.21829 
        3.48724         22.8789         2.19431 
        3.50292         22.7131         2.17074 
        3.51859         22.4604         2.14753 
        3.53431         22.3231         2.12459 
        3.55007         22.0584         2.10194 
        3.56577         21.9006          2.0797 
        3.58146         21.6802          2.0578 
        3.59719         21.5704         2.03617 
        3.61292         21.3128         2.01487 
        3.62859         21.0759         1.99394 
        3.64429         20.9365         1.97328 
        3.66003         20.8196         1.95286 
        3.67578         20.6625         1.93273 
        3.69146         20.3584         1.91296 
        3.70712         20.2484         1.89351 
        3.72284         20.0368         1.87426 
        3.73853         19.9686         1.85532 
        3.75422           19.69         1.83663 
        3.76993         19.5748         1.81819 
        3.78564         19.3915         1.80001 
        3.80137          19.261         1.78205 
        3.81707         19.0304         1.76437 
        3.83279         18.9226         1.74693 
        3.84853         18.7476         1.72969 
        3.86424         18.5258         1.71272 
        3.87992          18.433         1.69601 
        3.89561         18.2549         1.67952 
        3.91134         18.1406         1.66322 
        3.92704         17.9609         1.64716 
        3.94273         17.8155         1.63133 
        3.95845         17.6435         1.61568 
        3.97418         17.4701         1.60023 
        3.98988         17.3677         1.58501 
        4.00554         17.2298         1.57003 
        4.02125         17.0477          1.5552 
        4.03698         16.9541         1.54054 
        4.05268         16.7908         1.52611 
        4.06839          16.626         1.51185 
         4.0841         16.5282         1.49778 
        4.09983         16.3472         1.48388 
        4.11555         16.2027         1.47015 
        4.13124         16.0954         1.45664 
        4.14693         15.9421         1.44329 
        4.16266         15.8427         1.43008 
        4.17839         15.7118         1.41704 
        4.19408         15.5874          1.4042 
        4.20977          15.427         1.39151 
        4.22551         15.3369         1.37895 
        4.24123         15.2126         1.36656 
        4.25691         15.0915         1.35436 
        4.27259         14.9409          1.3423 
        4.28831         14.8725         1.33037 
        4.30404          14.757         1.31857 
        4.31974         14.5978         1.30694 
        4.33543           14.45         1.29546 
        4.35116         14.3993         1.28409 
        4.36688         14.2106         1.27287 
        4.38255         14.1186         1.26182 
        4.39825         14.0258         1.25088 
        4.41398          13.891         1.24005 
         4.4297         13.8074         1.22936 
        4.44541         13.6968          1.2188 
        4.46111         13.5858         1.20838 
        4.47683         13.4518         1.19806 
        4.49251         13.3564          1.1879 
        4.50819         13.2511         1.17785 
         4.5239         13.2023         1.16791 
        4.53962         13.0522         1.15807 
        4.55535         12.9713         1.14834 
        4.57106         12.8679         1.13873 
        4.58678          12.779         1.12924 
         4.6025         12.6754         1.11985 
        4.61821         12.5644         1.11057 
        4.63391         12.4648         1.10141 
         4.6496         12.3744         1.09236 
        4.66532         12.2771          1.0834 
        4.68103         12.1574         1.07454 
        4.69673         12.0896         1.06579 
        4.71241         11.9618         1.05715 
        4.72811         11.9129         1.04859 
        4.74384         11.8069         1.04011 
        4.75955         11.7125         1.03175 
        4.77525         11.6121         1.02348 
        4.79096          11.548         1.01529 
        4.80669         11.4511         1.00719 
         4.8224         11.3445        0.999184 
        4.83809         11.2757        0.991277 
        4.85379         11.1914        0.983451 
         4.8695         11.0981        0.975705 
        4.88521          11.009        0.968046 
        4.90093          10.946        0.960469 
        4.91663         10.8548        0.952981 
        4.93234         10.7801        0.945566 
        4.94807         10.7055        0.938225 
        4.96377         10.6329        0.930976 
        4.97943          10.541        0.923821 
        4.99514         10.4587        0.916722 
        5.01086         10.3935        0.909694 
        5.02654         10.3086        0.902758 
        5.04227         10.2133        0.895875 
          5.058         10.1559        0.889061 
        5.07371         10.0984        0.882332 
        5.08942         9.99638        0.875672 
        5.10513         9.92215        0.869081 
        5.12084         9.86453        0.862555 
        5.13656         9.79828        0.856098 
        5.15225         9.69024        0.849719 
        5.16796          9.6414        0.843395 
        5.18369         9.57804        0.837131 
         5.1994         9.51647        0.830942 
        5.21509         9.44668        0.824822 
        5.23079         9.36036        0.818757 
        5.24649         9.30881        0.812758 
        5.26217         9.24217        0.806824 
        5.27788         9.16245        0.800941 
        5.29359         9.10465        0.795117 
        5.30933         9.01894        0.789343 
        5.32504         8.97772        0.783636 
        5.34073         8.91426        0.777993 
        5.35646         8.84271        0.772394 
        5.37218         8.78701         0.76685 
        5.38789         8.71831         0.76137 
        5.40357         8.65529         0.75595 
        5.41929         8.60875        0.750572 
        5.43502         8.55256        0.745245 
         5.4507         8.50361        0.739984 
        5.46639         8.42247        0.734773 
        5.48212         8.36355        0.729601 
        5.49786         8.30546        0.724473 
        5.51353         8.24882         0.71942 
        5.52921         8.19183         0.71441 
        5.54495         8.12323        0.709434 
        5.56066         8.08478        0.704511 
        5.57637         8.03838        0.699636 
        5.59207         7.97255        0.694812 
        5.60778         7.91855        0.690033 
        5.62346          7.8443        0.685305 
        5.63916         7.80867        0.680617 
        5.65487         7.75445        0.675971 
         5.6706         7.69907        0.671364 
        5.68633         7.64165        0.666798 
        5.70203         7.60831        0.662285 
        5.71773         7.53703        0.657814 
        5.73344         7.48885        0.653383 
        5.74916         7.44432        0.648989 
        5.76486         7.39727        0.644642 
        5.78054         7.34576        0.640341 
        5.79626         7.29658        0.636069 
          5.812         7.23045        0.631831 
         5.8277         7.18985        0.627645 
        5.84339         7.14516        0.623497 
        5.85911          7.0999        0.619379 
        5.87484          7.0486        0.615299 
        5.89053         6.99721        0.611264 
        5.90623         6.96251        0.607264 
        5.92195          6.9218        0.603293 
        5.93767         6.87792        0.599361 
        5.95336         6.83288         0.59547 
        5.96905         6.76919        0.591615 
        5.98476         6.73093         0.58779 
        6.00048          6.6933        0.583997 
        6.01617         6.64439        0.580243 
        6.03185         6.61101        0.576527 
        6.04756         6.57613        0.572836 
        6.06331          6.5206        0.569168 
        6.07903         6.46232        0.565541 
        6.09473         6.43273         0.56195 
        6.11044         6.40396        0.558386 
        6.12616         6.33591        0.554855 
        6.14186         6.30284        0.551357 
        6.15755         6.26542         0.54789 
        6.17326         6.23953        0.544451 
        6.18898         6.18958         0.54104 
        6.20467         6.15984        0.537665 
        6.22036         6.09944        0.534318 
         6.2361         6.07294        0.530992 
         6.2518         6.03274          0.5277 
        6.26748         6.00081        0.524443 
        6.28319         5.95788        0.521204 
        6.29893         5.92325        0.517991 
        6.31463          5.8743         0.51481 
        6.33033          5.8476        0.511658 
        6.34604         5.81151         0.50853 
        6.36177         5.76869        0.505425 
        6.37747         5.73829        0.502352 
