# k  (h/Mpc)    Pcb(k)  (Mpc/h)^3    Pcb_linear(k) (Mpc/h)^3   ShotnoiseSubtracted = true
      0.0200456         8494.66          8629.1 
      0.0350414         6701.31         6560.07 
      0.0492313         4854.17         4893.83 
      0.0637834         4028.86         4171.05 
      0.0800726         3245.38         3384.86 
       0.096163         2547.61         2488.45 
       0.111083         2090.03         2005.81 
       0.126058         1769.75         1801.91 
       0.142273         1535.12         1547.14 
       0.158546         1267.03         1231.61 
        0.17375         1109.62         1043.81 
       0.188953         1025.56          953.59 
       0.204907         881.218         852.055 
       0.220756         791.451         725.306 
        0.23588         703.767         633.587 
         0.2514         634.171         579.141 
       0.267535         614.203         527.914 
       0.283568         538.111         468.125 
       0.299022         511.567         418.653 
       0.314451         510.468         384.292 
       0.330372         441.647         354.516 
       0.346141         410.984          323.29 
       0.361624         392.054         294.892 
       0.377134          363.48         272.303 
       0.392932         355.339         253.012 
       0.408854         337.249         234.194 
       0.424564          324.91         216.596 
       0.440253         293.849         201.444 
       0.455999         280.781         188.317 
       0.471626         278.239         176.225 
        0.48727         266.521         164.803 
       0.502856         244.116         154.504 
       0.518488         244.024         145.315 
       0.534347         227.471         136.759 
       0.550082          222.74         128.838 
       0.565732         220.206         121.555 
       0.581496         205.815         114.873 
       0.597222         201.477         108.735 
       0.612804         196.111         103.073 
       0.628434         189.705         97.7804 
       0.644267         181.206          92.814 
       0.660051         176.595         88.2314 
       0.675724         175.327          83.992 
       0.691403         170.704           80.03 
       0.707174         165.367         76.3034 
       0.722871          162.74         72.8313 
        0.73838         160.322         69.6145 
       0.754018         150.818         66.5696 
       0.769845         150.547         63.6755 
        0.78569         146.798         60.9528 
       0.801365         142.769         58.4184 
       0.817031         138.546         56.0319 
       0.832809         136.391         53.7659 
       0.848511         133.411         51.6376 
       0.864097          131.36         49.6411 
       0.879701         129.407         47.7501 
       0.895507         125.171         45.9369 
       0.911279         123.193         44.2232 
        0.92691         120.082         42.6127 
       0.942635         117.978         41.0747 
       0.958396          116.65         39.6106 
       0.974128         114.213         38.2217 
       0.989692         112.133         36.9142 
        1.00528         110.287         35.6669 
        1.02113         107.489         34.4585 
        1.03692         107.344         33.3114 
        1.05264         105.863         32.2226 
        1.06832         102.364         31.1849 
        1.08405         101.882         30.1909 
        1.09979         100.965         29.2403 
        1.11537           98.42         28.3406 
        1.13105         97.0347          27.474 
        1.14679         95.4681         26.6408 
        1.16256         93.6694         25.8411 
        1.17828         92.7885         25.0773 
        1.19395         90.3465         24.3475 
         1.2097          90.599         23.6434 
        1.22537         88.4827         22.9709 
          1.241         88.0031         22.3271 
        1.25666         85.2568         21.7066 
        1.27241         85.0185         21.1072 
        1.28819         84.2436         20.5298 
        1.30392         82.5594         19.9759 
        1.31957         82.0887         19.4452 
        1.33529           80.92         18.9322 
        1.35108         80.0588         18.4359 
        1.36674         79.0477         17.9612 
         1.3824         77.8599         17.5038 
        1.39811            76.5         17.0612 
        1.41389          75.383         16.6323 
        1.42964           74.79         16.2191 
        1.44531         73.8211         15.8222 
        1.46101         73.1534         15.4379 
        1.47667         72.1191         15.0677 
        1.49229         71.3268         14.7107 
        1.50793         70.4909         14.3651 
        1.52367         69.8817         14.0286 
        1.53953         68.6708         13.7007 
        1.55526         67.8726          13.386 
        1.57092          67.486         13.0827 
        1.58662          66.513         12.7882 
        1.60235         65.6402         12.5022 
        1.61809         64.7249          12.225 
        1.63369         64.0082         11.9588 
        1.64941          63.543         11.6987 
        1.66519         62.2935         11.4455 
        1.68085         62.0727         11.2018 
        1.69652         60.5987         10.9651 
        1.71228         60.6847          10.734 
        1.72806         59.6432         10.5095 
        1.74368         58.9927         10.2937 
        1.75933          58.583         10.0836 
        1.77505         58.1057         9.87854 
        1.79081         57.2076         9.67886 
         1.8065         56.5362         9.48561 
        1.82218         55.2697         9.29789 
        1.83797         54.9812         9.11402 
        1.85367         54.6231          8.9362 
        1.86928         54.3118         8.76425 
        1.88497         53.1517         8.59595 
        1.90073         52.5984          8.4315 
        1.91647         52.3484         8.27156 
        1.93218         52.2619         8.11615 
        1.94787         51.2861         7.96502 
        1.96363         50.3654         7.81719 
        1.97935         50.1609         7.67345 
        1.99499         49.5417         7.53419 
        2.01064         49.0116         7.39823 
         2.0264         48.6443         7.26481 
        2.04216         48.0491         7.13478 
        2.05781         47.4177          7.0088 
        2.07353         46.8666         6.88545 
        2.08928           46.79         6.76483 
        2.10499         46.2958         6.64746 
        2.12065          45.693         6.53326 
        2.13633         45.4067         6.42168 
        2.15211         44.6129         6.31201 
        2.16785         44.0866         6.20525 
        2.18349         43.6803         6.10165 
        2.19916         43.2773         6.00023 
        2.21489         42.9119          5.9008 
        2.23063         42.5523         5.80359 
         2.2463         42.2415         5.70903 
        2.26194         41.4894         5.61684 
        2.27765         41.1252         5.52623 
        2.29341         40.8334         5.43741 
        2.30914         40.4089         5.35075 
        2.32486         39.7798         5.26605 
        2.34061         39.6228         5.18307 
        2.35635         39.2367         5.10196 
        2.37203         38.8947          5.0229 
        2.38768          38.546         4.94569 
        2.40339         38.3119         4.86984 
        2.41914         37.8001         4.79543 
        2.43483          37.545         4.72285 
         2.4505         37.0622         4.65191 
        2.46622         36.6881         4.58221 
        2.48195         36.3834         4.51394 
        2.49759         35.8473         4.44745 
        2.51328         35.6454         4.38213 
        2.52906         35.4247         4.31773 
        2.54479         35.0149         4.25488 
        2.56049         34.8514         4.19342 
        2.57618         34.3405         4.13324 
        2.59189          33.956         4.07416 
        2.60758         33.7834         4.01634 
        2.62325         33.3269         3.95973 
        2.63898         33.2424         3.90402 
        2.65468         32.7836         3.84952 
        2.67044         32.4855         3.79583 
        2.68618         32.1541          3.7433 
        2.70184         31.7762         3.69199 
        2.71755         31.6475         3.64152 
        2.73329         31.1924         3.59193 
        2.74897         30.9717         3.54343 
        2.76462         30.7552         3.49595 
        2.78034         30.3226         3.44915 
        2.79607          30.096         3.40317 
        2.81179         29.8768         3.35809 
        2.82749         29.6159         3.31388 
        2.84321         29.3862         3.27043 
        2.85893          29.043         3.22778 
        2.87462         28.8079         3.18597 
        2.89033         28.5931         3.14487 
        2.90605         28.1774         3.10447 
        2.92176         27.9381         3.06481 
        2.93747         27.7522         3.02587 
        2.95318          27.606          2.9876 
        2.96891         27.2854         2.94999 
        2.98456          27.017         2.91319 
        3.00023         26.6976         2.87698 
        3.01596         26.4125         2.84128 
        3.03164         26.2273         2.80629 
        3.04738         26.0535          2.7718 
         3.0631         25.8208          2.7379 
        3.07883         25.5299         2.70457 
        3.09456         25.2983         2.67181 
        3.11026         25.0128         2.63965 
        3.12596         24.7715         2.60803 
        3.14163         24.5254           2.577 
        3.15734         24.3818         2.54642 
        3.17308         24.2067         2.51626 
        3.18879         23.9604         2.48667 
        3.20447         23.7524         2.45761 
         3.2202         23.4692         2.42893 
         3.2359         23.3221         2.40076 
        3.25157         23.0948         2.37312 
        3.26729         22.9118         2.34582 
        3.28304         22.7524         2.31891 
        3.29877         22.5209         2.29246 
        3.31446         22.2908         2.26649 
        3.33014         22.0866         2.24094 
        3.34585         22.0121         2.21575 
        3.36158         21.7155         2.19092 
        3.37727         21.5371         2.16655 
        3.39294         21.3659         2.14258 
        3.40867         21.2051         2.11888 
        3.42439         20.9583         2.09556 
        3.44008         20.7837         2.07264 
        3.45578         20.5972         2.05006 
        3.47153         20.4557         2.02776 
        3.48724         20.2595         2.00583 
        3.50292         20.1517         1.98429 
        3.51859          19.897         1.96307 
        3.53431         19.7361          1.9421 
        3.55007         19.5348         1.92139 
        3.56577         19.4363         1.90107 
        3.58146          19.246         1.88105 
        3.59719         19.0857         1.86128 
        3.61292         18.9215          1.8418 
        3.62859         18.7241         1.82268 
        3.64429         18.5871         1.80379 
        3.66003         18.4439         1.78512 
        3.67578         18.3334         1.76672 
        3.69146         18.1365         1.74865 
        3.70712         17.9585         1.73087 
        3.72284         17.7702         1.71327 
        3.73853         17.7142         1.69596 
        3.75422         17.4666         1.67887 
        3.76993         17.3276         1.66201 
        3.78564         17.2374          1.6454 
        3.80137         17.0896         1.62898 
        3.81707         16.8691         1.61282 
        3.83279         16.8315         1.59688 
        3.84853         16.6466         1.58112 
        3.86424         16.4774         1.56561 
        3.87992         16.3526         1.55033 
        3.89561         16.2447         1.53526 
        3.91134         16.1209         1.52036 
        3.92704         15.9579         1.50568 
        3.94273         15.8542         1.49121 
        3.95845         15.7252          1.4769 
        3.97418         15.5241         1.46278 
        3.98988         15.4592         1.44887 
        4.00554         15.3226         1.43517 
        4.02125          15.178         1.42162 
        4.03698         15.0841         1.40822 
        4.05268         14.9459         1.39503 
        4.06839         14.7805         1.38199 
         4.0841         14.6928         1.36913 
        4.09983         14.5654         1.35642 
        4.11555         14.4516         1.34388 
        4.13124         14.2948         1.33153 
        4.14693         14.2251         1.31932 
        4.16266         14.1059         1.30724 
        4.17839         13.9965         1.29533 
        4.19408         13.8973         1.28359 
        4.20977         13.7586         1.27199 
        4.22551         13.6797         1.26051 
        4.24123         13.5611         1.24918 
        4.25691         13.4395         1.23802 
        4.27259         13.3312           1.227 
        4.28831         13.2364         1.21609 
        4.30404         13.1538         1.20531 
        4.31974         12.9987         1.19468 
        4.33543         12.8934         1.18419 
        4.35116         12.8336          1.1738 
        4.36688         12.6886         1.16354 
        4.38255         12.6027         1.15344 
        4.39825         12.4975         1.14344 
        4.41398         12.4011         1.13354 
         4.4297         12.3155         1.12377 
        4.44541         12.2426         1.11411 
        4.46111         12.1077         1.10458 
        4.47683         12.0098         1.09516 
        4.49251         11.9393         1.08586 
        4.50819         11.8396         1.07668 
         4.5239         11.7866         1.06759 
        4.53962         11.6454         1.05859 
        4.55535         11.5978          1.0497 
        4.57106         11.4661         1.04092 
        4.58678           11.41         1.03224 
         4.6025         11.3118         1.02366 
        4.61821         11.2272         1.01518 
        4.63391         11.1318         1.00681 
         4.6496         11.0506        0.998532 
        4.66532         10.9702        0.990339 
        4.68103          10.859        0.982243 
        4.69673         10.7979        0.974245 
        4.71241         10.6953        0.966345 
        4.72811         10.6193        0.958521 
        4.74384         10.5609        0.950774 
        4.75955         10.4786        0.943125 
        4.77525         10.4069        0.935566 
        4.79096         10.3126        0.928081 
        4.80669         10.2388        0.920675 
         4.8224         10.1417         0.91336 
        4.83809         10.0999        0.906132 
        4.85379         10.0183        0.898979 
         4.8695         9.93667        0.891898 
        4.88521          9.8611        0.884897 
        4.90093         9.79281        0.877971 
        4.91663         9.72909        0.871126 
        4.93234         9.64149        0.864347 
        4.94807         9.58006        0.857637 
        4.96377         9.51915        0.851011 
        4.97943         9.42151         0.84447 
        4.99514         9.36611        0.837981 
        5.01086         9.29166        0.831557 
        5.02654         9.21859        0.825217 
        5.04227         9.13886        0.818924 
          5.058         9.07153        0.812696 
        5.07371         9.02965        0.806545 
        5.08942         8.95582        0.800457 
        5.10513         8.89197        0.794432 
        5.12084          8.8056        0.788467 
        5.13656         8.75963        0.782564 
        5.15225         8.67275        0.776733 
        5.16796          8.6628        0.770952 
        5.18369         8.58102        0.765226 
         5.1994         8.52736        0.759569 
        5.21509         8.44986        0.753974 
        5.23079         8.38272         0.74843 
        5.24649         8.33668        0.742947 
        5.26217         8.29212        0.737522 
        5.27788         8.20424        0.732145 
        5.29359          8.1609        0.726821 
        5.30933         8.08307        0.721543 
        5.32504         8.04084        0.716326 
        5.34073         7.97979        0.711168 
        5.35646         7.93048         0.70605 
        5.37218         7.88805        0.700982 
        5.38789         7.81368        0.695973 
        5.40357         7.74895        0.691019 
        5.41929         7.72275        0.686102 
        5.43502         7.66713        0.681233 
         5.4507         7.60255        0.676424 
        5.46639         7.52339         0.67166 
        5.48212         7.49695        0.666932 
        5.49786         7.44824        0.662245 
        5.51353         7.40263        0.657626 
        5.52921         7.33596        0.653046 
        5.54495         7.29385        0.648498 
        5.56066         7.23564        0.643998 
        5.57637         7.20796        0.639542 
        5.59207         7.14537        0.635132 
        5.60778         7.10608        0.630763 
        5.62346         7.05879        0.626441 
        5.63916         7.00959        0.622156 
        5.65487         6.95072        0.617909 
         5.6706         6.91218        0.613698 
        5.68633         6.86191        0.609524 
        5.70203         6.81935        0.605398 
        5.71773         6.77048        0.601312 
        5.73344         6.71054        0.597261 
        5.74916         6.68279        0.593245 
        5.76486         6.65386        0.589271 
        5.78054         6.58781         0.58534 
        5.79626         6.54681        0.581434 
          5.812         6.50401         0.57756 
         5.8277         6.45737        0.573734 
        5.84339         6.41572        0.569942 
        5.85911         6.38036        0.566178 
        5.87484         6.32398        0.562448 
        5.89053         6.28716         0.55876 
        5.90623         6.25094        0.555104 
        5.92195         6.21528        0.551474 
        5.93767         6.15643        0.547879 
        5.95336          6.1335        0.544322 
        5.96905         6.08607        0.540799 
        5.98476         6.05126        0.537302 
        6.00048         6.01048        0.533835 
        6.01617         5.96503        0.530404 
        6.03185         5.93025        0.527007 
        6.04756         5.89283        0.523632 
        6.06331          5.8633         0.52028 
        6.07903         5.80656        0.516965 
        6.09473         5.78055        0.513681 
        6.11044         5.73112        0.510424 
        6.12616         5.69368        0.507196 
        6.14186         5.66894        0.503999 
        6.15755         5.63333         0.50083 
        6.17326         5.60065        0.497686 
        6.18898         5.56328        0.494568 
        6.20467         5.51639        0.491482 
        6.22036         5.48207        0.488424 
         6.2361         5.45423        0.485383 
         6.2518          5.4203        0.482373 
        6.26748         5.38472        0.479396 
        6.28319         5.35469        0.476436 
        6.29893         5.31843        0.473499 
        6.31463         5.28864        0.470591 
        6.33033          5.2567         0.46771 
        6.34604         5.21787         0.46485 
        6.36177         5.19034        0.462012 
        6.37747         5.16575        0.459203 
