# k  (h/Mpc)    Pcb(k)  (Mpc/h)^3    Pcb_linear(k) (Mpc/h)^3   ShotnoiseSubtracted = true
      0.0200456         596.667           605.9 
      0.0350414         458.621         460.621 
      0.0492313         344.772         343.625 
      0.0637834         294.424         292.874 
      0.0800726         238.513         237.671 
       0.096163         174.464         174.729 
       0.111083         140.075         140.839 
       0.126058          126.76         126.522 
       0.142273         109.128         108.634 
       0.158546         87.3162         86.4786 
        0.17375         73.1279         73.2922 
       0.188953         67.2797         66.9572 
       0.204907         61.3712         59.8278 
       0.220756          51.713          50.928 
        0.23588         45.2017         44.4879 
         0.2514         40.9404         40.6649 
       0.267535         37.4617          37.068 
       0.283568         33.4214         32.8698 
       0.299022         30.1062         29.3961 
       0.314451         27.1664         26.9834 
       0.330372         25.2646         24.8927 
       0.346141         23.0641         22.7001 
       0.361624         21.1988         20.7061 
       0.377134         19.7575           19.12 
       0.392932         17.7809         17.7655 
       0.408854         16.9546         16.4442 
       0.424564         15.6594         15.2085 
       0.440253         14.5317         14.1446 
       0.455999         13.7163         13.2229 
       0.471626         12.9036         12.3738 
        0.48727         12.0323         11.5718 
       0.502856          11.239         10.8486 
       0.518488          10.746         10.2035 
       0.534347         10.2302         9.60266 
       0.550082         9.40967         9.04647 
       0.565732         8.72273         8.53512 
       0.581496         8.50196         8.06594 
       0.597222         8.12162         7.63492 
       0.612804         7.60298         7.23735 
       0.628434         7.32524         6.86574 
       0.644267         6.95815         6.51702 
       0.660051         6.58054         6.19525 
       0.675724           6.277         5.89757 
       0.691403         6.04975         5.61938 
       0.707174         5.73449         5.35772 
       0.722871          5.4832         5.11391 
        0.73838         5.28514         4.88804 
       0.754018         5.10613         4.67424 
       0.769845         4.84448         4.47103 
        0.78569         4.67315         4.27986 
       0.801365         4.47021          4.1019 
       0.817031         4.32005         3.93433 
       0.832809         4.15444         3.77522 
       0.848511         3.94546         3.62578 
       0.864097         3.79361          3.4856 
       0.879701         3.66373         3.35282 
       0.895507         3.53176          3.2255 
       0.911279         3.45694         3.10518 
        0.92691         3.32403         2.99209 
       0.942635         3.18735          2.8841 
       0.958396         3.06975         2.78129 
       0.974128         2.98106         2.68377 
       0.989692         2.91224         2.59196 
        1.00528         2.79174         2.50438 
        1.02113         2.68558         2.41953 
        1.03692         2.63901         2.33899 
        1.05264         2.54281         2.26254 
        1.06832         2.47823         2.18968 
        1.08405         2.36062         2.11988 
        1.09979         2.30976         2.05313 
        1.11537         2.25283         1.98996 
        1.13105         2.19633         1.92911 
        1.14679         2.13907         1.87061 
        1.16256         2.05947         1.81446 
        1.17828         2.01147         1.76083 
        1.19395         1.95444         1.70958 
         1.2097         1.87351         1.66014 
        1.22537         1.84005         1.61293 
          1.241         1.79729         1.56772 
        1.25666         1.77794         1.52415 
        1.27241         1.69673         1.48206 
        1.28819         1.65602         1.44152 
        1.30392         1.62896         1.40263 
        1.31957         1.58776         1.36537 
        1.33529          1.5415         1.32934 
        1.35108         1.50475         1.29449 
        1.36674         1.45345         1.26116 
         1.3824         1.43068         1.22905 
        1.39811         1.39295         1.19796 
        1.41389         1.36725         1.16785 
        1.42964         1.33774         1.13884 
        1.44531         1.30155         1.11097 
        1.46101         1.28056         1.08398 
        1.47667         1.23055         1.05799 
        1.49229         1.22111         1.03293 
        1.50793         1.18726         1.00866 
        1.52367         1.16711        0.985029 
        1.53953          1.1312        0.962005 
        1.55526         1.11106        0.939912 
        1.57092         1.08589        0.918613 
        1.58662         1.06788        0.897932 
        1.60235         1.04452        0.877856 
        1.61809         1.01621        0.858393 
        1.63369         1.01002          0.8397 
        1.64941        0.979463        0.821438 
        1.66519        0.962082         0.80366 
        1.68085        0.933699        0.786541 
        1.69652         0.91926        0.769923 
        1.71228        0.906817        0.753697 
        1.72806        0.880642        0.737932 
        1.74368        0.871984        0.722782 
        1.75933        0.849458        0.708033 
        1.77505        0.835433        0.693631 
        1.79081        0.819497         0.67961 
         1.8065        0.797848        0.666041 
        1.82218         0.78987         0.65286 
        1.83797        0.774347        0.639949 
        1.85367        0.766334        0.627463 
        1.86928        0.749585         0.61539 
        1.88497        0.732907        0.603573 
        1.90073        0.717953        0.592026 
        1.91647        0.711563        0.580795 
        1.93218        0.693943        0.569883 
        1.94787        0.683396        0.559271 
        1.96363        0.670003        0.548891 
        1.97935        0.656865        0.538799 
        1.99499        0.647252         0.52902 
        2.01064         0.63554        0.519473 
         2.0264        0.623817        0.510105 
        2.04216         0.61786        0.500975 
        2.05781        0.605461        0.492129 
        2.07353        0.593592        0.483468 
        2.08928        0.581362        0.474999 
        2.10499        0.575089        0.466757 
        2.12065        0.570243        0.458739 
        2.13633        0.558525        0.450904 
        2.15211        0.547926        0.443204 
        2.16785        0.538613        0.435707 
        2.18349        0.529015        0.428433 
        2.19916        0.523333        0.421311 
        2.21489        0.513299         0.41433 
        2.23063        0.506957        0.407504 
         2.2463        0.500214        0.400865 
        2.26194        0.486499        0.394391 
        2.27765        0.481975        0.388029 
        2.29341        0.477116        0.381793 
        2.30914        0.471469        0.375708 
        2.32486        0.461301        0.369761 
        2.34061        0.454382        0.363934 
        2.35635        0.446715        0.358239 
        2.37203        0.440828        0.352687 
        2.38768        0.434557        0.347266 
        2.40339        0.429331         0.34194 
        2.41914        0.423128        0.336715 
        2.43483        0.416614        0.331619 
         2.4505        0.409459        0.326638 
        2.46622        0.404009        0.321744 
        2.48195        0.400314        0.316951 
        2.49759        0.394606        0.312282 
        2.51328        0.387751        0.307696 
        2.52906        0.383837        0.303174 
        2.54479         0.37677        0.298761 
        2.56049        0.370604        0.294445 
        2.57618        0.366538        0.290219 
        2.59189        0.363232        0.286071 
        2.60758        0.358364        0.282011 
        2.62325        0.351878        0.278036 
        2.63898        0.348696        0.274124 
        2.65468        0.342753        0.270297 
        2.67044         0.33864        0.266528 
        2.68618         0.33433        0.262839 
        2.70184        0.330351        0.259236 
        2.71755        0.324963        0.255693 
        2.73329         0.32144        0.252211 
        2.74897        0.317795        0.248805 
        2.76462        0.313872        0.245471 
        2.78034        0.309185        0.242185 
        2.79607        0.305691        0.238957 
        2.81179        0.302351        0.235791 
        2.82749        0.298357        0.232687 
        2.84321        0.295066        0.229636 
        2.85893          0.2913        0.226641 
        2.87462        0.287492        0.223706 
        2.89033        0.283781         0.22082 
        2.90605        0.280877        0.217983 
        2.92176        0.277531        0.215198 
        2.93747        0.273391        0.212464 
        2.95318        0.271304        0.209777 
        2.96891        0.267692        0.207136 
        2.98456        0.264398        0.204553 
        3.00023        0.262165         0.20201 
        3.01596        0.258858        0.199503 
        3.03164        0.256064        0.197046 
        3.04738        0.251856        0.194624 
         3.0631        0.250681        0.192244 
        3.07883        0.246744        0.189904 
        3.09456        0.243876        0.187604 
        3.11026        0.242304        0.185346 
        3.12596        0.238555        0.183125 
        3.14163        0.236548        0.180947 
        3.15734        0.234803        0.178799 
        3.17308        0.232167        0.176681 
        3.18879        0.229757        0.174604 
        3.20447         0.22561        0.172564 
         3.2202        0.225054         0.17055 
         3.2359         0.22199        0.168572 
        3.25157        0.220074        0.166631 
        3.26729        0.217297        0.164714 
        3.28304        0.216018        0.162825 
        3.29877        0.213304        0.160967 
        3.31446        0.211352        0.159143 
        3.33014         0.20993         0.15735 
        3.34585        0.208351        0.155581 
        3.36158        0.205696        0.153838 
        3.37727         0.20441        0.152126 
        3.39294        0.201544        0.150443 
        3.40867        0.199614        0.148779 
        3.42439        0.198208        0.147142 
        3.44008        0.195852        0.145533 
        3.45578         0.19503        0.143947 
        3.47153        0.193031        0.142381 
        3.48724        0.191311        0.140841 
        3.50292        0.189547        0.139328 
        3.51859        0.187238        0.137839 
        3.53431         0.18562        0.136366 
        3.55007        0.184668        0.134912 
        3.56577        0.182502        0.133485 
        3.58146        0.181023         0.13208 
        3.59719        0.180187        0.130691 
        3.61292        0.178772        0.129324 
        3.62859        0.176871        0.127981 
        3.64429        0.174791        0.126655 
        3.66003        0.173774        0.125344 
        3.67578        0.172445        0.124052 
        3.69146         0.17095        0.122783 
        3.70712        0.169978        0.121535 
        3.72284         0.16842        0.120299 
        3.73853        0.167302        0.119083 
        3.75422        0.166052        0.117884 
        3.76993        0.164489          0.1167 
        3.78564        0.163005        0.115533 
        3.80137        0.161616         0.11438 
        3.81707        0.160517        0.113246 
        3.83279        0.159409        0.112126 
        3.84853        0.157795         0.11102 
        3.86424        0.156705        0.109931 
        3.87992        0.155447        0.108858 
        3.89561        0.154252          0.1078 
        3.91134        0.153271        0.106754 
        3.92704        0.151708        0.105723 
        3.94273        0.150335        0.104706 
        3.95845        0.149312        0.103702 
        3.97418        0.148645         0.10271 
        3.98988        0.146606        0.101733 
        4.00554        0.146185        0.100772 
        4.02125        0.144345       0.0998202 
        4.03698        0.142485       0.0988794 
        4.05268        0.140904        0.097953 
        4.06839        0.139188       0.0970379 
         4.0841        0.137443       0.0961349 
        4.09983        0.136035       0.0952423 
        4.11555        0.134127       0.0943614 
        4.13124         0.13241       0.0934943 
        4.14693        0.131338       0.0926373 
        4.16266         0.12956       0.0917893 
        4.17839        0.128428       0.0909525 
        4.19408        0.126979       0.0901281 
        4.20977        0.125753       0.0893137 
        4.22551        0.124483       0.0885075 
        4.24123         0.12302       0.0877122 
        4.25691        0.121835        0.086929 
        4.27259        0.120801       0.0861551 
        4.28831        0.119276       0.0853892 
        4.30404        0.118606        0.084632 
        4.31974        0.117973       0.0838857 
        4.33543        0.116636       0.0831489 
        4.35116        0.115583       0.0824193 
        4.36688        0.114558       0.0816988 
        4.38255        0.113649       0.0809897 
        4.39825        0.113099       0.0802876 
        4.41398        0.112313       0.0795924 
         4.4297        0.111558       0.0789063 
        4.44541         0.11095       0.0782286 
        4.46111        0.110089       0.0775593 
        4.47683        0.109481       0.0768975 
        4.49251        0.108736       0.0762449 
        4.50819        0.108139          0.0756 
         4.5239        0.107482       0.0749618 
        4.53962         0.10719       0.0743302 
        4.55535        0.106766       0.0737056 
        4.57106        0.106251       0.0730893 
        4.58678        0.105478       0.0724798 
         4.6025        0.105438       0.0718773 
        4.61821        0.105195       0.0712818 
        4.63391        0.104936       0.0706939 
         4.6496        0.104536       0.0701129 
        4.66532        0.104393       0.0695376 
        4.68103        0.104021       0.0689691 
        4.69673        0.103782       0.0684075 
        4.71241        0.103746       0.0678528 
        4.72811         0.10355       0.0673034 
        4.74384        0.103354       0.0667595 
        4.75955        0.103633       0.0662224 
        4.77525        0.103789       0.0656916 
        4.79096        0.103456       0.0651661 
        4.80669        0.103297       0.0646461 
         4.8224        0.103829       0.0641324 
        4.83809        0.103708       0.0636249 
        4.85379        0.103524       0.0631226 
         4.8695        0.103864       0.0626254 
        4.88521        0.104248       0.0621338 
        4.90093        0.104197       0.0616475 
        4.91663        0.104574       0.0611669 
        4.93234        0.104451       0.0606909 
        4.94807        0.105237       0.0602198 
        4.96377        0.105463       0.0597545 
        4.97943        0.106283       0.0592952 
        4.99514        0.106318       0.0588396 
        5.01086        0.106881       0.0583885 
        5.02654        0.107239       0.0579433 
        5.04227        0.107749       0.0575015 
          5.058        0.108243       0.0570642 
        5.07371         0.10924       0.0566323 
        5.08942        0.109286       0.0562048 
        5.10513        0.110138       0.0557818 
        5.12084        0.110888       0.0553629 
        5.13656        0.111296       0.0549485 
        5.15225        0.112482        0.054539 
        5.16796        0.113145       0.0541331 
        5.18369        0.113921        0.053731 
         5.1994        0.115136       0.0533338 
        5.21509         0.11573        0.052941 
        5.23079        0.116469       0.0525517 
        5.24649        0.117893       0.0521667 
        5.26217        0.118804       0.0517858 
        5.27788        0.119739       0.0514083 
        5.29359        0.120691       0.0510344 
        5.30933        0.121764       0.0506638 
        5.32504        0.123013       0.0502975 
        5.34073        0.124192       0.0499353 
        5.35646        0.124774        0.049576 
        5.37218        0.127261       0.0492201 
        5.38789        0.127707       0.0488684 
        5.40357         0.12879       0.0485205 
        5.41929        0.130556       0.0481753 
        5.43502        0.132263       0.0478334 
         5.4507        0.133504       0.0474957 
        5.46639        0.134813       0.0471613 
        5.48212        0.136476       0.0468293 
        5.49786        0.138041       0.0465001 
        5.51353        0.139914       0.0461758 
        5.52921        0.140491       0.0458543 
        5.54495        0.143255       0.0455349 
        5.56066        0.144174       0.0452189 
        5.57637        0.146487        0.044906 
        5.59207        0.148521       0.0445964 
        5.60778        0.150902       0.0442896 
        5.62346        0.152494       0.0439861 
        5.63916        0.154427       0.0436853 
        5.65487        0.156121       0.0433871 
         5.6706        0.158444       0.0430914 
        5.68633        0.160105       0.0427983 
        5.70203        0.161615       0.0425086 
        5.71773        0.164702       0.0422217 
        5.73344        0.166478       0.0419373 
        5.74916        0.169299       0.0416552 
        5.76486        0.171522       0.0413762 
        5.78054        0.173463       0.0411002 
        5.79626        0.175415       0.0408259 
          5.812        0.178662       0.0405539 
         5.8277        0.181632       0.0402852 
        5.84339        0.183089        0.040019 
        5.85911        0.186413       0.0397547 
        5.87484        0.188551       0.0394928 
        5.89053        0.191748       0.0392338 
        5.90623        0.194268       0.0389771 
        5.92195        0.196605       0.0387222 
        5.93767        0.199252       0.0384698 
        5.95336        0.202749       0.0382201 
        5.96905        0.205388       0.0379727 
        5.98476        0.207394       0.0377271 
        6.00048        0.210971       0.0374837 
        6.01617        0.213095       0.0372428 
        6.03185        0.217127       0.0370043 
        6.04756        0.220311       0.0367673 
        6.06331        0.222902        0.036532 
        6.07903        0.226467       0.0362992 
        6.09473        0.229346       0.0360686 
        6.11044        0.232644       0.0358399 
        6.12616        0.234447       0.0356132 
        6.14186        0.239265       0.0353887 
        6.15755         0.24178       0.0351662 
        6.17326        0.246216       0.0349455 
        6.18898        0.248283       0.0347265 
        6.20467         0.25355       0.0345099 
        6.22036        0.256175       0.0342951 
         6.2361        0.257482       0.0340816 
         6.2518         0.26295       0.0338703 
        6.26748        0.265699       0.0336612 
        6.28319        0.269268       0.0334534 
        6.29893        0.273086       0.0332471 
        6.31463        0.277007        0.033043 
        6.33033        0.281138       0.0328407 
        6.34604        0.283504       0.0326399 
        6.36177           0.287       0.0324406 
        6.37747        0.292874       0.0322434 
