# k  (h/Mpc)    Pcb(k)  (Mpc/h)^3    Pcb_linear(k) (Mpc/h)^3   ShotnoiseSubtracted = true
      0.0200456         11551.8           11804 
      0.0350414         8673.94         8973.75 
      0.0492313         6609.25         6694.44 
      0.0637834         5783.94         5705.72 
      0.0800726         4665.68         4630.26 
       0.096163          3301.4         3404.04 
       0.111083         2648.25         2743.81 
       0.126058         2470.96         2464.89 
       0.142273          2152.4         2116.39 
       0.158546         1823.18         1684.76 
        0.17375         1471.13         1427.87 
       0.188953          1430.4         1304.45 
       0.204907         1353.92         1165.56 
       0.220756         1160.01         992.172 
        0.23588         1026.05         866.707 
         0.2514         899.821         792.227 
       0.267535         885.362         722.152 
       0.283568         806.764         640.365 
       0.299022          754.89         572.691 
       0.314451         714.773         525.686 
       0.330372         660.996         484.955 
       0.346141         607.177          442.24 
       0.361624         583.766         403.393 
       0.377134         544.854         372.493 
       0.392932         521.756         346.104 
       0.408854         502.705         320.363 
       0.424564         477.745         296.289 
       0.440253         464.434         275.562 
       0.455999         438.981         257.606 
       0.471626          411.35         241.064 
        0.48727          401.63          225.44 
       0.502856         389.216         211.351 
       0.518488         385.627         198.782 
       0.534347           362.2         187.078 
       0.550082         343.376         176.242 
       0.565732         341.428          166.28 
       0.581496         323.679         157.139 
       0.597222         317.584         148.742 
       0.612804          307.11         140.997 
       0.628434         296.598         133.757 
       0.644267         287.725         126.964 
       0.660051         283.693         120.695 
       0.675724         279.278         114.896 
       0.691403         271.508         109.476 
       0.707174         260.773         104.378 
       0.722871         258.716         99.6285 
        0.73838         253.998         95.2281 
       0.754018         247.115         91.0629 
       0.769845         239.561          87.104 
        0.78569         238.671         83.3796 
       0.801365         231.732         79.9125 
       0.817031         224.852         76.6481 
       0.832809         221.844         73.5483 
       0.848511         216.962         70.6369 
       0.864097         214.092         67.9059 
       0.879701         209.688         65.3191 
       0.895507         204.543         62.8388 
       0.911279         199.856         60.4945 
        0.92691         199.233         58.2914 
       0.942635         195.201         56.1875 
       0.958396         194.384         54.1847 
       0.974128          189.26         52.2848 
       0.989692         184.922         50.4962 
        1.00528         182.321           48.79 
        1.02113         181.559         47.1369 
        1.03692         175.242         45.5678 
        1.05264         172.923         44.0785 
        1.06832         169.923          42.659 
        1.08405         167.671         41.2992 
        1.09979         167.016         39.9988 
        1.11537         161.665         38.7681 
        1.13105         161.058         37.5827 
        1.14679         160.198         36.4429 
        1.16256         157.581          35.349 
        1.17828         154.125         34.3042 
        1.19395          152.53         33.3058 
         1.2097          150.46         32.3426 
        1.22537         148.953         31.4228 
          1.241         146.204          30.542 
        1.25666         143.944         29.6933 
        1.27241         142.002         28.8733 
        1.28819         140.373         28.0834 
        1.30392          139.06         27.3257 
        1.31957         137.247         26.5998 
        1.33529         134.295          25.898 
        1.35108          132.93         25.2191 
        1.36674         131.869         24.5697 
         1.3824         129.231         23.9441 
        1.39811         128.605         23.3386 
        1.41389         126.427         22.7519 
        1.42964         124.604         22.1867 
        1.44531           121.8         21.6437 
        1.46101         121.188          21.118 
        1.47667         119.886         20.6116 
        1.49229           118.2         20.1233 
        1.50793         117.156         19.6506 
        1.52367         115.966         19.1902 
        1.53953         113.913         18.7416 
        1.55526         112.698         18.3112 
        1.57092         111.727         17.8963 
        1.58662         109.759         17.4934 
        1.60235         109.205         17.1023 
        1.61809          107.39         16.7231 
        1.63369          106.27         16.3589 
        1.64941         105.321         16.0031 
        1.66519         103.352         15.6568 
        1.68085         102.444         15.3233 
        1.69652         100.236         14.9995 
        1.71228         100.315         14.6834 
        1.72806         98.6913         14.3763 
        1.74368         97.7724         14.0811 
        1.75933         96.4856         13.7938 
        1.77505         95.4942         13.5132 
        1.79081         94.0983         13.2401 
         1.8065         93.3797         12.9757 
        1.82218         91.5431         12.7189 
        1.83797         91.0651         12.4674 
        1.85367          89.899         12.2241 
        1.86928         89.6333         11.9889 
        1.88497         87.7868         11.7587 
        1.90073         86.8341         11.5338 
        1.91647         86.0469          11.315 
        1.93218         85.0664         11.1024 
        1.94787         84.0421         10.8956 
        1.96363         82.6859         10.6934 
        1.97935          82.406         10.4968 
        1.99499         81.1251         10.3063 
        2.01064         80.4452         10.1203 
         2.0264         78.9514         9.93779 
        2.04216         78.1121         9.75992 
        2.05781         77.4674         9.58758 
        2.07353         76.4061         9.41884 
        2.08928          75.356         9.25385 
        2.10499         75.0725         9.09329 
        2.12065          74.314         8.93708 
        2.13633         73.4425         8.78444 
        2.15211         72.8876         8.63443 
        2.16785         71.9114         8.48837 
        2.18349         71.3304         8.34666 
        2.19916         70.3879         8.20792 
        2.21489          69.989         8.07191 
        2.23063         69.1112         7.93893 
         2.2463         68.4699         7.80958 
        2.26194         67.3335         7.68347 
        2.27765         66.8037         7.55953 
        2.29341          66.248         7.43803 
        2.30914         65.1869         7.31948 
        2.32486         64.2942         7.20362 
        2.34061         63.8582          7.0901 
        2.35635         63.3766         6.97916 
        2.37203         62.2973           6.871 
        2.38768         61.9142         6.76538 
        2.40339         61.1173         6.66163 
        2.41914         60.9568         6.55984 
        2.43483         60.3485         6.46056 
         2.4505         59.6559         6.36352 
        2.46622         59.0304         6.26817 
        2.48195         58.3918         6.17478 
        2.49759         57.5752         6.08382 
        2.51328         57.0221         5.99448 
        2.52906         56.5474         5.90638 
        2.54479         56.0055         5.82041 
        2.56049         55.1808         5.73633 
        2.57618         54.7763           5.654 
        2.59189         54.1795         5.57319 
        2.60758         53.7799          5.4941 
        2.62325         53.1295         5.41665 
        2.63898         52.6846         5.34045 
        2.65468         51.9367         5.26589 
        2.67044         51.3427         5.19245 
        2.68618         51.0475         5.12059 
        2.70184         50.4772          5.0504 
        2.71755         50.2328         4.98136 
        2.73329          49.269         4.91353 
        2.74897         48.9349         4.84719 
        2.76462         48.2541         4.78223 
        2.78034         48.0476         4.71821 
        2.79607         47.4479         4.65531 
        2.81179          47.044         4.59364 
        2.82749         46.3452         4.53317 
        2.84321         46.1211         4.47373 
        2.85893         45.5659         4.41539 
        2.87462         45.0007          4.3582 
        2.89033         44.7174         4.30198 
        2.90605         44.1485         4.24672 
        2.92176         43.9177         4.19246 
        2.93747         43.4317         4.13919 
        2.95318         42.9628         4.08685 
        2.96891         42.3605         4.03539 
        2.98456         42.1041         3.98506 
        3.00023         41.5653         3.93553 
        3.01596         41.2849         3.88669 
        3.03164         40.9384         3.83882 
        3.04738         40.4988         3.79164 
         3.0631         40.0311         3.74527 
        3.07883         39.6748         3.69968 
        3.09456         39.3763         3.65487 
        3.11026         38.9251         3.61087 
        3.12596         38.5987         3.56762 
        3.14163         38.1607         3.52517 
        3.15734         37.9018         3.48333 
        3.17308         37.4465         3.44208 
        3.18879         37.0748         3.40161 
        3.20447         36.7529         3.36185 
         3.2202         36.3933         3.32262 
         3.2359         36.0548         3.28409 
        3.25157         35.8098         3.24627 
        3.26729         35.5156         3.20894 
        3.28304         35.1325         3.17212 
        3.29877         34.6273         3.13594 
        3.31446         34.4685         3.10041 
        3.33014           34.17         3.06546 
        3.34585         33.8913         3.03101 
        3.36158         33.3989         2.99704 
        3.37727         33.1375          2.9637 
        3.39294         32.9132         2.93091 
        3.40867         32.6089         2.89849 
        3.42439         32.1624          2.8666 
        3.44008         32.0017         2.83524 
        3.45578         31.7136         2.80434 
        3.47153         31.3696         2.77384 
        3.48724         30.9913         2.74385 
        3.50292         30.8573         2.71438 
        3.51859         30.4698         2.68535 
        3.53431         30.3314         2.65667 
        3.55007          30.046         2.62834 
        3.56577         29.6958         2.60054 
        3.58146         29.6038         2.57316 
        3.59719         29.2341         2.54611 
        3.61292         28.9293         2.51946 
        3.62859         28.6885          2.4933 
        3.64429          28.409         2.46747 
        3.66003         28.2358         2.44193 
        3.67578         27.9254         2.41676 
        3.69146         27.6479         2.39204 
        3.70712         27.3503         2.36772 
        3.72284         27.2304         2.34365 
        3.73853         26.9073         2.31996 
        3.75422         26.6675         2.29659 
        3.76993         26.5425         2.27353 
        3.78564         26.2398         2.25079 
        3.80137         26.0293         2.22834 
        3.81707         25.7467         2.20624 
        3.83279         25.5272         2.18442 
        3.84853         25.2706         2.16287 
        3.86424         25.1063         2.14165 
        3.87992          24.888         2.12076 
        3.89561         24.6755         2.10014 
        3.91134         24.4779         2.07976 
        3.92704         24.2555         2.05967 
        3.94273         24.0306         2.03988 
        3.95845          23.788          2.0203 
        3.97418         23.6016         2.00099 
        3.98988          23.376         1.98195 
        4.00554         23.2062         1.96322 
        4.02125         23.0153         1.94468 
        4.03698         22.7804         1.92635 
        4.05268         22.6181         1.90831 
        4.06839         22.4098         1.89048 
         4.0841         22.2725         1.87289 
        4.09983         22.0134          1.8555 
        4.11555         21.8458         1.83833 
        4.13124         21.6832         1.82144 
        4.14693         21.4645         1.80475 
        4.16266         21.2898         1.78823 
        4.17839          21.112         1.77192 
        4.19408          20.943         1.75586 
        4.20977         20.7546            1.74 
        4.22551         20.6305         1.72429 
        4.24123         20.4667          1.7088 
        4.25691         20.2954         1.69354 
        4.27259         20.1092         1.67846 
        4.28831         19.8593         1.66354 
        4.30404         19.7686         1.64879 
        4.31974         19.5742         1.63425 
        4.33543         19.4178         1.61989 
        4.35116         19.2754         1.60568 
        4.36688         19.1665         1.59164 
        4.38255         19.0007         1.57783 
        4.39825         18.8741         1.56415 
        4.41398         18.7033         1.55061 
         4.4297         18.5044         1.53724 
        4.44541         18.3897         1.52404 
        4.46111         18.2357           1.511 
        4.47683         18.1082         1.49811 
        4.49251         17.9673         1.48539 
        4.50819         17.8065         1.47283 
         4.5239         17.6864         1.46039 
        4.53962          17.485         1.44809 
        4.55535         17.3837         1.43592 
        4.57106         17.2508         1.42391 
        4.58678         17.0949         1.41204 
         4.6025         16.9731          1.4003 
        4.61821         16.8516          1.3887 
        4.63391         16.6923         1.37725 
         4.6496         16.5413         1.36593 
        4.66532         16.4036         1.35472 
        4.68103          16.304         1.34364 
        4.69673         16.2086          1.3327 
        4.71241         16.0831          1.3219 
        4.72811         15.9378         1.31119 
        4.74384         15.8297          1.3006 
        4.75955         15.6894         1.29013 
        4.77525         15.5532         1.27979 
        4.79096         15.4734         1.26956 
        4.80669         15.3509         1.25942 
         4.8224         15.1885         1.24942 
        4.83809         15.1141         1.23953 
        4.85379         14.9572         1.22974 
         4.8695         14.8693         1.22006 
        4.88521         14.7554         1.21048 
        4.90093         14.6491         1.20101 
        4.91663         14.5628         1.19164 
        4.93234          14.426         1.18237 
        4.94807         14.2862         1.17319 
        4.96377         14.1882         1.16413 
        4.97943          14.102         1.15518 
        4.99514         13.9999          1.1463 
        5.01086         13.8665         1.13752 
        5.02654         13.7871         1.12884 
        5.04227         13.7023         1.12024 
          5.058         13.5515         1.11172 
        5.07371         13.4868          1.1033 
        5.08942         13.3667         1.09497 
        5.10513         13.2977         1.08673 
        5.12084         13.1747         1.07857 
        5.13656         13.1286          1.0705 
        5.15225         13.0022         1.06252 
        5.16796         12.8785         1.05461 
        5.18369         12.7987         1.04678 
         5.1994         12.6867         1.03904 
        5.21509         12.6057         1.03139 
        5.23079         12.5341          1.0238 
        5.24649         12.4323          1.0163 
        5.26217          12.346         1.00888 
        5.27788         12.2553         1.00153 
        5.29359          12.176        0.994245 
        5.30933         12.0707        0.987024 
        5.32504         12.0015        0.979888 
        5.34073         11.9172        0.972832 
        5.35646         11.7887        0.965831 
        5.37218         11.7221        0.958899 
        5.38789         11.6508        0.952046 
        5.40357         11.5702        0.945269 
        5.41929         11.4927        0.938543 
        5.43502         11.4187        0.931883 
         5.4507         11.3222        0.925304 
        5.46639         11.2203        0.918788 
        5.48212         11.1727         0.91232 
        5.49786         11.0794        0.905908 
        5.51353         10.9967        0.899589 
        5.52921         10.9309        0.893325 
        5.54495         10.8553        0.887103 
        5.56066         10.7421        0.880948 
        5.57637         10.6888        0.874852 
        5.59207         10.6176         0.86882 
        5.60778         10.5499        0.862843 
        5.62346         10.5116        0.856931 
        5.63916         10.4202        0.851069 
        5.65487         10.3399         0.84526 
         5.6706         10.2693        0.839499 
        5.68633         10.1986         0.83379 
        5.70203         10.1407        0.828146 
        5.71773         10.0544        0.822556 
        5.73344         9.98865        0.817015 
        5.74916         9.90776        0.811521 
        5.76486         9.85536        0.806085 
        5.78054           9.796        0.800707 
        5.79626         9.71584        0.795364 
          5.812         9.62902        0.790065 
         5.8277         9.57918        0.784831 
        5.84339         9.50927        0.779644 
        5.85911         9.46571        0.774494 
        5.87484         9.39393        0.769393 
        5.89053         9.32816        0.764348 
        5.90623         9.25751        0.759346 
        5.92195         9.20565        0.754381 
        5.93767         9.15544        0.749463 
        5.95336         9.06524        0.744598 
        5.96905         9.02546        0.739778 
        5.98476         8.96295        0.734994 
        6.00048         8.91258        0.730252 
        6.01617         8.85224        0.725558 
        6.03185         8.78417        0.720912 
        6.04756         8.73766        0.716295 
        6.06331         8.66835         0.71171 
        6.07903         8.61027        0.707174 
        6.09473         8.56237        0.702683 
        6.11044         8.50008        0.698227 
        6.12616         8.46876        0.693811 
        6.14186         8.40681        0.689438 
        6.15755         8.33476        0.685103 
        6.17326         8.27483        0.680802 
        6.18898         8.22562        0.676537 
        6.20467         8.19605        0.672316 
        6.22036         8.11693        0.668132 
         6.2361         8.07093        0.663973 
         6.2518         8.02432        0.659856 
        6.26748         7.95951        0.655783 
        6.28319         7.92398        0.651734 
        6.29893         7.86661        0.647716 
        6.31463          7.8241        0.643739 
        6.33033         7.75702        0.639796 
        6.34604         7.71642        0.635885 
        6.36177         7.68019        0.632003 
        6.37747         7.62412         0.62816 
