# k  (h/Mpc)    Pcb(k)  (Mpc/h)^3    Pcb_linear(k) (Mpc/h)^3   ShotnoiseSubtracted = true
      0.0200456         6093.07         6208.35 
      0.0350414         4615.47         4719.75 
      0.0492313         3504.61         3520.95 
      0.0637834         3041.38         3000.93 
      0.0800726          2459.4         2435.29 
       0.096163         1756.98         1790.36 
       0.111083         1405.78         1443.11 
       0.126058         1304.37         1296.41 
       0.142273         1134.14         1113.12 
       0.158546         932.901         886.103 
        0.17375         760.485         750.988 
       0.188953         727.217         686.077 
       0.204907         685.073         613.026 
       0.220756         578.381         521.834 
        0.23588         508.379         455.845 
         0.2514         450.625         416.673 
       0.267535         430.672         379.817 
       0.283568         391.576         336.801 
       0.299022         361.629         301.207 
       0.314451         333.304         276.485 
       0.330372         309.985         255.063 
       0.346141         280.692         232.597 
       0.361624         267.422         212.165 
       0.377134         252.115         195.913 
       0.392932         232.001         182.034 
       0.408854         223.371         168.495 
       0.424564         214.667         155.833 
       0.440253         202.312         144.932 
       0.455999         191.281         135.488 
       0.471626         176.889         126.788 
        0.48727         172.723          118.57 
       0.502856         165.484          111.16 
       0.518488         161.272          104.55 
       0.534347         154.149         98.3936 
       0.550082         143.359         92.6946 
       0.565732         138.646         87.4551 
       0.581496         133.102         82.6476 
       0.597222         129.163         78.2312 
       0.612804         123.103         74.1575 
       0.628434         120.715         70.3498 
       0.644267         116.836         66.7766 
       0.660051         114.058         63.4796 
       0.675724         110.491         60.4295 
       0.691403         107.252         57.5789 
       0.707174         103.515         54.8978 
       0.722871         101.416         52.3997 
        0.73838         99.4857         50.0853 
       0.754018         94.8812         47.8946 
       0.769845         93.1672         45.8124 
        0.78569         90.8679         43.8536 
       0.801365         88.1931         42.0301 
       0.817031         85.5155         40.3131 
       0.832809         84.6237         38.6828 
       0.848511         81.1026         37.1516 
       0.864097         79.0759         35.7152 
       0.879701         78.4257         34.3547 
       0.895507         76.8991         33.0501 
       0.911279         75.6367         31.8172 
        0.92691         73.4719         30.6584 
       0.942635         71.4313         29.5519 
       0.958396         71.1579         28.4985 
       0.974128          69.385         27.4992 
       0.989692         67.9566         26.5585 
        1.00528         66.7158         25.6611 
        1.02113         65.0495         24.7917 
        1.03692         63.7876         23.9664 
        1.05264         63.1212         23.1831 
        1.06832         61.8209         22.4365 
        1.08405         61.0674         21.7214 
        1.09979          60.118         21.0374 
        1.11537         58.0087         20.3901 
        1.13105         58.3561         19.7666 
        1.14679         57.3405         19.1672 
        1.16256         56.1441         18.5918 
        1.17828         54.9235         18.0423 
        1.19395         54.3822         17.5172 
         1.2097         53.4892         17.0106 
        1.22537         53.0981         16.5268 
          1.241         51.9268         16.0636 
        1.25666         50.8304         15.6172 
        1.27241         50.5985          15.186 
        1.28819          49.268         14.7705 
        1.30392         48.6306          14.372 
        1.31957         48.3954         13.9902 
        1.33529          47.918         13.6211 
        1.35108         47.1818          13.264 
        1.36674         46.3521         12.9225 
         1.3824         45.3562         12.5934 
        1.39811         45.2687         12.2749 
        1.41389         44.5529         11.9664 
        1.42964         43.8526         11.6691 
        1.44531         43.5069         11.3835 
        1.46101         42.4244          11.107 
        1.47667         42.3873         10.8407 
        1.49229         42.0388         10.5839 
        1.50793         41.1936         10.3353 
        1.52367         40.8822         10.0931 
        1.53953         40.4594         9.85719 
        1.55526         39.7222          9.6308 
        1.57092         39.4053         9.41256 
        1.58662         38.8496         9.20065 
        1.60235         38.4903         8.99495 
        1.61809         37.9222         8.79552 
        1.63369         37.4421         8.60398 
        1.64941         36.8793         8.41686 
        1.66519         36.6567          8.2347 
        1.68085         36.2349         8.05929 
        1.69652         35.8498         7.88902 
        1.71228         35.5532         7.72276 
        1.72806         35.0033         7.56122 
        1.74368          34.631         7.40598 
        1.75933         34.2174         7.25485 
        1.77505          33.988         7.10729 
        1.79081         33.4501         6.96362 
         1.8065         33.2095         6.82459 
        1.82218         32.8638         6.68952 
        1.83797          32.461         6.55723 
        1.85367         32.0572          6.4293 
        1.86928         31.7318         6.30559 
        1.88497         31.2513          6.1845 
        1.90073          31.294         6.06619 
        1.91647         30.7644         5.95111 
        1.93218         30.5227         5.83931 
        1.94787         30.2561         5.73057 
        1.96363         30.0304         5.62421 
        1.97935         29.6822          5.5208 
        1.99499          29.318          5.4206 
        2.01064         29.0546         5.32278 
         2.0264         28.6111         5.22679 
        2.04216         28.3789         5.13324 
        2.05781          28.163          5.0426 
        2.07353         27.8321         4.95385 
        2.08928         27.8004         4.86707 
        2.10499         27.3715         4.78263 
        2.12065         26.9848         4.70047 
        2.13633         26.8564         4.62019 
        2.15211         26.4007         4.54129 
        2.16785         26.3154         4.46447 
        2.18349         26.1245         4.38994 
        2.19916         25.7963         4.31696 
        2.21489         25.5319         4.24543 
        2.23063         25.3396         4.17549 
         2.2463         25.1486         4.10746 
        2.26194           24.94         4.04113 
        2.27765         24.6106         3.97594 
        2.29341         24.3041         3.91204 
        2.30914         24.2173         3.84969 
        2.32486         24.0076         3.78875 
        2.34061         23.7193         3.72905 
        2.35635         23.4083         3.67069 
        2.37203         23.3209         3.61381 
        2.38768         23.1241         3.55826 
        2.40339         22.9026         3.50369 
        2.41914         22.6343         3.45015 
        2.43483         22.4117         3.39794 
         2.4505         22.2162          3.3469 
        2.46622         22.0031         3.29675 
        2.48195          21.779         3.24763 
        2.49759         21.6316         3.19979 
        2.51328         21.4017          3.1528 
        2.52906         21.2605         3.10647 
        2.54479         21.0597         3.06125 
        2.56049         20.8193         3.01703 
        2.57618         20.7082         2.97373 
        2.59189         20.5386         2.93122 
        2.60758         20.3717         2.88963 
        2.62325         20.2041         2.84889 
        2.63898         19.9928         2.80882 
        2.65468         19.9185          2.7696 
        2.67044         19.6399         2.73097 
        2.68618         19.5033         2.69318 
        2.70184         19.3423         2.65626 
        2.71755         19.1136         2.61995 
        2.73329         19.0067         2.58427 
        2.74897         18.7853         2.54938 
        2.76462          18.832         2.51522 
        2.78034         18.5517         2.48155 
        2.79607         18.3469         2.44847 
        2.81179         18.2328         2.41603 
        2.82749         18.1184         2.38423 
        2.84321         17.8848         2.35297 
        2.85893         17.7658         2.32228 
        2.87462         17.6069          2.2922 
        2.89033         17.4239         2.26263 
        2.90605         17.3237         2.23357 
        2.92176         17.1562         2.20503 
        2.93747          17.007         2.17701 
        2.95318         16.8666         2.14948 
        2.96891         16.6628         2.12242 
        2.98456         16.5805         2.09595 
        3.00023         16.4944         2.06989 
        3.01596         16.3174         2.04421 
        3.03164         16.1795         2.01903 
        3.04738         16.0288         1.99422 
         3.0631         15.9205         1.96983 
        3.07883         15.7485         1.94585 
        3.09456         15.6504         1.92228 
        3.11026         15.4406         1.89914 
        3.12596          15.394         1.87639 
        3.14163         15.2906         1.85407 
        3.15734          15.122         1.83206 
        3.17308         15.0248         1.81036 
        3.18879         14.9063         1.78908 
        3.20447         14.7542         1.76817 
         3.2202         14.6241         1.74754 
         3.2359         14.5466         1.72727 
        3.25157         14.4322         1.70738 
        3.26729         14.2532         1.68774 
        3.28304         14.1683         1.66838 
        3.29877          14.043         1.64935 
        3.31446         13.9581         1.63066 
        3.33014         13.8159         1.61228 
        3.34585         13.7515         1.59416 
        3.36158         13.6265          1.5763 
        3.37727         13.5196         1.55876 
        3.39294         13.4057         1.54151 
        3.40867         13.2453         1.52447 
        3.42439         13.1814         1.50769 
        3.44008         13.0791          1.4912 
        3.45578         13.0105         1.47495 
        3.47153         12.8907          1.4589 
        3.48724         12.7895         1.44313 
        3.50292         12.6423         1.42763 
        3.51859         12.5911         1.41236 
        3.53431          12.476         1.39728 
        3.55007          12.392         1.38238 
        3.56577          12.301         1.36776 
        3.58146         12.2072         1.35335 
        3.59719         12.0732         1.33913 
        3.61292         12.0092         1.32511 
        3.62859         11.8669         1.31136 
        3.64429         11.8152         1.29777 
        3.66003         11.7169         1.28433 
        3.67578         11.5954          1.2711 
        3.69146         11.5265          1.2581 
        3.70712          11.453          1.2453 
        3.72284         11.3571         1.23265 
        3.73853         11.2897         1.22019 
        3.75422         11.1846         1.20789 
        3.76993         11.0751         1.19576 
        3.78564         10.9951         1.18381 
        3.80137         10.9358           1.172 
        3.81707         10.8327         1.16037 
        3.83279         10.7572          1.1489 
        3.84853         10.6664         1.13756 
        3.86424         10.5672         1.12641 
        3.87992         10.4926         1.11541 
        3.89561         10.4381         1.10457 
        3.91134         10.3647         1.09385 
        3.92704         10.2717         1.08329 
        3.94273         10.1995         1.07287 
        3.95845         10.1199         1.06258 
        3.97418         10.0183         1.05242 
        3.98988         9.96101         1.04241 
        4.00554         9.85372         1.03256 
        4.02125         9.81078         1.02281 
        4.03698         9.74573         1.01317 
        4.05268         9.66963         1.00368 
        4.06839         9.56558        0.994299 
         4.0841         9.52418        0.985046 
        4.09983         9.45547          0.9759 
        4.11555         9.39506        0.966874 
        4.13124         9.29397        0.957989 
        4.14693         9.22276        0.949208 
        4.16266         9.16055        0.940519 
        4.17839         9.10184        0.931945 
        4.19408         9.02193        0.923498 
        4.20977         8.95321        0.915153 
        4.22551         8.88119        0.906892 
        4.24123         8.81829        0.898743 
        4.25691         8.76257        0.890718 
        4.27259          8.6967        0.882788 
        4.28831         8.63421         0.87494 
        4.30404         8.55852        0.867181 
        4.31974         8.48128        0.859535 
        4.33543         8.41189        0.851985 
        4.35116         8.38457        0.844509 
        4.36688         8.31673        0.837127 
        4.38255         8.23736        0.829861 
        4.39825         8.16165        0.822666 
        4.41398         8.12419        0.815543 
         4.4297         8.07671        0.808514 
        4.44541         7.99699        0.801569 
        4.46111           7.973        0.794711 
        4.47683         7.86646         0.78793 
        4.49251         7.86301        0.781243 
        4.50819         7.77826        0.774635 
         4.5239         7.70271        0.768096 
        4.53962         7.67309        0.761624 
        4.55535         7.60817        0.755225 
        4.57106         7.54171        0.748909 
        4.58678         7.49082        0.742664 
         4.6025         7.44575        0.736491 
        4.61821         7.37608        0.730389 
        4.63391         7.33024        0.724364 
         4.6496         7.26902        0.718411 
        4.66532         7.23913        0.712517 
        4.68103         7.16102        0.706691 
        4.69673          7.1348        0.700937 
        4.71241         7.07981        0.695253 
        4.72811         7.00381        0.689624 
        4.74384          6.9759        0.684051 
        4.75955         6.91964        0.678548 
        4.77525          6.8821        0.673109 
        4.79096         6.82789        0.667724 
        4.80669         6.78234        0.662396 
         4.8224         6.74413        0.657132 
        4.83809         6.67581        0.651932 
        4.85379         6.62508        0.646786 
         4.8695         6.58089        0.641691 
        4.88521         6.53648        0.636654 
        4.90093          6.4922        0.631671 
        4.91663         6.44841        0.626746 
        4.93234         6.41642        0.621869 
        4.94807         6.36117        0.617042 
        4.96377         6.31805        0.612275 
        4.97943         6.26175        0.607568 
        4.99514         6.22324          0.6029 
        5.01086         6.16587        0.598278 
        5.02654         6.15135        0.593716 
        5.04227         6.08664        0.589189 
          5.058         6.04618        0.584708 
        5.07371         6.01331        0.580282 
        5.08942         5.98323        0.575902 
        5.10513          5.9393        0.571568 
        5.12084          5.9064        0.567276 
        5.13656         5.86107        0.563029 
        5.15225         5.82466        0.558834 
        5.16796         5.77929        0.554675 
        5.18369          5.7299        0.550555 
         5.1994         5.70341        0.546485 
        5.21509         5.65883         0.54246 
        5.23079         5.62351        0.538471 
        5.24649         5.58616        0.534526 
        5.26217         5.54806        0.530623 
        5.27788         5.50762        0.526754 
        5.29359         5.46733        0.522924 
        5.30933         5.43778        0.519126 
        5.32504         5.40441        0.515373 
        5.34073         5.35469        0.511662 
        5.35646         5.32209         0.50798 
        5.37218          5.2842        0.504334 
        5.38789         5.25384         0.50073 
        5.40357         5.20826        0.497165 
        5.41929         5.18745        0.493628 
        5.43502         5.16056        0.490125 
         5.4507         5.10797        0.486665 
        5.46639         5.07676        0.483238 
        5.48212         5.04787        0.479836 
        5.49786         5.01245        0.476463 
        5.51353         4.98311         0.47314 
        5.52921         4.95313        0.469845 
        5.54495         4.91733        0.466573 
        5.56066         4.88253        0.463335 
        5.57637         4.85816        0.460129 
        5.59207         4.82431        0.456957 
        5.60778         4.79562        0.453813 
        5.62346         4.74876        0.450704 
        5.63916         4.73677        0.447621 
        5.65487         4.69638        0.444566 
         5.6706         4.66217        0.441535 
        5.68633         4.64197        0.438533 
        5.70203         4.61035        0.435564 
        5.71773         4.58846        0.432624 
        5.73344          4.5648         0.42971 
        5.74916         4.52332         0.42682 
        5.76486         4.49628        0.423961 
        5.78054         4.46085        0.421133 
        5.79626         4.44313        0.418323 
          5.812         4.40981        0.415536 
         5.8277         4.39039        0.412783 
        5.84339         4.35327        0.410055 
        5.85911         4.32664        0.407346 
        5.87484         4.30729        0.404663 
        5.89053         4.28211        0.402009 
        5.90623         4.25152        0.399379 
        5.92195          4.2238        0.396767 
        5.93767          4.2023        0.394181 
        5.95336         4.17537        0.391622 
        5.96905         4.14811        0.389087 
        5.98476         4.12255        0.386571 
        6.00048         4.09308        0.384077 
        6.01617         4.07462        0.381608 
        6.03185         4.04005        0.379164 
        6.04756         4.02797        0.376736 
        6.06331         3.99977        0.374325 
        6.07903         3.97908        0.371939 
        6.09473         3.95226        0.369577 
        6.11044         3.92513        0.367233 
        6.12616         3.90019        0.364911 
        6.14186          3.8758        0.362611 
        6.15755         3.85503        0.360331 
        6.17326         3.83847        0.358069 
        6.18898         3.80923        0.355825 
        6.20467         3.78354        0.353605 
        6.22036         3.76452        0.351405 
         6.2361         3.74548        0.349217 
         6.2518         3.72272        0.347052 
        6.26748         3.69967         0.34491 
        6.28319         3.67666         0.34278 
        6.29893         3.65204        0.340667 
        6.31463         3.63497        0.338575 
        6.33033         3.61521        0.336502 
        6.34604         3.58621        0.334444 
        6.36177         3.56181        0.332402 
        6.37747         3.55006        0.330382 
