# k  (h/Mpc)    Pcb(k)  (Mpc/h)^3    Pcb_linear(k) (Mpc/h)^3   ShotnoiseSubtracted = true
      0.0200456         5709.09         5815.88 
      0.0350414         4327.75         4421.38 
      0.0492313         3284.95         3298.36 
      0.0637834         2848.68         2811.22 
      0.0800726         2303.95         2281.34 
       0.096163         1647.46         1677.18 
       0.111083          1318.1         1351.88 
       0.126058         1222.06         1214.46 
       0.142273         1062.28         1042.75 
       0.158546         871.925         830.086 
        0.17375         711.576         703.513 
       0.188953         679.272         642.705 
       0.204907         639.428         574.272 
       0.220756          539.32         488.845 
        0.23588         473.866         427.028 
         0.2514         420.478         390.332 
       0.267535         400.829         355.806 
       0.283568         364.273         315.509 
       0.299022         336.007         282.166 
       0.314451         308.911         259.007 
       0.330372          287.48         238.938 
       0.346141         260.322         217.893 
       0.361624         247.609         198.753 
       0.377134         233.605         183.528 
       0.392932         214.192         170.526 
       0.408854         206.302         157.843 
       0.424564         198.241         145.982 
       0.440253         186.358          135.77 
       0.455999         176.234         126.923 
       0.471626         162.989         118.773 
        0.48727         159.047         111.075 
       0.502856          152.17         104.133 
       0.518488         147.995         97.9403 
       0.534347         141.664         92.1735 
       0.550082         131.598         86.8347 
       0.565732         126.918         81.9264 
       0.581496          122.03         77.4229 
       0.597222         118.391         73.2857 
       0.612804         112.674         69.4695 
       0.628434         110.475         65.9025 
       0.644267         106.995         62.5552 
       0.660051         104.201         59.4666 
       0.675724         100.724         56.6093 
       0.691403         97.7841          53.939 
       0.707174         94.5552         51.4273 
       0.722871         92.3526         49.0871 
        0.73838         90.5295         46.9191 
       0.754018         86.3123         44.8669 
       0.769845         84.7087         42.9163 
        0.78569         82.5763         41.0813 
       0.801365         80.0709         39.3731 
       0.817031         77.7762         37.7647 
       0.832809         76.9342         36.2374 
       0.848511         73.4977         34.8029 
       0.864097         71.7538         33.4574 
       0.879701         71.1134         32.1828 
       0.895507         69.8292         30.9608 
       0.911279         68.5159         29.8058 
        0.92691          66.564         28.7203 
       0.942635         64.6308         27.6837 
       0.958396         64.3724         26.6969 
       0.974128          62.744         25.7608 
       0.989692         61.5467         24.8796 
        1.00528         60.3929         24.0389 
        1.02113         58.7558         23.2245 
        1.03692         57.7084         22.4514 
        1.05264         56.9986         21.7175 
        1.06832         55.8535         21.0182 
        1.08405         55.1401         20.3482 
        1.09979         54.1905         19.7075 
        1.11537         52.3542         19.1011 
        1.13105         52.5996         18.5171 
        1.14679         51.7407         17.9555 
        1.16256         50.5546         17.4165 
        1.17828         49.5501         16.9017 
        1.19395         48.9241         16.4098 
         1.2097         48.2845         15.9353 
        1.22537         47.7814         15.4821 
          1.241         46.7774         15.0481 
        1.25666         45.7149         14.6299 
        1.27241          45.525         14.2259 
        1.28819         44.2819         13.8367 
        1.30392         43.7831         13.4634 
        1.31957         43.5523         13.1058 
        1.33529         43.1665           12.76 
        1.35108         42.3732         12.4255 
        1.36674         41.6044         12.1055 
         1.3824         40.7597         11.7973 
        1.39811         40.6647          11.499 
        1.41389         40.0508         11.2099 
        1.42964         39.4222         10.9314 
        1.44531         39.1291         10.6639 
        1.46101         38.1317         10.4049 
        1.47667         38.0343         10.1554 
        1.49229         37.7345         9.91481 
        1.50793         37.0311         9.68189 
        1.52367         36.7663         9.45504 
        1.53953         36.3318         9.23404 
        1.55526         35.6682         9.02197 
        1.57092         35.3631         8.81753 
        1.58662         34.8663         8.61902 
        1.60235         34.5372         8.42632 
        1.61809         34.0818         8.23949 
        1.63369         33.6594         8.06006 
        1.64941         33.1157         7.88477 
        1.66519         32.9591         7.71412 
        1.68085         32.5255         7.54981 
        1.69652          32.181          7.3903 
        1.71228         31.8958         7.23455 
        1.72806         31.4428         7.08322 
        1.74368         31.0849          6.9378 
        1.75933         30.7234         6.79622 
        1.77505         30.4968         6.65799 
        1.79081         30.0352          6.5234 
         1.8065          29.865         6.39316 
        1.82218         29.4872         6.26663 
        1.83797         29.1291         6.14271 
        1.85367         28.7936         6.02286 
        1.86928         28.4885         5.90697 
        1.88497         28.0722         5.79354 
        1.90073         28.1277          5.6827 
        1.91647         27.6357          5.5749 
        1.93218         27.4364         5.47016 
        1.94787         27.2213          5.3683 
        1.96363          26.998         5.26866 
        1.97935         26.6913         5.17179 
        1.99499         26.3745         5.07793 
        2.01064         26.1134         4.98629 
         2.0264         25.7469         4.89637 
        2.04216         25.5597         4.80873 
        2.05781         25.3166         4.72382 
        2.07353         25.0358         4.64068 
        2.08928           24.97         4.55939 
        2.10499         24.5688         4.48028 
        2.12065         24.2564         4.40332 
        2.13633          24.163         4.32811 
        2.15211         23.7791          4.2542 
        2.16785         23.7192         4.18224 
        2.18349         23.5155         4.11242 
        2.19916         23.1989         4.04406 
        2.21489         23.0071         3.97705 
        2.23063         22.8027         3.91153 
         2.2463         22.6071          3.8478 
        2.26194         22.4457         3.78566 
        2.27765         22.1642         3.72459 
        2.29341            21.9         3.66473 
        2.30914           21.76         3.60632 
        2.32486         21.6357         3.54924 
        2.34061          21.373         3.49331 
        2.35635         21.0977         3.43864 
        2.37203         21.0364         3.38535 
        2.38768         20.8411         3.33332 
        2.40339         20.5825          3.2822 
        2.41914          20.374         3.23204 
        2.43483         20.2192         3.18313 
         2.4505         20.0351         3.13532 
        2.46622         19.8579         3.08834 
        2.48195         19.6339         3.04233 
        2.49759         19.5532         2.99751 
        2.51328          19.317         2.95349 
        2.52906         19.1669         2.91009 
        2.54479         19.0487         2.86773 
        2.56049         18.8314          2.8263 
        2.57618          18.729         2.78574 
        2.59189         18.5364         2.74592 
        2.60758         18.4047         2.70695 
        2.62325         18.2698          2.6688 
        2.63898          18.029         2.63125 
        2.65468         17.9955         2.59451 
        2.67044         17.7683         2.55833 
        2.68618         17.6245         2.52293 
        2.70184         17.4746         2.48834 
        2.71755         17.2897         2.45433 
        2.73329         17.1882          2.4209 
        2.74897         17.0045         2.38822 
        2.76462         17.0105         2.35622 
        2.78034         16.7618         2.32467 
        2.79607         16.5888         2.29368 
        2.81179         16.4718          2.2633 
        2.82749         16.3654          2.2335 
        2.84321         16.1477         2.20422 
        2.85893         16.0689         2.17547 
        2.87462         15.9343         2.14729 
        2.89033           15.75         2.11959 
        2.90605         15.6543         2.09237 
        2.92176         15.5462         2.06563 
        2.93747         15.3722         2.03939 
        2.95318         15.2758          2.0136 
        2.96891         15.0873         1.98825 
        2.98456         15.0143         1.96345 
        3.00023         14.9342         1.93904 
        3.01596         14.7758         1.91498 
        3.03164         14.6594          1.8914 
        3.04738         14.5223         1.86815 
         3.0631         14.4048          1.8453 
        3.07883          14.275         1.82284 
        3.09456         14.1947         1.80076 
        3.11026         13.9683         1.77908 
        3.12596         13.9865         1.75777 
        3.14163         13.8592         1.73686 
        3.15734         13.7147         1.71624 
        3.17308         13.6448         1.69592 
        3.18879         13.5282         1.67598 
        3.20447          13.389         1.65639 
         3.2202         13.2765         1.63706 
         3.2359         13.2115         1.61808 
        3.25157          13.087         1.59944 
        3.26729         12.9513         1.58105 
        3.28304         12.8653         1.56291 
        3.29877         12.7603         1.54508 
        3.31446         12.7039         1.52758 
        3.33014         12.5535         1.51036 
        3.34585         12.5059         1.49338 
        3.36158         12.3761         1.47665 
        3.37727         12.3031         1.46022 
        3.39294         12.1865         1.44406 
        3.40867         12.0319         1.42809 
        3.42439         11.9881         1.41238 
        3.44008         11.8835         1.39693 
        3.45578          11.826         1.38171 
        3.47153         11.7226         1.36668 
        3.48724         11.6405          1.3519 
        3.50292         11.5204         1.33738 
        3.51859         11.4494         1.32308 
        3.53431          11.352         1.30895 
        3.55007         11.2825         1.29499 
        3.56577         11.2086         1.28129 
        3.58146         11.1113          1.2678 
        3.59719         10.9919         1.25447 
        3.61292         10.9427         1.24134 
        3.62859         10.8115         1.22846 
        3.64429         10.7601         1.21573 
        3.66003         10.6806         1.20314 
        3.67578         10.5613         1.19074 
        3.69146         10.5121         1.17856 
        3.70712         10.4562         1.16658 
        3.72284         10.3428         1.15472 
        3.73853          10.293         1.14305 
        3.75422         10.1849         1.13153 
        3.76993         10.1023         1.12017 
        3.78564          10.045         1.10897 
        3.80137         9.97543         1.09791 
        3.81707         9.88172         1.08702 
        3.83279         9.83288         1.07627 
        3.84853          9.7467         1.06565 
        3.86424         9.64615          1.0552 
        3.87992         9.58048          1.0449 
        3.89561         9.52875         1.03474 
        3.91134         9.45171          1.0247 
        3.92704         9.38903          1.0148 
        3.94273         9.31048         1.00505 
        3.95845         9.24273        0.995408 
        3.97418         9.16577        0.985891 
        3.98988         9.10316        0.976513 
        4.00554         9.00523        0.967284 
        4.02125         8.95604        0.958148 
        4.03698         8.90572        0.949118 
        4.05268         8.84277        0.940226 
        4.06839         8.75619        0.931442 
         4.0841          8.7209        0.922774 
        4.09983         8.65527        0.914206 
        4.11555         8.60551        0.905751 
        4.13124         8.50561        0.897427 
        4.14693          8.4479        0.889202 
        4.16266         8.37647        0.881062 
        4.17839         8.32004         0.87303 
        4.19408         8.25694        0.865117 
        4.20977         8.18811          0.8573 
        4.22551         8.13432        0.849561 
        4.24123         8.07725        0.841927 
        4.25691         8.03102        0.834409 
        4.27259          7.9567        0.826981 
        4.28831         7.90102        0.819629 
        4.30404         7.83696        0.812361 
        4.31974         7.76826        0.805197 
        4.33543         7.71134        0.798125 
        4.35116         7.69213        0.791122 
        4.36688         7.61178        0.784206 
        4.38255         7.53981        0.777399 
        4.39825         7.49046         0.77066 
        4.41398         7.44706        0.763987 
         4.4297         7.42358        0.757402 
        4.44541         7.33934        0.750896 
        4.46111         7.30587        0.744472 
        4.47683         7.21516        0.738119 
        4.49251         7.20488        0.731855 
        4.50819         7.14016        0.725665 
         4.5239         7.06242        0.719539 
        4.53962         7.05099        0.713476 
        4.55535         6.98197        0.707482 
        4.57106         6.91957        0.701565 
        4.58678          6.8802        0.695715 
         4.6025         6.83713        0.689932 
        4.61821         6.78402        0.684216 
        4.63391          6.7339        0.678572 
         4.6496         6.68173        0.672995 
        4.66532         6.64606        0.667473 
        4.68103         6.58748        0.662016 
        4.69673         6.55267        0.656626 
        4.71241         6.50596        0.651302 
        4.72811         6.45414        0.646028 
        4.74384         6.41508        0.640807 
        4.75955          6.3704        0.635652 
        4.77525         6.32198        0.630557 
        4.79096         6.27824        0.625512 
        4.80669         6.23699        0.620521 
         4.8224         6.19299         0.61559 
        4.83809         6.13628        0.610719 
        4.85379         6.09941        0.605898 
         4.8695         6.05261        0.601125 
        4.88521         6.01931        0.596407 
        4.90093          5.9718        0.591739 
        4.91663         5.93172        0.587125 
        4.93234         5.90409        0.582557 
        4.94807         5.85039        0.578034 
        4.96377         5.81492        0.573568 
        4.97943         5.75758         0.56916 
        4.99514         5.72625        0.564786 
        5.01086         5.67568        0.560456 
        5.02654         5.67168        0.556183 
        5.04227         5.61523        0.551942 
          5.058         5.57284        0.547744 
        5.07371         5.54488        0.543599 
        5.08942         5.51358        0.539495 
        5.10513         5.47598        0.535435 
        5.12084         5.43031        0.531414 
        5.13656          5.4022        0.527436 
        5.15225         5.36743        0.523506 
        5.16796         5.32827         0.51961 
        5.18369         5.27775         0.51575 
         5.1994         5.25874        0.511938 
        5.21509         5.21883        0.508167 
        5.23079         5.18092         0.50443 
        5.24649         5.15171        0.500735 
        5.26217         5.12222        0.497079 
        5.27788         5.08128        0.493455 
        5.29359         5.03884        0.489866 
        5.30933         5.01108        0.486309 
        5.32504         4.98605        0.482793 
        5.34073          4.9365        0.479316 
        5.35646          4.9181        0.475867 
        5.37218         4.88092        0.472451 
        5.38789         4.85384        0.469075 
        5.40357         4.82234        0.465736 
        5.41929         4.78552        0.462422 
        5.43502         4.76718        0.459141 
         5.4507         4.71918        0.455899 
        5.46639         4.69303        0.452689 
        5.48212         4.67225        0.449502 
        5.49786         4.63784        0.446343 
        5.51353         4.60615        0.443229 
        5.52921          4.5801        0.440143 
        5.54495         4.54717        0.437077 
        5.56066         4.51975        0.434045 
        5.57637          4.4908        0.431041 
        5.59207         4.46404        0.428069 
        5.60778         4.43558        0.425124 
        5.62346         4.38975        0.422212 
        5.63916         4.38089        0.419324 
        5.65487         4.34903        0.416461 
         5.6706         4.32103        0.413623 
        5.68633          4.2925         0.41081 
        5.70203         4.26824        0.408029 
        5.71773         4.25161        0.405275 
        5.73344          4.2269        0.402545 
        5.74916         4.18777        0.399838 
        5.76486         4.16291        0.397159 
        5.78054         4.12878         0.39451 
        5.79626          4.1166        0.391878 
          5.812         4.09048        0.389267 
         5.8277         4.07187        0.386688 
        5.84339         4.03963        0.384132 
        5.85911         4.01568        0.381595 
        5.87484          4.0008        0.379081 
        5.89053         3.95951        0.376596 
        5.90623          3.9479        0.374131 
        5.92195         3.91792        0.371685 
        5.93767         3.89954        0.369262 
        5.95336          3.8792        0.366865 
        5.96905         3.85515         0.36449 
        5.98476         3.82837        0.362133 
        6.00048         3.79591        0.359797 
        6.01617         3.78534        0.357484 
        6.03185          3.7551        0.355195 
        6.04756         3.73317         0.35292 
        6.06331          3.7152        0.350661 
        6.07903         3.69881        0.348426 
        6.09473         3.66937        0.346213 
        6.11044         3.64482        0.344018 
        6.12616         3.62708        0.341842 
        6.14186         3.60026        0.339687 
        6.15755         3.58195        0.337552 
        6.17326         3.56722        0.335433 
        6.18898         3.53886        0.333331 
        6.20467         3.52044        0.331252 
        6.22036         3.49942         0.32919 
         6.2361           3.483        0.327141 
         6.2518         3.45685        0.325112 
        6.26748         3.44289        0.323106 
        6.28319         3.41809        0.321111 
        6.29893         3.39979        0.319131 
        6.31463          3.3828        0.317171 
        6.33033         3.36998        0.315229 
        6.34604         3.34097        0.313302 
        6.36177         3.31843        0.311389 
        6.37747         3.30541        0.309496 
