# k  (h/Mpc)    Pcb(k)  (Mpc/h)^3    Pcb_linear(k) (Mpc/h)^3   ShotnoiseSubtracted = true
      0.0200456         1554.67         1579.85 
      0.0350414         1190.35         1201.04 
      0.0492313         897.796          895.98 
      0.0637834         770.175         763.651 
      0.0800726         623.829         619.712 
       0.096163         452.963         455.595 
       0.111083         363.047          367.23 
       0.126058         331.309           329.9 
       0.142273         286.149         283.257 
       0.158546         229.799         225.488 
        0.17375         190.978         191.105 
       0.188953           177.5         174.587 
       0.204907           163.9         155.997 
       0.220756         137.566         132.792 
        0.23588         120.364             116 
         0.2514         108.437         106.031 
       0.267535         100.086         96.6525 
       0.283568          89.786         85.7061 
       0.299022         81.4413         76.6486 
       0.314451          73.256         70.3576 
       0.330372         68.3871         64.9061 
       0.346141         62.3766         59.1892 
       0.361624          57.774         53.9899 
       0.377134         54.2917         49.8543 
       0.392932         48.4207         46.3224 
       0.408854         46.6759         42.8772 
       0.424564         43.7115         39.6551 
       0.440253         40.3754         36.8811 
       0.455999         38.2351         34.4778 
       0.471626         35.9526         32.2639 
        0.48727         34.0213         30.1728 
       0.502856         31.8596         28.2871 
       0.518488         30.5213         26.6049 
       0.534347         29.2627         25.0384 
       0.550082         26.8285         23.5881 
       0.565732         24.9451         22.2548 
       0.581496         24.5116         21.0314 
       0.597222         23.6384         19.9076 
       0.612804         22.0594          18.871 
       0.628434         21.2862          17.902 
       0.644267          20.608         16.9927 
       0.660051         19.5068         16.1537 
       0.675724         18.5468         15.3776 
       0.691403         17.9669         14.6522 
       0.707174         17.2275         13.9699 
       0.722871         16.5568         13.3342 
        0.73838         15.9746         12.7453 
       0.754018         15.4171         12.1878 
       0.769845         14.7771         11.6579 
        0.78569         14.3348         11.1595 
       0.801365          13.773         10.6954 
       0.817031         13.3823         10.2585 
       0.832809         13.0416         9.84366 
       0.848511         12.2772           9.454 
       0.864097         11.9777         9.08848 
       0.879701         11.6269         8.74227 
       0.895507         11.1636          8.4103 
       0.911279         10.9956         8.09656 
        0.92691         10.6389         7.80168 
       0.942635         10.1829         7.52011 
       0.958396         9.90041         7.25206 
       0.974128         9.66458         6.99777 
       0.989692         9.54636         6.75838 
        1.00528         9.18529         6.53002 
        1.02113         8.83852         6.30878 
        1.03692         8.68735         6.09877 
        1.05264         8.43851         5.89944 
        1.06832         8.25994         5.70946 
        1.08405         7.94573         5.52746 
        1.09979         7.78176         5.35342 
        1.11537         7.64407         5.18871 
        1.13105         7.44317         5.03004 
        1.14679         7.28742          4.8775 
        1.16256         7.07463         4.73109 
        1.17828          6.9687         4.59125 
        1.19395          6.7609         4.45763 
         1.2097         6.56182         4.32872 
        1.22537         6.41661          4.2056 
          1.241         6.31184         4.08772 
        1.25666         6.25871         3.97413 
        1.27241         6.04019         3.86439 
        1.28819         5.89679         3.75867 
        1.30392         5.81286         3.65726 
        1.31957         5.69471         3.56011 
        1.33529         5.57761         3.46618 
        1.35108         5.44341         3.37531 
        1.36674         5.38696          3.2884 
         1.3824         5.19146         3.20467 
        1.39811         5.12901         3.12362 
        1.41389         5.05001          3.0451 
        1.42964         4.95462         2.96946 
        1.44531         4.86935         2.89678 
        1.46101         4.77643         2.82642 
        1.47667         4.65937         2.75864 
        1.49229         4.62175          2.6933 
        1.50793         4.49655         2.63002 
        1.52367         4.47203          2.5684 
        1.53953         4.34937         2.50837 
        1.55526         4.27001         2.45076 
        1.57092         4.22711         2.39523 
        1.58662         4.13402          2.3413 
        1.60235         4.07009         2.28896 
        1.61809         4.00553         2.23821 
        1.63369         3.94459         2.18947 
        1.64941         3.87743         2.14185 
        1.66519         3.82899         2.09549 
        1.68085         3.74197         2.05086 
        1.69652         3.68705         2.00753 
        1.71228         3.63908         1.96522 
        1.72806         3.57173         1.92411 
        1.74368         3.52129         1.88461 
        1.75933         3.46832         1.84615 
        1.77505         3.42044          1.8086 
        1.79081         3.35881         1.77204 
         1.8065         3.31789         1.73666 
        1.82218         3.28258         1.70229 
        1.83797         3.24975         1.66863 
        1.85367         3.19691         1.63607 
        1.86928         3.15088         1.60459 
        1.88497         3.09147         1.57378 
        1.90073         3.04658         1.54367 
        1.91647         3.00806         1.51439 
        1.93218         2.98611         1.48594 
        1.94787         2.94052         1.45827 
        1.96363         2.89442          1.4312 
        1.97935          2.8513         1.40488 
        1.99499         2.79906         1.37939 
        2.01064         2.77972          1.3545 
         2.0264         2.76063         1.33007 
        2.04216          2.7193         1.30626 
        2.05781         2.67812          1.2832 
        2.07353         2.65113         1.26061 
        2.08928         2.61939         1.23853 
        2.10499         2.58597         1.21704 
        2.12065         2.56981         1.19613 
        2.13633         2.52298          1.1757 
        2.15211         2.49161         1.15563 
        2.16785         2.46503         1.13608 
        2.18349          2.4428         1.11711 
        2.19916         2.39243         1.09854 
        2.21489         2.37442         1.08034 
        2.23063         2.34582         1.06254 
         2.2463         2.32801         1.04523 
        2.26194         2.29027         1.02835 
        2.27765         2.26883         1.01176 
        2.29341         2.24921        0.995502 
        2.30914         2.22648        0.979636 
        2.32486         2.20679        0.964128 
        2.34061         2.17156        0.948935 
        2.35635         2.14091        0.934086 
        2.37203         2.13336         0.91961 
        2.38768         2.11156        0.905475 
        2.40339         2.09276        0.891589 
        2.41914         2.06442        0.877965 
        2.43483         2.04455        0.864677 
         2.4505         2.01454         0.85169 
        2.46622         2.00318        0.838928 
        2.48195         1.98456        0.826429 
        2.49759           1.963        0.814255 
        2.51328          1.9373        0.802297 
        2.52906         1.92654        0.790507 
        2.54479         1.90559           0.779 
        2.56049         1.88462        0.767747 
        2.57618         1.87087        0.756728 
        2.59189         1.85725        0.745912 
        2.60758          1.8297        0.735327 
        2.62325         1.81769        0.724962 
        2.63898         1.79872        0.714763 
        2.65468         1.78295        0.704784 
        2.67044         1.77005        0.694954 
        2.68618         1.74478        0.685338 
        2.70184          1.7312        0.675943 
        2.71755         1.71619        0.666703 
        2.73329         1.70194        0.657624 
        2.74897         1.68775        0.648745 
        2.76462         1.67058        0.640052 
        2.78034         1.66366        0.631483 
        2.79607         1.64101        0.623065 
        2.81179         1.62535        0.614811 
        2.82749         1.61724        0.606717 
        2.84321         1.60371        0.598762 
        2.85893         1.58631        0.590954 
        2.87462         1.57752        0.583299 
        2.89033         1.55519        0.575775 
        2.90605         1.54598        0.568378 
        2.92176          1.5348        0.561117 
        2.93747         1.52359        0.553987 
        2.95318          1.5105        0.546981 
        2.96891         1.49725        0.540095 
        2.98456         1.49014        0.533358 
        3.00023         1.47436        0.526729 
        3.01596         1.46739        0.520192 
        3.03164         1.45593        0.513786 
        3.04738         1.43333        0.507471 
         3.0631         1.42699        0.501265 
        3.07883         1.41852        0.495163 
        3.09456         1.40982        0.489165 
        3.11026         1.39646        0.483277 
        3.12596         1.38652        0.477488 
        3.14163         1.37541        0.471807 
        3.15734         1.36814        0.466207 
        3.17308         1.35509        0.460686 
        3.18879         1.34612        0.455269 
        3.20447         1.33385        0.449949 
         3.2202         1.32608        0.444698 
         3.2359         1.31871        0.439541 
        3.25157         1.30572        0.434479 
        3.26729         1.29912        0.429482 
        3.28304         1.28789        0.424555 
        3.29877          1.2766        0.419713 
        3.31446         1.26991        0.414957 
        3.33014         1.26544         0.41028 
        3.34585         1.25382        0.405668 
        3.36158         1.24005        0.401122 
        3.37727         1.23891         0.39666 
        3.39294         1.22947        0.392271 
        3.40867         1.22039        0.387933 
        3.42439         1.20966        0.383664 
        3.44008         1.20384        0.379467 
        3.45578         1.19705        0.375332 
        3.47153          1.1863        0.371249 
        3.48724         1.18028        0.367235 
        3.50292         1.17649         0.36329 
        3.51859         1.16692        0.359406 
        3.53431         1.16001        0.355567 
        3.55007         1.15484        0.351776 
        3.56577         1.14559        0.348055 
        3.58146         1.13655         0.34439 
        3.59719         1.13168         0.34077 
        3.61292           1.126        0.337204 
        3.62859         1.11399        0.333702 
        3.64429         1.11217        0.330245 
        3.66003         1.10299        0.326826 
        3.67578         1.09494        0.323457 
        3.69146         1.09061        0.320149 
        3.70712         1.08001        0.316894 
        3.72284         1.07917        0.313673 
        3.73853         1.06788        0.310502 
        3.75422         1.06182        0.307375 
        3.76993         1.06027        0.304288 
        3.78564         1.05274        0.301245 
        3.80137         1.04348         0.29824 
        3.81707         1.04106        0.295282 
        3.83279         1.03187        0.292362 
        3.84853          1.0253        0.289477 
        3.86424         1.02212        0.286638 
        3.87992         1.01632        0.283841 
        3.89561         1.01001        0.281082 
        3.91134         1.00332        0.278354 
        3.92704        0.995797        0.275665 
        3.94273        0.992985        0.273016 
        3.95845         0.98682        0.270396 
        3.97418        0.980074        0.267811 
        3.98988        0.973471        0.265264 
        4.00554        0.969664        0.262757 
        4.02125        0.961163        0.260275 
        4.03698        0.950576        0.257822 
        4.05268         0.94456        0.255407 
        4.06839        0.937036         0.25302 
         4.0841        0.932809        0.250666 
        4.09983        0.926466        0.248338 
        4.11555        0.919918        0.246042 
        4.13124        0.912961        0.243781 
        4.14693        0.906293        0.241546 
        4.16266        0.900516        0.239335 
        4.17839        0.896203        0.237153 
        4.19408        0.889617        0.235004 
        4.20977        0.883965         0.23288 
        4.22551        0.878533        0.230778 
        4.24123        0.871347        0.228704 
        4.25691        0.867469        0.226662 
        4.27259        0.861473        0.224644 
        4.28831        0.855902        0.222647 
        4.30404        0.851641        0.220673 
        4.31974        0.844908        0.218727 
        4.33543        0.841409        0.216806 
        4.35116        0.837397        0.214903 
        4.36688        0.831076        0.213025 
        4.38255        0.828626        0.211176 
        4.39825        0.824302        0.209345 
        4.41398        0.817768        0.207532 
         4.4297        0.812792        0.205743 
        4.44541        0.809872        0.203976 
        4.46111        0.807567        0.202231 
        4.47683        0.802183        0.200506 
        4.49251        0.798711        0.198804 
        4.50819        0.794037        0.197122 
         4.5239        0.791918        0.195458 
        4.53962        0.787936        0.193811 
        4.55535        0.785098        0.192183 
        4.57106        0.780161        0.190576 
        4.58678        0.776566        0.188987 
         4.6025        0.773282        0.187416 
        4.61821        0.770988        0.185863 
        4.63391         0.76508         0.18433 
         4.6496        0.762048        0.182815 
        4.66532        0.760946        0.181315 
        4.68103        0.756888        0.179833 
        4.69673        0.754899        0.178368 
        4.71241        0.749201        0.176922 
        4.72811         0.74954         0.17549 
        4.74384        0.745031        0.174071 
        4.75955        0.742663        0.172671 
        4.77525        0.739201        0.171287 
        4.79096          0.7381        0.169917 
        4.80669        0.734538        0.168561 
         4.8224        0.733531        0.167221 
        4.83809         0.72968        0.165898 
        4.85379         0.72919        0.164588 
         4.8695        0.726476        0.163292 
        4.88521        0.722287         0.16201 
        4.90093        0.721651        0.160742 
        4.91663         0.71786        0.159489 
        4.93234        0.715932        0.158248 
        4.94807        0.715018        0.157019 
        4.96377        0.713092        0.155806 
        4.97943         0.71148        0.154609 
        4.99514        0.707257        0.153421 
        5.01086        0.707604        0.152245 
        5.02654        0.705345        0.151084 
        5.04227        0.703592        0.149932 
          5.058        0.701082        0.148791 
        5.07371        0.699284        0.147665 
        5.08942        0.698601        0.146551 
        5.10513        0.696406        0.145448 
        5.12084        0.695241        0.144355 
        5.13656        0.693692        0.143275 
        5.15225        0.692888        0.142207 
        5.16796         0.69017        0.141149 
        5.18369        0.690644          0.1401 
         5.1994        0.689958        0.139065 
        5.21509        0.687523         0.13804 
        5.23079        0.686459        0.137025 
        5.24649        0.685509        0.136021 
        5.26217        0.683235        0.135028 
        5.27788        0.683515        0.134044 
        5.29359         0.68274        0.133069 
        5.30933        0.681125        0.132103 
        5.32504        0.680653        0.131148 
        5.34073        0.678811        0.130203 
        5.35646        0.678734        0.129266 
        5.37218        0.678216        0.128338 
        5.38789        0.676037        0.127421 
        5.40357        0.676401        0.126514 
        5.41929        0.676418        0.125614 
        5.43502        0.674805        0.124723 
         5.4507        0.675029        0.123842 
        5.46639        0.673856         0.12297 
        5.48212        0.670911        0.122104 
        5.49786        0.671254        0.121246 
        5.51353        0.671045        0.120401 
        5.52921        0.669485        0.119562 
        5.54495        0.669761        0.118729 
        5.56066        0.669218        0.117906 
        5.57637        0.667925         0.11709 
        5.59207        0.668755        0.116282 
        5.60778        0.668461        0.115482 
        5.62346        0.666517        0.114691 
        5.63916        0.666899        0.113907 
        5.65487        0.666559        0.113129 
         5.6706        0.667226        0.112358 
        5.68633        0.665627        0.111594 
        5.70203        0.665677        0.110839 
        5.71773        0.664509         0.11009 
        5.73344        0.663364        0.109349 
        5.74916        0.664728        0.108613 
        5.76486          0.6643        0.107886 
        5.78054         0.66359        0.107166 
        5.79626        0.663381        0.106451 
          5.812        0.663963        0.105742 
         5.8277        0.662774        0.105041 
        5.84339        0.662174        0.104347 
        5.85911        0.661868        0.103658 
        5.87484        0.661558        0.102975 
        5.89053        0.660681          0.1023 
        5.90623        0.660938         0.10163 
        5.92195        0.660727        0.100966 
        5.93767        0.660705        0.100308 
        5.95336        0.659887       0.0996566 
        5.96905        0.659126       0.0990115 
        5.98476        0.659324       0.0983712 
        6.00048        0.660757       0.0977365 
        6.01617        0.659834       0.0971083 
        6.03185        0.659066       0.0964864 
        6.04756        0.658628       0.0958686 
        6.06331        0.659733       0.0952548 
        6.07903        0.659712       0.0946478 
        6.09473        0.660541       0.0940467 
        6.11044        0.659088       0.0934504 
        6.12616        0.659076       0.0928593 
        6.14186        0.657827        0.092274 
        6.15755         0.65843       0.0916938 
        6.17326         0.65862       0.0911182 
        6.18898        0.657702       0.0905473 
        6.20467        0.659486       0.0899824 
        6.22036        0.656843       0.0894224 
         6.2361         0.65731       0.0888657 
         6.2518        0.656585       0.0883147 
        6.26748        0.657139       0.0877696 
        6.28319        0.659259       0.0872277 
        6.29893        0.657252       0.0866899 
        6.31463        0.657513       0.0861576 
        6.33033        0.656431         0.08563 
        6.34604         0.65624       0.0851065 
        6.36177        0.656095       0.0845869 
        6.37747          0.6578       0.0840726 
