# k  (h/Mpc)    Pcb(k)  (Mpc/h)^3    Pcb_linear(k) (Mpc/h)^3   ShotnoiseSubtracted = true
      0.0200456          3236.4         3283.55 
      0.0350414         2535.33         2496.24 
      0.0492313          1861.6          1862.2 
      0.0637834            1556         1587.17 
      0.0800726         1257.47         1288.01 
       0.096163         965.451         946.906 
       0.111083         787.383          763.25 
       0.126058         678.581         685.662 
       0.142273         583.025          588.72 
       0.158546         476.323         468.653 
        0.17375         411.984         397.192 
       0.188953         375.072          362.86 
       0.204907          322.82         324.224 
       0.220756         286.738         275.994 
        0.23588         252.408         241.093 
         0.2514         229.197         220.375 
       0.267535           215.7         200.882 
       0.283568         189.863         178.131 
       0.299022         175.634         159.306 
       0.314451         167.852         146.231 
       0.330372         149.207         134.901 
       0.346141         137.611         123.018 
       0.361624             128         112.212 
       0.377134         117.174         103.617 
       0.392932         114.371         96.2763 
       0.408854         105.926         89.1157 
       0.424564         101.355          82.419 
       0.440253         92.5391         76.6535 
       0.455999         85.4702         71.6586 
       0.471626         81.5988         67.0572 
        0.48727         79.6215         62.7109 
       0.502856         73.9358         58.7918 
       0.518488         70.4573         55.2955 
       0.534347         66.6428         52.0396 
       0.550082         64.3554         49.0254 
       0.565732         62.3294         46.2543 
       0.581496         58.3462         43.7117 
       0.597222         55.7342         41.3759 
       0.612804         53.8147         39.2213 
       0.628434         52.7573         37.2074 
       0.644267          49.978         35.3176 
       0.660051         47.8525         33.5738 
       0.675724         46.0251         31.9607 
       0.691403           45.36          30.453 
       0.707174         43.8296          29.035 
       0.722871         42.3745         27.7138 
        0.73838         40.4392         26.4897 
       0.754018         38.5348         25.3311 
       0.769845         37.8568         24.2298 
        0.78569         36.5689         23.1938 
       0.801365         35.5472         22.2294 
       0.817031         34.2626         21.3213 
       0.832809         33.6243          20.459 
       0.848511          32.549         19.6492 
       0.864097         31.7003         18.8895 
       0.879701         31.2209         18.1699 
       0.895507         30.1144         17.4799 
       0.911279         29.0798         16.8278 
        0.92691         28.6231          16.215 
       0.942635         28.0689         15.6298 
       0.958396         27.2954         15.0726 
       0.974128         26.6041         14.5441 
       0.989692         25.6214         14.0466 
        1.00528         25.4424          13.572 
        1.02113         24.7119         13.1121 
        1.03692         24.2265         12.6757 
        1.05264         23.7788         12.2614 
        1.06832         23.3424         11.8665 
        1.08405         22.6894         11.4883 
        1.09979         22.3049         11.1265 
        1.11537         21.7233         10.7842 
        1.13105         21.4187         10.4544 
        1.14679         20.8958         10.1374 
        1.16256         20.5537         9.83307 
        1.17828          20.216         9.54244 
        1.19395         19.9341         9.26471 
         1.2097         19.3691         8.99679 
        1.22537         19.1046         8.74091 
          1.241         18.7281         8.49591 
        1.25666         18.5513         8.25982 
        1.27241         18.1918         8.03173 
        1.28819         17.5314         7.81199 
        1.30392         17.6804         7.60124 
        1.31957         17.2183         7.39931 
        1.33529         16.9651         7.20408 
        1.35108         16.7531         7.01523 
        1.36674         16.3858         6.83459 
         1.3824         16.1687         6.66057 
        1.39811         15.8921         6.49212 
        1.41389         15.6499         6.32893 
        1.42964         15.4559          6.1717 
        1.44531         15.2252         6.02066 
        1.46101         15.0081         5.87443 
        1.47667         14.7908         5.73355 
        1.49229         14.4953         5.59774 
        1.50793          14.354         5.46623 
        1.52367         14.1839         5.33816 
        1.53953         13.9102         5.21339 
        1.55526         13.7445         5.09365 
        1.57092         13.6595         4.97823 
        1.58662         13.4357         4.86615 
        1.60235         13.2557         4.75736 
        1.61809         13.1115         4.65188 
        1.63369         12.8652         4.55058 
        1.64941         12.7431         4.45161 
        1.66519         12.5456         4.35526 
        1.68085         12.3624          4.2625 
        1.69652         12.3297         4.17244 
        1.71228         12.1383          4.0845 
        1.72806         11.9246         3.99907 
        1.74368         11.8341         3.91697 
        1.75933         11.7394         3.83703 
        1.77505         11.5216         3.75899 
        1.79081         11.4365           3.683 
         1.8065         11.3793         3.60947 
        1.82218         11.1976         3.53803 
        1.83797         11.0565         3.46807 
        1.85367         10.9438          3.4004 
        1.86928         10.8308         3.33498 
        1.88497         10.7097         3.27093 
        1.90073         10.5685         3.20836 
        1.91647         10.3532          3.1475 
        1.93218         10.3294         3.08836 
        1.94787         10.1632         3.03085 
        1.96363          10.104          2.9746 
        1.97935         10.0683          2.9199 
        1.99499         9.91762         2.86691 
        2.01064         9.80519         2.81518 
         2.0264         9.68738         2.76441 
        2.04216         9.68641         2.71493 
        2.05781         9.55402         2.66699 
        2.07353          9.4356         2.62005 
        2.08928         9.25949         2.57415 
        2.10499         9.21561         2.52949 
        2.12065         9.21432         2.48604 
        2.13633         9.07557         2.44358 
        2.15211         8.97564         2.40185 
        2.16785         8.84343         2.36122 
        2.18349         8.84494          2.3218 
        2.19916         8.71711         2.28321 
        2.21489         8.64331         2.24537 
        2.23063         8.59187         2.20838 
         2.2463         8.46863          2.1724 
        2.26194          8.3878         2.13732 
        2.27765         8.30951         2.10284 
        2.29341         8.18767         2.06905 
        2.30914         8.20521         2.03607 
        2.32486         8.08521         2.00384 
        2.34061         8.02782         1.97226 
        2.35635         7.94425          1.9414 
        2.37203         7.89219         1.91131 
        2.38768         7.82606         1.88193 
        2.40339         7.76345         1.85307 
        2.41914         7.69649         1.82476 
        2.43483         7.63191         1.79714 
         2.4505         7.55787         1.77015 
        2.46622          7.4699         1.74362 
        2.48195         7.46879         1.71765 
        2.49759         7.32997         1.69234 
        2.51328          7.3093         1.66749 
        2.52906         7.22675         1.64299 
        2.54479         7.17201         1.61907 
        2.56049         7.13479         1.59568 
        2.57618         7.07086         1.57278 
        2.59189         7.06901          1.5503 
        2.60758         6.96761          1.5283 
        2.62325         6.88994         1.50676 
        2.63898           6.876         1.48556 
        2.65468         6.79108         1.46482 
        2.67044         6.73571         1.44439 
        2.68618           6.691          1.4244 
        2.70184         6.66743         1.40488 
        2.71755         6.57421         1.38567 
        2.73329         6.53743          1.3668 
        2.74897         6.49863         1.34835 
        2.76462          6.4382         1.33028 
        2.78034         6.39778         1.31247 
        2.79607         6.33376         1.29497 
        2.81179         6.28986         1.27782 
        2.82749         6.22603           1.261 
        2.84321          6.2074         1.24446 
        2.85893         6.16286         1.22824 
        2.87462         6.10379         1.21233 
        2.89033         6.07172         1.19669 
        2.90605         6.02319         1.18131 
        2.92176         5.95835         1.16622 
        2.93747         5.92307          1.1514 
        2.95318         5.86955         1.13684 
        2.96891         5.84656         1.12253 
        2.98456         5.79293         1.10853 
        3.00023         5.77406         1.09475 
        3.01596         5.70361         1.08116 
        3.03164         5.66354         1.06785 
        3.04738         5.64874         1.05472 
         3.0631         5.60905         1.04183 
        3.07883         5.55752         1.02914 
        3.09456         5.49392         1.01668 
        3.11026          5.4795         1.00444 
        3.12596         5.44244        0.992408 
        3.14163         5.40411        0.980602 
        3.15734         5.36954        0.968963 
        3.17308         5.32701        0.957487 
        3.18879         5.30353        0.946229 
        3.20447          5.2582        0.935171 
         3.2202         5.21299        0.924258 
         3.2359         5.18377         0.91354 
        3.25157         5.15682        0.903019 
        3.26729         5.12702        0.892634 
        3.28304         5.08061        0.882393 
        3.29877         5.05364        0.872328 
        3.31446         5.02825        0.862444 
        3.33014          4.9723        0.852724 
        3.34585         4.96534        0.843139 
        3.36158         4.91715         0.83369 
        3.37727         4.89111        0.824416 
        3.39294         4.86031        0.815294 
        3.40867         4.82757        0.806278 
        3.42439         4.76501        0.797404 
        3.44008          4.7537        0.788683 
        3.45578         4.72594        0.780088 
        3.47153         4.69524        0.771603 
        3.48724         4.67165         0.76326 
        3.50292          4.6376        0.755061 
        3.51859         4.60472        0.746988 
        3.53431          4.5743        0.739009 
        3.55007         4.56427        0.731129 
        3.56577         4.50855        0.723395 
        3.58146         4.48963        0.715778 
        3.59719         4.46519        0.708254 
        3.61292         4.44002        0.700842 
        3.62859         4.41789        0.693565 
        3.64429         4.37377        0.686379 
        3.66003         4.36041        0.679274 
        3.67578         4.33502        0.672272 
        3.69146         4.29475        0.665397 
        3.70712         4.27083        0.658632 
        3.72284         4.24719        0.651936 
        3.73853         4.22354        0.645346 
        3.75422         4.19135        0.638846 
        3.76993         4.16895         0.63243 
        3.78564         4.14269        0.626106 
        3.80137         4.11434         0.61986 
        3.81707         4.09508        0.613712 
        3.83279         4.06069        0.607644 
        3.84853         4.04263        0.601648 
        3.86424         4.01538        0.595747 
        3.87992         3.98688        0.589934 
        3.89561         3.95948        0.584199 
        3.91134         3.93855        0.578529 
        3.92704         3.91062        0.572942 
        3.94273         3.88767        0.567435 
        3.95845         3.86426        0.561991 
        3.97418         3.85107        0.556618 
        3.98988         3.82638        0.551323 
        4.00554         3.79725        0.546112 
        4.02125         3.76402        0.540954 
        4.03698         3.75081        0.535856 
        4.05268         3.71979        0.530836 
        4.06839         3.70003        0.525877 
         4.0841         3.68172        0.520983 
        4.09983         3.65007        0.516145 
        4.11555         3.63007        0.511372 
        4.13124         3.60946        0.506672 
        4.14693         3.58622        0.502029 
        4.16266         3.56471        0.497433 
        4.17839         3.54269        0.492898 
        4.19408         3.51982         0.48843 
        4.20977         3.50033        0.484017 
        4.22551         3.47612        0.479648 
        4.24123         3.44908        0.475338 
        4.25691         3.43751        0.471093 
        4.27259         3.41511        0.466899 
        4.28831         3.38422        0.462749 
        4.30404         3.37246        0.458645 
        4.31974         3.35257        0.454601 
        4.33543         3.31922        0.450608 
        4.35116         3.31241        0.446654 
        4.36688         3.28861        0.442749 
        4.38255         3.27059        0.438907 
        4.39825         3.24423        0.435101 
        4.41398         3.23609        0.431334 
         4.4297         3.20877        0.427616 
        4.44541         3.18971        0.423943 
        4.46111         3.16638        0.420316 
        4.47683         3.15308         0.41673 
        4.49251         3.13966        0.413193 
        4.50819         3.11087        0.409698 
         4.5239         3.09502         0.40624 
        4.53962         3.08252        0.402817 
        4.55535         3.05961        0.399432 
        4.57106         3.04076        0.396092 
        4.58678         3.01893        0.392789 
         4.6025         3.00571        0.389524 
        4.61821          3.0008        0.386297 
        4.63391         2.97072        0.383111 
         4.6496         2.96187        0.379962 
        4.66532         2.94142        0.376844 
        4.68103         2.91631        0.373763 
        4.69673         2.90545         0.37072 
        4.71241         2.88771        0.367714 
        4.72811         2.87279        0.364737 
        4.74384         2.86289        0.361789 
        4.75955         2.84411        0.358878 
        4.77525         2.82203        0.356002 
        4.79096         2.80903        0.353154 
        4.80669         2.79821        0.350336 
         4.8224         2.78054        0.347552 
        4.83809         2.76135        0.344802 
        4.85379         2.74858         0.34208 
         4.8695         2.73231        0.339385 
        4.88521         2.72374        0.336721 
        4.90093         2.71318        0.334086 
        4.91663         2.68747        0.331481 
        4.93234         2.68209        0.328902 
        4.94807         2.66742        0.326348 
        4.96377         2.64407        0.323827 
        4.97943         2.63646        0.321338 
        4.99514         2.61141        0.318869 
        5.01086         2.60151        0.316424 
        5.02654            2.59        0.314012 
        5.04227         2.57873        0.311617 
          5.058         2.56917        0.309247 
        5.07371         2.55713        0.306907 
        5.08942         2.54068         0.30459 
        5.10513         2.52186        0.302297 
        5.12084         2.50869        0.300028 
        5.13656         2.49678        0.297782 
        5.15225         2.47854        0.295563 
        5.16796         2.47082        0.293363 
        5.18369         2.45892        0.291184 
         5.1994         2.44585        0.289031 
        5.21509         2.43192        0.286903 
        5.23079         2.42183        0.284793 
        5.24649         2.40876        0.282706 
        5.26217         2.39855        0.280642 
        5.27788         2.38229        0.278596 
        5.29359          2.3736         0.27657 
        5.30933         2.36142        0.274562 
        5.32504         2.34853        0.272577 
        5.34073         2.33267        0.270614 
        5.35646         2.32351        0.268666 
        5.37218         2.31345        0.266738 
        5.38789         2.29693        0.264832 
        5.40357         2.28973        0.262947 
        5.41929         2.28101        0.261076 
        5.43502         2.26837        0.259223 
         5.4507         2.25298        0.257393 
        5.46639          2.2458         0.25558 
        5.48212         2.23372        0.253781 
        5.49786         2.21882        0.251998 
        5.51353         2.21276         0.25024 
        5.52921         2.19526        0.248497 
        5.54495         2.18944        0.246767 
        5.56066         2.17545        0.245054 
        5.57637         2.16362        0.243359 
        5.59207         2.15855        0.241681 
        5.60778         2.14758        0.240018 
        5.62346         2.13154        0.238374 
        5.63916         2.12685        0.236743 
        5.65487         2.11261        0.235127 
         5.6706         2.10618        0.233525 
        5.68633         2.09488        0.231936 
        5.70203         2.08334        0.230366 
        5.71773           2.075        0.228811 
        5.73344          2.0649         0.22727 
        5.74916         2.05844        0.225742 
        5.76486         2.04237         0.22423 
        5.78054         2.03272        0.222734 
        5.79626         2.02791        0.221248 
          5.812         2.01725        0.219774 
         5.8277         2.00663        0.218317 
        5.84339          1.9943        0.216875 
        5.85911         1.98978        0.215442 
        5.87484         1.97569        0.214023 
        5.89053         1.97108         0.21262 
        5.90623         1.96315        0.211228 
        5.92195         1.95036        0.209847 
        5.93767         1.94326        0.208479 
        5.95336         1.93832        0.207126 
        5.96905         1.92472        0.205785 
        5.98476          1.9175        0.204454 
        6.00048         1.90671        0.203135 
        6.01617         1.89623        0.201829 
        6.03185         1.88893        0.200537 
        6.04756         1.88352        0.199253 
        6.06331         1.87473        0.197977 
        6.07903         1.86807        0.196716 
        6.09473         1.85419        0.195466 
        6.11044         1.84817        0.194227 
        6.12616         1.83962        0.192998 
        6.14186         1.83074        0.191782 
        6.15755         1.82484        0.190576 
        6.17326         1.81771         0.18938 
        6.18898         1.80862        0.188193 
        6.20467         1.80355        0.187019 
        6.22036          1.7937        0.185855 
         6.2361         1.78706        0.184698 
         6.2518         1.77986        0.183553 
        6.26748         1.77027         0.18242 
        6.28319          1.7623        0.181294 
        6.29893         1.75323        0.180176 
        6.31463         1.74828         0.17907 
        6.33033         1.73603        0.177973 
        6.34604         1.73335        0.176885 
        6.36177         1.72602        0.175805 
        6.37747         1.71761        0.174736 
