# k  (h/Mpc)    Pcb(k)  (Mpc/h)^3    Pcb_linear(k) (Mpc/h)^3   ShotnoiseSubtracted = true
      0.0200456         85.2607         86.5321 
      0.0350414         65.7861          65.784 
      0.0492313         49.2758          49.075 
      0.0637834         41.8935          41.827 
      0.0800726          33.938         33.9431 
       0.096163         25.0278         24.9541 
       0.111083         20.1419         20.1141 
       0.126058         18.0646         18.0694 
       0.142273         15.5095         15.5147 
       0.158546         12.4052         12.3505 
        0.17375         10.4678         10.4673 
       0.188953         9.55298         9.56254 
       0.204907         8.59708         8.54436 
       0.220756         7.30082         7.27333 
        0.23588         6.37895         6.35358 
         0.2514         5.80387         5.80759 
       0.267535         5.28667         5.29389 
       0.283568         4.70032         4.69433 
       0.299022         4.21181         4.19823 
       0.314451          3.8357         3.85366 
       0.330372         3.54757         3.55507 
       0.346141         3.23732         3.24194 
       0.361624         2.96066         2.95716 
       0.377134         2.73921         2.73064 
       0.392932         2.51102         2.53719 
       0.408854         2.35138         2.34849 
       0.424564         2.16475         2.17201 
       0.440253         2.01613         2.02007 
       0.455999         1.89216         1.88844 
       0.471626         1.77245         1.76717 
        0.48727         1.64892         1.65264 
       0.502856         1.54322         1.54936 
       0.518488         1.46326         1.45721 
       0.534347         1.38229         1.37141 
       0.550082         1.28796         1.29198 
       0.565732         1.20494         1.21895 
       0.581496         1.15139         1.15194 
       0.597222         1.09151         1.09039 
       0.612804         1.03084         1.03361 
       0.628434        0.983729        0.980536 
       0.644267          0.9294        0.930734 
       0.660051        0.881269        0.884779 
       0.675724        0.841371        0.842267 
       0.691403        0.803889        0.802536 
       0.707174        0.763581        0.765167 
       0.722871        0.725481        0.730348 
        0.73838        0.698356         0.69809 
       0.754018        0.669832        0.667556 
       0.769845        0.639748        0.638534 
        0.78569        0.611311        0.611232 
       0.801365        0.584163        0.585816 
       0.817031        0.561245        0.561885 
       0.832809          0.5384        0.539162 
       0.848511        0.515742        0.517819 
       0.864097         0.49401        0.497799 
       0.879701         0.47453        0.478836 
       0.895507         0.46004        0.460653 
       0.911279        0.442248        0.443468 
        0.92691        0.424728        0.427317 
       0.942635        0.410155        0.411895 
       0.958396        0.394219        0.397213 
       0.974128        0.380442        0.383285 
       0.989692         0.36798        0.370173 
        1.00528        0.356302        0.357665 
        1.02113        0.341431        0.345547 
        1.03692         0.33144        0.334045 
        1.05264        0.320502        0.323127 
        1.06832        0.310402        0.312721 
        1.08405        0.299091        0.302753 
        1.09979        0.289429         0.29322 
        1.11537        0.282584        0.284198 
        1.13105        0.273316        0.275508 
        1.14679        0.265987        0.267153 
        1.16256        0.255526        0.259133 
        1.17828        0.248108        0.251474 
        1.19395        0.240353        0.244155 
         1.2097        0.233205        0.237094 
        1.22537        0.228032        0.230351 
          1.241        0.220853        0.223895 
        1.25666        0.215496        0.217673 
        1.27241        0.208639        0.211662 
        1.28819        0.202868        0.205871 
        1.30392        0.197185        0.200317 
        1.31957        0.192128        0.194996 
        1.33529        0.186498        0.189851 
        1.35108        0.181593        0.184874 
        1.36674        0.175701        0.180114 
         1.3824        0.173089        0.175528 
        1.39811        0.167668        0.171088 
        1.41389        0.163446        0.166788 
        1.42964        0.160023        0.162644 
        1.44531        0.154934        0.158664 
        1.46101        0.151584         0.15481 
        1.47667        0.147119        0.151098 
        1.49229        0.144102        0.147519 
        1.50793        0.140168        0.144053 
        1.52367        0.137132        0.140678 
        1.53953        0.134296         0.13739 
        1.55526        0.130998        0.134234 
        1.57092        0.127044        0.131192 
        1.58662        0.124835        0.128239 
        1.60235        0.122355        0.125372 
        1.61809        0.118521        0.122592 
        1.63369        0.116518        0.119922 
        1.64941        0.114145        0.117314 
        1.66519        0.111181        0.114775 
        1.68085         0.10852        0.112331 
        1.69652        0.106041        0.109957 
        1.71228        0.104329         0.10764 
        1.72806        0.101362        0.105388 
        1.74368       0.0996952        0.103225 
        1.75933       0.0975587        0.101118 
        1.77505       0.0953712       0.0990615 
        1.79081       0.0936571        0.097059 
         1.8065        0.091112       0.0951212 
        1.82218       0.0896609       0.0932387 
        1.83797       0.0876635       0.0913948 
        1.85367       0.0859533       0.0896117 
        1.86928       0.0843956       0.0878874 
        1.88497       0.0828248       0.0861997 
        1.90073       0.0810028       0.0845506 
        1.91647       0.0792111       0.0829467 
        1.93218       0.0776426       0.0813883 
        1.94787        0.076052       0.0798728 
        1.96363       0.0748077       0.0783903 
        1.97935       0.0731194        0.076949 
        1.99499       0.0718496       0.0755525 
        2.01064       0.0707497        0.074189 
         2.0264       0.0693459       0.0728511 
        2.04216       0.0679376       0.0715472 
        2.05781       0.0667319       0.0702838 
        2.07353       0.0651275       0.0690469 
        2.08928       0.0641839       0.0678373 
        2.10499       0.0627418       0.0666603 
        2.12065        0.061955       0.0655152 
        2.13633       0.0606193       0.0643962 
        2.15211       0.0598635       0.0632965 
        2.16785       0.0586986       0.0622258 
        2.18349       0.0572419        0.061187 
        2.19916       0.0568206       0.0601699 
        2.21489       0.0558533       0.0591729 
        2.23063       0.0547068        0.058198 
         2.2463       0.0535142       0.0572498 
        2.26194       0.0526499       0.0563253 
        2.27765       0.0517712       0.0554167 
        2.29341       0.0511371       0.0545261 
        2.30914        0.050065        0.053657 
        2.32486       0.0492073       0.0528077 
        2.34061       0.0484619       0.0519755 
        2.35635       0.0475728       0.0511622 
        2.37203       0.0468123       0.0503693 
        2.38768       0.0460054       0.0495951 
        2.40339        0.045241       0.0488345 
        2.41914       0.0446729       0.0480883 
        2.43483       0.0436908       0.0473605 
         2.4505       0.0430408       0.0466491 
        2.46622       0.0424155       0.0459501 
        2.48195       0.0416151       0.0452656 
        2.49759       0.0411207       0.0445988 
        2.51328       0.0405862       0.0439438 
        2.52906        0.039874        0.043298 
        2.54479       0.0392631       0.0426677 
        2.56049       0.0386453       0.0420514 
        2.57618       0.0380348       0.0414479 
        2.59189       0.0374677       0.0408554 
        2.60758       0.0369741       0.0402756 
        2.62325       0.0363525       0.0397079 
        2.63898       0.0357706       0.0391493 
        2.65468       0.0352054       0.0386027 
        2.67044       0.0348208       0.0380644 
        2.68618       0.0342583       0.0375376 
        2.70184       0.0337079        0.037023 
        2.71755       0.0330791        0.036517 
        2.73329       0.0326715       0.0360197 
        2.74897       0.0323238       0.0355333 
        2.76462       0.0317478       0.0350572 
        2.78034       0.0313047       0.0345879 
        2.79607       0.0309342       0.0341268 
        2.81179       0.0304311       0.0336747 
        2.82749       0.0299858       0.0332314 
        2.84321       0.0295918       0.0327957 
        2.85893       0.0291493        0.032368 
        2.87462        0.028834       0.0319487 
        2.89033       0.0284413       0.0315366 
        2.90605       0.0279263       0.0311315 
        2.92176       0.0276814       0.0307337 
        2.93747       0.0272494       0.0303432 
        2.95318       0.0268244       0.0299595 
        2.96891       0.0265447       0.0295823 
        2.98456       0.0262449       0.0292133 
        3.00023       0.0257763       0.0288502 
        3.01596       0.0254081       0.0284922 
        3.03164       0.0252154       0.0281413 
        3.04738       0.0247982       0.0277954 
         3.0631       0.0243834       0.0274555 
        3.07883       0.0241089       0.0271213 
        3.09456       0.0239165       0.0267928 
        3.11026       0.0235535       0.0264703 
        3.12596       0.0233185       0.0261532 
        3.14163       0.0229649       0.0258421 
        3.15734       0.0226969       0.0255353 
        3.17308        0.022378       0.0252329 
        3.18879       0.0221233       0.0249362 
        3.20447        0.021885       0.0246448 
         3.2202       0.0216148       0.0243572 
         3.2359       0.0213655       0.0240747 
        3.25157       0.0210624       0.0237975 
        3.26729       0.0208701       0.0235238 
        3.28304       0.0205533       0.0232539 
        3.29877       0.0203504       0.0229887 
        3.31446       0.0200891       0.0227282 
        3.33014       0.0198262        0.022472 
        3.34585       0.0196063       0.0222195 
        3.36158       0.0193445       0.0219704 
        3.37727       0.0191834        0.021726 
        3.39294       0.0189923       0.0214856 
        3.40867       0.0187972        0.021248 
        3.42439       0.0185805       0.0210142 
        3.44008       0.0183601       0.0207844 
        3.45578       0.0181723       0.0205578 
        3.47153       0.0179448       0.0203342 
        3.48724       0.0178418       0.0201144 
        3.50292       0.0175131       0.0198983 
        3.51859       0.0173361       0.0196856 
        3.53431       0.0172315       0.0194753 
        3.55007       0.0170556       0.0192676 
        3.56577       0.0169084       0.0190638 
        3.58146       0.0166214       0.0188631 
        3.59719       0.0165015       0.0186648 
        3.61292       0.0162886       0.0184695 
        3.62859       0.0161509       0.0182777 
        3.64429       0.0160137       0.0180883 
        3.66003       0.0158541       0.0179011 
        3.67578       0.0157028       0.0177166 
        3.69146       0.0155784       0.0175354 
        3.70712       0.0154337       0.0173571 
        3.72284       0.0152561       0.0171806 
        3.73853       0.0150673        0.017007 
        3.75422       0.0150283       0.0168357 
        3.76993       0.0148202       0.0166666 
        3.78564       0.0147445       0.0164999 
        3.80137       0.0146064       0.0163353 
        3.81707        0.014408       0.0161733 
        3.83279       0.0142858       0.0160134 
        3.84853       0.0141897       0.0158554 
        3.86424       0.0140265       0.0156999 
        3.87992       0.0139231       0.0155467 
        3.89561       0.0138409       0.0153955 
        3.91134        0.013733       0.0152461 
        3.92704       0.0135425       0.0150989 
        3.94273       0.0134785       0.0149537 
        3.95845        0.013328       0.0148103 
        3.97418       0.0132199       0.0146687 
        3.98988       0.0131179       0.0145291 
        4.00554       0.0129533       0.0143918 
        4.02125       0.0128054       0.0142559 
        4.03698       0.0126826       0.0141215 
        4.05268       0.0124938       0.0139892 
        4.06839       0.0122938       0.0138586 
         4.0841        0.012158       0.0137296 
        4.09983       0.0119764       0.0136021 
        4.11555       0.0118303       0.0134763 
        4.13124        0.011684       0.0133525 
        4.14693       0.0115279       0.0132301 
        4.16266        0.011364        0.013109 
        4.17839       0.0112657       0.0129895 
        4.19408       0.0111228       0.0128717 
        4.20977       0.0110084       0.0127554 
        4.22551       0.0108891       0.0126403 
        4.24123       0.0107564       0.0125267 
        4.25691        0.010652       0.0124148 
        4.27259       0.0105512       0.0123043 
        4.28831       0.0104861       0.0121949 
        4.30404       0.0103649       0.0120868 
        4.31974       0.0102502       0.0119802 
        4.33543       0.0101721        0.011875 
        4.35116       0.0100734       0.0117708 
        4.36688      0.00999311       0.0116679 
        4.38255      0.00992873       0.0115666 
        4.39825       0.0098998       0.0114663 
        4.41398      0.00985088       0.0113671 
         4.4297      0.00978482       0.0112691 
        4.44541      0.00970958       0.0111723 
        4.46111      0.00965086       0.0110767 
        4.47683      0.00964194       0.0109822 
        4.49251      0.00956588        0.010889 
        4.50819      0.00954527       0.0107969 
         4.5239      0.00952113       0.0107057 
        4.53962      0.00949171       0.0106155 
        4.55535      0.00946699       0.0105263 
        4.57106      0.00948787       0.0104383 
        4.58678      0.00943545       0.0103513 
         4.6025      0.00944869       0.0102652 
        4.61821      0.00945813       0.0101802 
        4.63391      0.00944097       0.0100962 
         4.6496      0.00945106       0.0100132 
        4.66532      0.00944812      0.00993107 
        4.68103      0.00947706      0.00984987 
        4.69673      0.00946902      0.00976967 
        4.71241      0.00952586      0.00969045 
        4.72811      0.00951089      0.00961199 
        4.74384      0.00957168      0.00953431 
        4.75955      0.00957456      0.00945761 
        4.77525      0.00963319       0.0093818 
        4.79096      0.00968477      0.00930675 
        4.80669      0.00968979      0.00923248 
         4.8224        0.009765      0.00915912 
        4.83809      0.00979341      0.00908664 
        4.85379      0.00988777      0.00901491 
         4.8695      0.00994827       0.0089439 
        4.88521       0.0100174       0.0088737 
        4.90093       0.0100789      0.00880424 
        4.91663       0.0102065       0.0087356 
        4.93234       0.0102481      0.00866762 
        4.94807       0.0103291      0.00860033 
        4.96377       0.0103998      0.00853389 
        4.97943       0.0104966       0.0084683 
        4.99514       0.0106265      0.00840323 
        5.01086       0.0107266      0.00833881 
        5.02654       0.0108456      0.00827523 
        5.04227       0.0109732      0.00821213 
          5.058       0.0110885      0.00814967 
        5.07371       0.0112066      0.00808798 
        5.08942       0.0113815      0.00802694 
        5.10513       0.0114484      0.00796652 
        5.12084       0.0116043       0.0079067 
        5.13656       0.0117643      0.00784751 
        5.15225       0.0118644      0.00778904 
        5.16796       0.0120791      0.00773107 
        5.18369       0.0122569      0.00767364 
         5.1994       0.0124004      0.00761691 
        5.21509       0.0126551      0.00756081 
        5.23079        0.012729      0.00750522 
        5.24649       0.0129859      0.00745023 
        5.26217         0.01317      0.00739583 
        5.27788       0.0134019      0.00734191 
        5.29359       0.0135581      0.00728852 
        5.30933       0.0138764      0.00723559 
        5.32504       0.0139959      0.00718328 
        5.34073       0.0143135      0.00713155 
        5.35646       0.0144913      0.00708023 
        5.37218       0.0147385      0.00702941 
        5.38789       0.0150052      0.00697918 
        5.40357        0.015204       0.0069295 
        5.41929       0.0154645      0.00688019 
        5.43502       0.0157796      0.00683137 
         5.4507       0.0161112      0.00678314 
        5.46639       0.0164477      0.00673537 
        5.48212       0.0165493      0.00668796 
        5.49786       0.0169661      0.00664095 
        5.51353       0.0173292      0.00659463 
        5.52921       0.0176568      0.00654871 
        5.54495       0.0180234       0.0065031 
        5.56066       0.0183225      0.00645797 
        5.57637       0.0187127      0.00641329 
        5.59207       0.0189839      0.00636907 
        5.60778       0.0194033      0.00632525 
        5.62346       0.0198595      0.00628192 
        5.63916       0.0202065      0.00623895 
        5.65487       0.0206596      0.00619636 
         5.6706       0.0209265      0.00615413 
        5.68633       0.0214836      0.00611227 
        5.70203       0.0219346       0.0060709 
        5.71773       0.0224437      0.00602992 
        5.73344       0.0228366       0.0059893 
        5.74916       0.0234114      0.00594903 
        5.76486       0.0238727      0.00590918 
        5.78054       0.0243725      0.00586976 
        5.79626       0.0247523      0.00583059 
          5.812        0.025482      0.00579174 
         5.8277       0.0259244      0.00575337 
        5.84339       0.0265157      0.00571535 
        5.85911       0.0272797       0.0056776 
        5.87484       0.0278423       0.0056402 
        5.89053       0.0284258      0.00560321 
        5.90623       0.0292458      0.00556655 
        5.92195       0.0298966      0.00553015 
        5.93767       0.0304864       0.0054941 
        5.95336       0.0311342      0.00545843 
        5.96905       0.0320797       0.0054231 
        5.98476       0.0324949      0.00538803 
        6.00048       0.0332891      0.00535327 
        6.01617       0.0341393      0.00531886 
        6.03185       0.0348769       0.0052848 
        6.04756       0.0358667      0.00525096 
        6.06331       0.0364894      0.00521734 
        6.07903       0.0376596      0.00518409 
        6.09473       0.0382424      0.00515117 
        6.11044       0.0395223       0.0051185 
        6.12616       0.0405649      0.00508613 
        6.14186       0.0411464      0.00505407 
        6.15755        0.042256      0.00502229 
        6.17326       0.0431387      0.00499077 
        6.18898        0.044626       0.0049595 
        6.20467        0.045795      0.00492856 
        6.22036       0.0468448      0.00489789 
         6.2361       0.0480225      0.00486739 
         6.2518       0.0493125      0.00483721 
        6.26748       0.0500517      0.00480736 
        6.28319       0.0517826      0.00477767 
        6.29893       0.0529957      0.00474822 
        6.31463       0.0545463      0.00471906 
        6.33033       0.0558117      0.00469016 
        6.34604       0.0573033      0.00466149 
        6.36177       0.0589539      0.00463303 
        6.37747       0.0602945      0.00460486 
