# k  (h/Mpc)    Pcb(k)  (Mpc/h)^3    Pcb_linear(k) (Mpc/h)^3   ShotnoiseSubtracted = true
      0.0200456         929.311         942.602 
      0.0350414         723.822         716.591 
      0.0492313         536.146         534.579 
      0.0637834         450.914         455.626 
      0.0800726         364.949         369.746 
       0.096163         275.539         271.827 
       0.111083         223.475         219.105 
       0.126058         195.576         196.832 
       0.142273         167.467         169.003 
       0.158546         135.372         134.535 
        0.17375         116.078         114.021 
       0.188953         105.109         104.166 
       0.204907         91.5452         93.0745 
       0.220756         79.9788         79.2291 
        0.23588         70.0201         69.2101 
         0.2514         63.9204         63.2626 
       0.267535         58.8037         57.6669 
       0.283568         52.0514         51.1358 
       0.299022         47.0325         45.7318 
       0.314451         44.0236         41.9783 
       0.330372         39.9567         38.7257 
       0.346141         36.5483         35.3147 
       0.361624         33.3901         32.2126 
       0.377134          30.686         29.7451 
       0.392932         29.5214         27.6379 
       0.408854         26.7886         25.5823 
       0.424564         25.4841         23.6599 
       0.440253         23.3634         22.0048 
       0.455999         21.4801         20.5709 
       0.471626         20.2326           19.25 
        0.48727         19.5039         18.0023 
       0.502856         18.2911         16.8773 
       0.518488         16.9396         15.8736 
       0.534347          15.891         14.9389 
       0.550082          15.275         14.0736 
       0.565732         14.6354         13.2781 
       0.581496         13.7991         12.5482 
       0.597222         13.0135         11.8777 
       0.612804         12.3178         11.2592 
       0.628434         11.9158         10.6811 
       0.644267         11.3397         10.1386 
       0.660051           10.77         9.63798 
       0.675724         10.1975         9.17489 
       0.691403         9.86298          8.7421 
       0.707174         9.41035         8.33503 
       0.722871         9.19004         7.95575 
        0.73838         8.60095         7.60436 
       0.754018         8.23928         7.27175 
       0.769845         7.85315         6.95561 
        0.78569         7.65828          6.6582 
       0.801365          7.3425         6.38135 
       0.817031         7.11138         6.12067 
       0.832809          6.7561         5.87314 
       0.848511         6.58475         5.64065 
       0.864097         6.35063         5.42257 
       0.879701         6.18997           5.216 
       0.895507          5.9333         5.01794 
       0.911279         5.73165         4.83074 
        0.92691         5.57478         4.65481 
       0.942635         5.34823         4.48681 
       0.958396         5.17478         4.32688 
       0.974128         5.04849         4.17516 
       0.989692         4.83344         4.03233 
        1.00528         4.73729         3.89608 
        1.02113          4.6051         3.76408 
        1.03692         4.48301         3.63878 
        1.05264         4.30379         3.51985 
        1.06832          4.2034          3.4065 
        1.08405         4.08422         3.29791 
        1.09979          3.9916         3.19407 
        1.11537         3.87282          3.0958 
        1.13105         3.74725         3.00113 
        1.14679         3.65769         2.91012 
        1.16256         3.54259         2.82276 
        1.17828         3.50124         2.73933 
        1.19395         3.37417          2.6596 
         1.2097         3.28641         2.58269 
        1.22537         3.18483         2.50924 
          1.241         3.12365         2.43891 
        1.25666         3.07951         2.37113 
        1.27241         3.00786         2.30566 
        1.28819          2.8938         2.24258 
        1.30392         2.83019         2.18207 
        1.31957          2.7901         2.12411 
        1.33529         2.68518         2.06806 
        1.35108         2.63914         2.01385 
        1.36674         2.57176         1.96199 
         1.3824         2.54153         1.91204 
        1.39811          2.4708         1.86368 
        1.41389         2.41628         1.81683 
        1.42964         2.36626          1.7717 
        1.44531         2.33035         1.72834 
        1.46101         2.26743         1.68636 
        1.47667         2.23159         1.64592 
        1.49229         2.15655         1.60693 
        1.50793         2.11013         1.56918 
        1.52367         2.07069         1.53242 
        1.53953         2.02497          1.4966 
        1.55526         2.01838         1.46223 
        1.57092         1.97449         1.42909 
        1.58662         1.95067         1.39692 
        1.60235         1.88331         1.36569 
        1.61809         1.85796         1.33541 
        1.63369         1.81389         1.30633 
        1.64941         1.78623         1.27792 
        1.66519          1.7618         1.25026 
        1.68085         1.71775         1.22363 
        1.69652         1.68912         1.19777 
        1.71228         1.65321         1.17253 
        1.72806         1.62944         1.14801 
        1.74368         1.60397         1.12444 
        1.75933          1.5784         1.10149 
        1.77505         1.55283         1.07909 
        1.79081         1.51252         1.05727 
         1.8065         1.49944         1.03616 
        1.82218         1.46446         1.01566 
        1.83797         1.43903        0.995573 
        1.85367         1.42002        0.976149 
        1.86928         1.39671        0.957366 
        1.88497         1.36872        0.938982 
        1.90073          1.3587        0.921018 
        1.91647         1.32318        0.903546 
        1.93218         1.30732        0.886571 
        1.94787         1.28547        0.870062 
        1.96363         1.27047        0.853913 
        1.97935         1.24579        0.838212 
        1.99499         1.22921           0.823 
        2.01064         1.21084        0.808148 
         2.0264         1.18601        0.793574 
        2.04216           1.175         0.77937 
        2.05781         1.15495        0.765608 
        2.07353         1.14158        0.752134 
        2.08928         1.12121        0.738958 
        2.10499         1.10484        0.726137 
        2.12065         1.08814        0.713663 
        2.13633         1.07449        0.701474 
        2.15211         1.05335        0.689495 
        2.16785         1.04378        0.677832 
        2.18349         1.02773        0.666516 
        2.19916         1.01617        0.655437 
        2.21489         1.00029        0.644576 
        2.23063        0.981978        0.633957 
         2.2463        0.971595        0.623628 
        2.26194        0.959716        0.613557 
        2.27765          0.9452         0.60366 
        2.29341        0.933152        0.593958 
        2.30914        0.915893        0.584491 
        2.32486        0.907551        0.575239 
        2.34061        0.894876        0.566174 
        2.35635         0.88356        0.557315 
        2.37203        0.873855        0.548678 
        2.38768        0.862299        0.540244 
        2.40339        0.853641        0.531959 
        2.41914        0.841771         0.52383 
        2.43483        0.829991        0.515902 
         2.4505        0.820427        0.508153 
        2.46622        0.810107        0.500539 
        2.48195        0.797209        0.493082 
        2.49759        0.792295        0.485818 
        2.51328        0.779333        0.478684 
        2.52906        0.769705        0.471649 
        2.54479        0.759243        0.464784 
        2.56049        0.751938         0.45807 
        2.57618         0.74351        0.451496 
        2.59189        0.733317        0.445042 
        2.60758        0.728294        0.438726 
        2.62325        0.717456        0.432542 
        2.63898        0.711779        0.426457 
        2.65468        0.699662        0.420503 
        2.67044        0.693699        0.414639 
        2.68618        0.687266        0.408901 
        2.70184        0.676735        0.403296 
        2.71755        0.669081        0.397783 
        2.73329        0.666231        0.392366 
        2.74897        0.654692        0.387068 
        2.76462        0.647695        0.381881 
        2.78034        0.641209        0.376769 
        2.79607        0.635493        0.371746 
        2.81179        0.626672        0.366822 
        2.82749        0.621541        0.361993 
        2.84321         0.61432        0.357246 
        2.85893        0.606559        0.352587 
        2.87462        0.600278         0.34802 
        2.89033        0.598128        0.343531 
        2.90605         0.59039        0.339118 
        2.92176        0.585917        0.334785 
        2.93747        0.577353        0.330532 
        2.95318        0.572016        0.326352 
        2.96891        0.567963        0.322243 
        2.98456        0.559985        0.318224 
        3.00023        0.555823        0.314268 
        3.01596        0.550581        0.310368 
        3.03164        0.545057        0.306546 
        3.04738        0.539769        0.302778 
         3.0631        0.534676        0.299075 
        3.07883        0.529712        0.295435 
        3.09456        0.526237        0.291856 
        3.11026        0.519461        0.288343 
        3.12596        0.513924        0.284889 
        3.14163        0.511801          0.2815 
        3.15734        0.506357        0.278159 
        3.17308        0.501905        0.274864 
        3.18879        0.498024        0.271632 
        3.20447        0.491497        0.268458 
         3.2202         0.48777        0.265325 
         3.2359         0.48384        0.262248 
        3.25157        0.476424        0.259228 
        3.26729        0.476571        0.256247 
        3.28304        0.471222        0.253307 
        3.29877        0.467492        0.250418 
        3.31446         0.46475         0.24758 
        3.33014        0.459232         0.24479 
        3.34585        0.455187        0.242039 
        3.36158        0.452555        0.239326 
        3.37727        0.449231        0.236664 
        3.39294        0.446022        0.234045 
        3.40867        0.440189        0.231457 
        3.42439        0.438433         0.22891 
        3.44008        0.434464        0.226406 
        3.45578        0.429989        0.223938 
        3.47153        0.427677        0.221503 
        3.48724        0.424944        0.219108 
        3.50292        0.421004        0.216754 
        3.51859        0.418286        0.214437 
        3.53431        0.414689        0.212146 
        3.55007         0.41165        0.209884 
        3.56577        0.408657        0.207664 
        3.58146        0.405677        0.205477 
        3.59719        0.402264        0.203317 
        3.61292        0.399514         0.20119 
        3.62859        0.396941        0.199101 
        3.64429        0.393764        0.197038 
        3.66003        0.390413        0.194998 
        3.67578        0.388456        0.192988 
        3.69146         0.38431        0.191014 
        3.70712        0.383201        0.189072 
        3.72284        0.381905         0.18715 
        3.73853        0.378286        0.185258 
        3.75422        0.374964        0.183392 
        3.76993        0.372002        0.181551 
        3.78564        0.369057        0.179735 
        3.80137        0.366587        0.177942 
        3.81707        0.365166        0.176177 
        3.83279        0.362148        0.174435 
        3.84853        0.359451        0.172714 
        3.86424        0.357473         0.17102 
        3.87992        0.354218        0.169351 
        3.89561        0.352398        0.167705 
        3.91134        0.349431        0.166077 
        3.92704        0.347152        0.164473 
        3.94273        0.345518        0.162893 
        3.95845        0.342746         0.16133 
        3.97418        0.340849        0.159787 
        3.98988        0.337485        0.158267 
        4.00554        0.334882        0.156771 
        4.02125        0.331714        0.155291 
        4.03698         0.32836        0.153827 
        4.05268        0.325218        0.152386 
        4.06839        0.322835        0.150963 
         4.0841         0.31942        0.149558 
        4.09983        0.316574        0.148169 
        4.11555        0.313472        0.146799 
        4.13124        0.310721         0.14545 
        4.14693        0.307923        0.144116 
        4.16266        0.304538        0.142797 
        4.17839        0.301788        0.141495 
        4.19408        0.299255        0.140213 
        4.20977        0.297762        0.138946 
        4.22551        0.294745        0.137692 
        4.24123        0.291701        0.136454 
        4.25691        0.290335        0.135236 
        4.27259        0.288052        0.134032 
        4.28831         0.28617        0.132841 
        4.30404        0.282947        0.131663 
        4.31974        0.281342        0.130502 
        4.33543        0.279361        0.129355 
        4.35116        0.277705         0.12822 
        4.36688        0.275758        0.127099 
        4.38255        0.273168        0.125996 
        4.39825        0.272394        0.124904 
        4.41398        0.270545        0.123822 
         4.4297        0.269194        0.122755 
        4.44541        0.266705        0.121701 
        4.46111        0.265792         0.12066 
        4.47683        0.264799         0.11963 
        4.49251        0.262614        0.118615 
        4.50819         0.26176        0.117611 
         4.5239        0.260505        0.116619 
        4.53962        0.258673        0.115636 
        4.55535        0.257974        0.114664 
        4.57106         0.25725        0.113705 
        4.58678        0.254985        0.112757 
         4.6025        0.254722         0.11182 
        4.61821        0.253881        0.110894 
        4.63391        0.252764        0.109979 
         4.6496        0.251907        0.109075 
        4.66532        0.251001         0.10818 
        4.68103        0.250278        0.107296 
        4.69673        0.249702        0.106422 
        4.71241        0.249026        0.105559 
        4.72811         0.24872        0.104704 
        4.74384        0.247964        0.103858 
        4.75955        0.246961        0.103023 
        4.77525        0.246771        0.102197 
        4.79096        0.246243        0.101379 
        4.80669        0.245456         0.10057 
         4.8224        0.245578       0.0997712 
        4.83809        0.245164       0.0989816 
        4.85379        0.244667       0.0982002 
         4.8695        0.245185       0.0974267 
        4.88521        0.244454        0.096662 
        4.90093        0.244862       0.0959054 
        4.91663        0.243921       0.0951577 
        4.93234        0.244062       0.0944172 
        4.94807        0.243982       0.0936843 
        4.96377        0.244867       0.0929605 
        4.97943        0.244999        0.092246 
        4.99514        0.243523       0.0915372 
        5.01086        0.244763       0.0908354 
        5.02654         0.24488       0.0901428 
        5.04227        0.245368       0.0894555 
          5.058        0.246155       0.0887751 
        5.07371        0.245905       0.0881032 
        5.08942        0.246911       0.0874382 
        5.10513        0.247052         0.08678 
        5.12084         0.24731       0.0861284 
        5.13656         0.24779       0.0854837 
        5.15225        0.248643       0.0848467 
        5.16796         0.24943       0.0842153 
        5.18369        0.250194       0.0835897 
         5.1994        0.250833       0.0829718 
        5.21509         0.25118       0.0823606 
        5.23079        0.251691        0.081755 
        5.24649        0.252399        0.081156 
        5.26217        0.253885       0.0805635 
        5.27788        0.254391       0.0799761 
        5.29359        0.255636       0.0793946 
        5.30933        0.256216        0.078818 
        5.32504        0.257415       0.0782482 
        5.34073        0.258504       0.0776847 
        5.35646        0.259982       0.0771256 
        5.37218        0.261337        0.076572 
        5.38789        0.261373       0.0760248 
        5.40357        0.262964       0.0754836 
        5.41929        0.263384       0.0749466 
        5.43502        0.265814       0.0744147 
         5.4507        0.267014       0.0738894 
        5.46639         0.26826       0.0733691 
        5.48212        0.269199       0.0728526 
        5.49786        0.270542       0.0723405 
        5.51353        0.273641        0.071836 
        5.52921        0.273547       0.0713357 
        5.54495        0.275264       0.0708389 
        5.56066         0.27736       0.0703473 
        5.57637        0.278616       0.0698606 
        5.59207        0.279744       0.0693789 
        5.60778        0.282157       0.0689016 
        5.62346        0.283973       0.0684295 
        5.63916        0.285189       0.0679614 
        5.65487        0.287172       0.0674975 
         5.6706        0.287791       0.0670375 
        5.68633        0.290916       0.0665816 
        5.70203        0.293343       0.0661309 
        5.71773        0.294655       0.0656845 
        5.73344        0.296717       0.0652421 
        5.74916         0.29783       0.0648033 
        5.76486        0.301062       0.0643692 
        5.78054        0.301503       0.0639398 
        5.79626        0.303586       0.0635132 
          5.812        0.306907         0.06309 
         5.8277        0.308068        0.062672 
        5.84339         0.30997       0.0622578 
        5.85911        0.312909       0.0618466 
        5.87484        0.314473       0.0614392 
        5.89053        0.316894       0.0610363 
        5.90623        0.318281       0.0606369 
        5.92195        0.320633       0.0602404 
        5.93767        0.321921       0.0598477 
        5.95336         0.32462       0.0594592 
        5.96905        0.327178       0.0590743 
        5.98476         0.32917       0.0586924 
        6.00048         0.33139       0.0583137 
        6.01617        0.334412       0.0579388 
        6.03185        0.336038       0.0575678 
        6.04756        0.337429       0.0571992 
        6.06331         0.33981        0.056833 
        6.07903        0.343335       0.0564708 
        6.09473        0.344914       0.0561122 
        6.11044        0.347389       0.0557564 
        6.12616        0.349456       0.0554037 
        6.14186        0.352034       0.0550545 
        6.15755        0.354614       0.0547083 
        6.17326        0.356786       0.0543649 
        6.18898         0.35824       0.0540243 
        6.20467        0.358241       0.0536872 
        6.22036         0.36461       0.0533531 
         6.2361        0.363971        0.053021 
         6.2518        0.367182       0.0526922 
        6.26748        0.369067        0.052367 
        6.28319        0.372767       0.0520437 
        6.29893        0.374395       0.0517228 
        6.31463         0.37572       0.0514052 
        6.33033        0.379429       0.0510904 
        6.34604        0.381664        0.050778 
        6.36177        0.381897        0.050468 
        6.37747        0.384826       0.0501612 
