# k  (h/Mpc)    Pcb(k)  (Mpc/h)^3    Pcb_linear(k) (Mpc/h)^3   ShotnoiseSubtracted = true
      0.0200456         8458.13          8629.1 
      0.0350414         6380.75         6560.07 
      0.0492313         4853.84         4893.83 
      0.0637834         4229.19         4171.05 
      0.0800726         3416.31         3384.86 
       0.096163         2428.78         2488.45 
       0.111083         1944.64         2005.81 
       0.126058         1810.68         1801.91 
       0.142273         1576.16         1547.14 
       0.158546         1313.39         1231.61 
        0.17375         1064.76         1043.81 
       0.188953         1027.17          953.59 
       0.204907         970.631         852.055 
       0.220756         824.723         725.306 
        0.23588         726.732         633.587 
         0.2514          640.47         579.141 
       0.267535         620.967         527.914 
       0.283568          565.47         468.125 
       0.299022         525.545         418.653 
       0.314451          491.24         384.292 
       0.330372         455.321         354.516 
       0.346141         413.624          323.29 
       0.361624          396.79         294.892 
       0.377134         372.141         272.303 
       0.392932         349.576         253.012 
       0.408854         336.202         234.194 
       0.424564         322.072         216.596 
       0.440253         308.234         201.444 
       0.455999         291.093         188.317 
       0.471626         270.003         176.225 
        0.48727         264.066         164.803 
       0.502856          254.61         154.504 
       0.518488         250.725         145.315 
       0.534347         237.509         136.759 
       0.550082         222.517         128.838 
       0.565732         218.279         121.555 
       0.581496         208.214         114.873 
       0.597222         202.643         108.735 
       0.612804         194.617         103.073 
       0.628434         189.643         97.7804 
       0.644267         183.428          92.814 
       0.660051         181.018         88.2314 
       0.675724         176.949          83.992 
       0.691403         171.814           80.03 
       0.707174         164.563         76.3034 
       0.722871         163.146         72.8313 
        0.73838         160.009         69.6145 
       0.754018         154.125         66.5696 
       0.769845         150.946         63.6755 
        0.78569         147.972         60.9528 
       0.801365         144.325         58.4184 
       0.817031         139.346         56.0319 
       0.832809         137.444         53.7659 
       0.848511         133.988         51.6376 
       0.864097         130.742         49.6411 
       0.879701         129.001         47.7501 
       0.895507         125.794         45.9369 
       0.911279         124.351         44.2232 
        0.92691         121.792         42.6127 
       0.942635         119.238         41.0747 
       0.958396         118.793         39.6106 
       0.974128         115.514         38.2217 
       0.989692         112.699         36.9142 
        1.00528         110.696         35.6669 
        1.02113         109.503         34.4585 
        1.03692         105.938         33.3114 
        1.05264         105.714         32.2226 
        1.06832         103.125         31.1849 
        1.08405         101.924         30.1909 
        1.09979         101.191         29.2403 
        1.11537         97.8148         28.3406 
        1.13105         98.0654          27.474 
        1.14679         96.6491         26.6408 
        1.16256         95.1605         25.8411 
        1.17828         92.6097         25.0773 
        1.19395         92.1048         24.3475 
         1.2097         89.5946         23.6434 
        1.22537         89.8659         22.9709 
          1.241         87.6974         22.3271 
        1.25666          86.128         21.7066 
        1.27241         85.3405         21.1072 
        1.28819         83.9413         20.5298 
        1.30392         82.6685         19.9759 
        1.31957         81.7958         19.4452 
        1.33529         80.5635         18.9322 
        1.35108         80.0388         18.4359 
        1.36674         79.0083         17.9612 
         1.3824         77.4913         17.5038 
        1.39811         76.9452         17.0612 
        1.41389          75.725         16.6323 
        1.42964         74.8663         16.2191 
        1.44531         73.6061         15.8222 
        1.46101         72.5265         15.4379 
        1.47667         72.3237         15.0677 
        1.49229         71.1705         14.7107 
        1.50793         70.4108         14.3651 
        1.52367         69.4248         14.0286 
        1.53953         68.7398         13.7007 
        1.55526         67.8968          13.386 
        1.57092         67.6181         13.0827 
        1.58662         66.4723         12.7882 
        1.60235         65.8813         12.5022 
        1.61809         64.9033          12.225 
        1.63369         63.8225         11.9588 
        1.64941         63.2146         11.6987 
        1.66519         62.3169         11.4455 
        1.68085         61.7411         11.2018 
        1.69652         60.9539         10.9651 
        1.71228         60.5189          10.734 
        1.72806         60.0826         10.5095 
        1.74368         59.1887         10.2937 
        1.75933         58.6394         10.0836 
        1.77505          58.026         9.87854 
        1.79081         57.2602         9.67886 
         1.8065         56.7544         9.48561 
        1.82218          55.974         9.29789 
        1.83797         55.4379         9.11402 
        1.85367         54.6062          8.9362 
        1.86928         54.2688         8.76425 
        1.88497         53.7023         8.59595 
        1.90073         53.2226          8.4315 
        1.91647         52.6679         8.27156 
        1.93218         51.8605         8.11615 
        1.94787         51.5779         7.96502 
        1.96363         50.8855         7.81719 
        1.97935         50.3955         7.67345 
        1.99499         49.7448         7.53419 
        2.01064         49.5118         7.39823 
         2.0264         48.6502         7.26481 
        2.04216          48.114         7.13478 
        2.05781         47.5755          7.0088 
        2.07353          47.089         6.88545 
        2.08928          46.806         6.76483 
        2.10499         46.3085         6.64746 
        2.12065         45.8329         6.53326 
        2.13633         45.6495         6.42168 
        2.15211         44.8626         6.31201 
        2.16785         44.1838         6.20525 
        2.18349         43.9529         6.10165 
        2.19916         43.6257         6.00023 
        2.21489         42.9308          5.9008 
        2.23063          42.597         5.80359 
         2.2463         42.1315         5.70903 
        2.26194         41.6578         5.61684 
        2.27765          41.241         5.52623 
        2.29341         40.8713         5.43741 
        2.30914         40.5273         5.35075 
        2.32486          39.975         5.26605 
        2.34061         39.7118         5.18307 
        2.35635         39.3071         5.10196 
        2.37203         38.9676          5.0229 
        2.38768         38.5263         4.94569 
        2.40339         38.3243         4.86984 
        2.41914          37.954         4.79543 
        2.43483         37.3276         4.72285 
         2.4505         37.0678         4.65191 
        2.46622         36.8037         4.58221 
        2.48195         36.4536         4.51394 
        2.49759         36.0073         4.44745 
        2.51328         35.5913         4.38213 
        2.52906         35.4371         4.31773 
        2.54479          34.978         4.25488 
        2.56049         34.6073         4.19342 
        2.57618         34.1895         4.13324 
        2.59189         34.0072         4.07416 
        2.60758         33.7998         4.01634 
        2.62325         33.2502         3.95973 
        2.63898         33.1243         3.90402 
        2.65468         32.6204         3.84952 
        2.67044         32.4241         3.79583 
        2.68618         32.0591          3.7433 
        2.70184         31.7768         3.69199 
        2.71755         31.5994         3.64152 
        2.73329         31.2396         3.59193 
        2.74897         30.8817         3.54343 
        2.76462          30.638         3.49595 
        2.78034         30.4208         3.44915 
        2.79607         30.0534         3.40317 
        2.81179         29.8804         3.35809 
        2.82749         29.5486         3.31388 
        2.84321         29.1855         3.27043 
        2.85893         28.9426         3.22778 
        2.87462         28.6753         3.18597 
        2.89033         28.5049         3.14487 
        2.90605         28.2793         3.10447 
        2.92176         28.0043         3.06481 
        2.93747         27.7412         3.02587 
        2.95318         27.3415          2.9876 
        2.96891         27.2165         2.94999 
        2.98456         26.8099         2.91319 
        3.00023         26.6986         2.87698 
        3.01596         26.4197         2.84128 
        3.03164         26.1282         2.80629 
        3.04738         25.9584          2.7718 
         3.0631          25.717          2.7379 
        3.07883         25.4789         2.70457 
        3.09456         25.2586         2.67181 
        3.11026         25.0379         2.63965 
        3.12596         24.7962         2.60803 
        3.14163          24.692           2.577 
        3.15734          24.391         2.54642 
        3.17308         24.2019         2.51626 
        3.18879          23.946         2.48667 
        3.20447         23.7233         2.45761 
         3.2202         23.5013         2.42893 
         3.2359         23.2856         2.40076 
        3.25157         23.2261         2.37312 
        3.26729         23.0244         2.34582 
        3.28304         22.7324         2.31891 
        3.29877         22.3988         2.29246 
        3.31446         22.3358         2.26649 
        3.33014         22.1215         2.24094 
        3.34585         21.8079         2.21575 
        3.36158         21.7678         2.19092 
        3.37727         21.4851         2.16655 
        3.39294         21.2575         2.14258 
        3.40867         21.1345         2.11888 
        3.42439         20.9063         2.09556 
        3.44008         20.6866         2.07264 
        3.45578         20.5513         2.05006 
        3.47153          20.394         2.02776 
        3.48724         20.2082         2.00583 
        3.50292         20.0464         1.98429 
        3.51859         19.8557         1.96307 
        3.53431         19.6708          1.9421 
        3.55007         19.5199         1.92139 
        3.56577         19.3578         1.90107 
        3.58146         19.2041         1.88105 
        3.59719         18.9959         1.86128 
        3.61292         18.8475          1.8418 
        3.62859         18.6513         1.82268 
        3.64429         18.5087         1.80379 
        3.66003         18.3671         1.78512 
        3.67578         18.2443         1.76672 
        3.69146         18.0352         1.74865 
        3.70712         17.8996         1.73087 
        3.72284         17.8024         1.71327 
        3.73853          17.664         1.69596 
        3.75422         17.4004         1.67887 
        3.76993         17.2884         1.66201 
        3.78564         17.1434          1.6454 
        3.80137         16.9944         1.62898 
        3.81707         16.8587         1.61282 
        3.83279         16.6534         1.59688 
        3.84853         16.5907         1.58112 
        3.86424         16.4037         1.56561 
        3.87992          16.278         1.55033 
        3.89561         16.1821         1.53526 
        3.91134         16.0377         1.52036 
        3.92704         15.8537         1.50568 
        3.94273          15.765         1.49121 
        3.95845         15.6381          1.4769 
        3.97418         15.5282         1.46278 
        3.98988         15.3737         1.44887 
        4.00554         15.2164         1.43517 
        4.02125         15.0551         1.42162 
        4.03698         15.0248         1.40822 
        4.05268         14.8623         1.39503 
        4.06839         14.7551         1.38199 
         4.0841         14.6387         1.36913 
        4.09983         14.4922         1.35642 
        4.11555          14.369         1.34388 
        4.13124          14.235         1.33153 
        4.14693         14.1643         1.31932 
        4.16266         14.0561         1.30724 
        4.17839         13.9142         1.29533 
        4.19408         13.8174         1.28359 
        4.20977         13.6915         1.27199 
        4.22551         13.6082         1.26051 
        4.24123         13.4889         1.24918 
        4.25691         13.3507         1.23802 
        4.27259          13.276           1.227 
        4.28831          13.144         1.21609 
        4.30404          13.036         1.20531 
        4.31974          12.937         1.19468 
        4.33543          12.836         1.18419 
        4.35116         12.7262          1.1738 
        4.36688         12.6032         1.16354 
        4.38255         12.5586         1.15344 
        4.39825         12.4608         1.14344 
        4.41398         12.3398         1.13354 
         4.4297         12.2266         1.12377 
        4.44541         12.1153         1.11411 
        4.46111         12.0452         1.10458 
        4.47683         11.9659         1.09516 
        4.49251         11.8658         1.08586 
        4.50819         11.7769         1.07668 
         4.5239         11.6973         1.06759 
        4.53962         11.6021         1.05859 
        4.55535         11.4803          1.0497 
        4.57106         11.3932         1.04092 
        4.58678         11.2923         1.03224 
         4.6025         11.2264         1.02366 
        4.61821         11.1412         1.01518 
        4.63391         11.0441         1.00681 
         4.6496         10.9802        0.998532 
        4.66532         10.8716        0.990339 
        4.68103         10.7938        0.982243 
        4.69673         10.7084        0.974245 
        4.71241          10.618        0.966345 
        4.72811         10.5564        0.958521 
        4.74384         10.4704        0.950774 
        4.75955          10.398        0.943125 
        4.77525          10.318        0.935566 
        4.79096         10.2603        0.928081 
        4.80669         10.1833        0.920675 
         4.8224         10.1177         0.91336 
        4.83809         10.0158        0.906132 
        4.85379         9.91734        0.898979 
         4.8695         9.88157        0.891898 
        4.88521         9.78945        0.884897 
        4.90093         9.73715        0.877971 
        4.91663          9.6422        0.871126 
        4.93234         9.58106        0.864347 
        4.94807         9.49443        0.857637 
        4.96377         9.44015        0.851011 
        4.97943          9.3726         0.84447 
        4.99514         9.31083        0.837981 
        5.01086         9.22573        0.831557 
        5.02654         9.13763        0.825217 
        5.04227         9.11387        0.818924 
          5.058         9.03147        0.812696 
        5.07371         8.98905        0.806545 
        5.08942         8.89902        0.800457 
        5.10513         8.82216        0.794432 
        5.12084         8.77937        0.788467 
        5.13656         8.71783        0.782564 
        5.15225         8.63507        0.776733 
        5.16796         8.58176        0.770952 
        5.18369         8.52073        0.765226 
         5.1994         8.44271        0.759569 
        5.21509         8.37896        0.753974 
        5.23079         8.32456         0.74843 
        5.24649         8.26602        0.742947 
        5.26217         8.22147        0.737522 
        5.27788         8.15319        0.732145 
        5.29359         8.10361        0.726821 
        5.30933            8.07        0.721543 
        5.32504         7.99563        0.716326 
        5.34073         7.92724        0.711168 
        5.35646         7.88027         0.70605 
        5.37218         7.80719        0.700982 
        5.38789         7.77934        0.695973 
        5.40357         7.71351        0.691019 
        5.41929         7.65416        0.686102 
        5.43502         7.59494        0.681233 
         5.4507         7.55909        0.676424 
        5.46639         7.49777         0.67166 
        5.48212         7.46811        0.666932 
        5.49786         7.40764        0.662245 
        5.51353         7.35161        0.657626 
        5.52921         7.30532        0.653046 
        5.54495         7.25017        0.648498 
        5.56066          7.1961        0.643998 
        5.57637         7.14721        0.639542 
        5.59207         7.09927        0.635132 
        5.60778         7.04634        0.630763 
        5.62346         7.00062        0.626441 
        5.63916         6.95321        0.622156 
        5.65487         6.91244        0.617909 
         5.6706         6.87401        0.613698 
        5.68633         6.82126        0.609524 
        5.70203          6.7699        0.605398 
        5.71773         6.73931        0.601312 
        5.73344         6.68079        0.597261 
        5.74916         6.63128        0.593245 
        5.76486         6.59519        0.589271 
        5.78054         6.55398         0.58534 
        5.79626         6.50796        0.581434 
          5.812         6.46219         0.57756 
         5.8277          6.4128        0.573734 
        5.84339         6.38547        0.569942 
        5.85911         6.33577        0.566178 
        5.87484         6.29649        0.562448 
        5.89053         6.24763         0.55876 
        5.90623         6.22074        0.555104 
        5.92195         6.17384        0.551474 
        5.93767         6.11414        0.547879 
        5.95336         6.08946        0.544322 
        5.96905         6.05152        0.540799 
        5.98476         6.02153        0.537302 
        6.00048         5.98167        0.533835 
        6.01617         5.93203        0.530404 
        6.03185         5.90219        0.527007 
        6.04756         5.86293        0.523632 
        6.06331         5.83159         0.52028 
        6.07903         5.78444        0.516965 
        6.09473         5.73662        0.513681 
        6.11044         5.71357        0.510424 
        6.12616         5.67752        0.507196 
        6.14186         5.63259        0.503999 
        6.15755         5.61022         0.50083 
        6.17326         5.56315        0.497686 
        6.18898         5.53288        0.494568 
        6.20467         5.50157        0.491482 
        6.22036         5.46051        0.488424 
         6.2361         5.42931        0.485383 
         6.2518         5.39411        0.482373 
        6.26748         5.35029        0.479396 
        6.28319         5.32995        0.476436 
        6.29893         5.30453        0.473499 
        6.31463         5.25943        0.470591 
        6.33033         5.23577         0.46771 
        6.34604          5.1997         0.46485 
        6.36177         5.17535        0.462012 
        6.37747         5.13225        0.459203 
