#  k  (h/Mpc)          P(k)  (Mpc/h)^3     P_linear(k) (Mpc/h)^3
      0.0200456         25422.1         25893.9 
      0.0350414         19439.4           18824 
      0.0492313         13326.7         13677.2 
      0.0637834         10737.5         11369.7 
      0.0800726         8416.85         9023.85 
       0.096163         6813.46         6547.59 
       0.111083         5549.36         5222.53 
       0.126058          4583.5         4628.22 
       0.142273         4032.19         3921.12 
       0.158546         3306.53         3096.86 
        0.17375         2978.26         2609.11 
       0.188953         2844.09         2362.49 
       0.204907         2449.13         2090.32 
       0.220756         2222.73         1768.54 
        0.23588         1985.95         1538.47 
         0.2514         1807.86         1397.69 
       0.267535         1738.27         1264.67 
       0.283568         1560.28         1115.27 
       0.299022          1485.5         993.645 
       0.314451         1551.16         908.124 
       0.330372         1390.42         833.102 
       0.346141         1277.54         756.167 
       0.361624         1224.92         687.252 
       0.377134         1180.42          632.38 
       0.392932         1118.97         585.129 
       0.408854         1078.75         539.376 
       0.424564         1057.02         497.151 
       0.440253         988.819         460.916 
       0.455999         945.354         429.409 
       0.471626         957.186         400.454 
        0.48727         906.481         373.369 
       0.502856         881.295         349.036 
       0.518488         847.447         327.325 
       0.534347         821.167         307.142 
       0.550082         784.828         288.532 
       0.565732         769.898         271.506 
       0.581496         753.155         255.913 
       0.597222         742.205         241.612 
       0.612804         722.426         228.462 
       0.628434         694.068         216.205 
       0.644267         676.507         204.746 
       0.660051         669.291         194.184 
       0.675724         657.789         184.432 
       0.691403         633.549         175.342 
       0.707174         618.604         166.812 
       0.722871          615.45         158.885 
        0.73838         597.315         151.557 
       0.754018         587.338         144.636 
       0.769845         577.857         138.072 
        0.78569         564.904         131.909 
       0.801365         548.298         126.185 
       0.817031         541.979         120.805 
       0.832809         532.506         115.706 
       0.848511         523.614         110.926 
       0.864097         514.659          106.45 
       0.879701         516.324         102.218 
       0.895507         496.275         98.1671 
       0.911279         491.259         94.3452 
        0.92691         483.012         90.7594 
       0.942635         476.171          87.341 
       0.958396         464.827         84.0922 
       0.974128         456.788         81.0153 
       0.989692         446.723         78.1234 
        1.00528         440.199          75.369 
        1.02113         432.665         72.7047 
        1.03692         426.631         70.1796 
        1.05264         421.604         67.7866 
        1.06832         411.665         65.5093 
        1.08405          410.21          63.331 
        1.09979          400.28         61.2508 
        1.11537         391.695         59.2851 
        1.13105         386.775         57.3942 
        1.14679         380.058         55.5789 
        1.16256         377.721         53.8388 
        1.17828         372.003         52.1792 
        1.19395         363.389         50.5954 
         1.2097         358.143         49.0696 
        1.22537         353.663         47.6142 
          1.241         346.502         46.2225 
        1.25666         343.043         44.8832 
        1.27241          339.89         43.5908 
        1.28819         330.738         42.3473 
        1.30392         329.543          41.156 
        1.31957         322.452         40.0161 
        1.33529         317.664         38.9153 
        1.35108         317.078         37.8516 
        1.36674         308.751         36.8355 
         1.3824         303.212         35.8577 
        1.39811         299.545         34.9122 
        1.41389         294.952         33.9973 
        1.42964         290.406         33.1169 
        1.44531         285.882          32.272 
        1.46101         280.221         31.4548 
        1.47667         278.743         30.6685 
        1.49229          275.03         29.9112 
        1.50793         269.573         29.1787 
        1.52367         265.328         28.4661 
        1.53953         262.404         27.7726 
        1.55526         257.724         27.1078 
        1.57092         255.601         26.4675 
        1.58662         250.408         25.8464 
        1.60235         246.798         25.2441 
        1.61809         244.949         24.6608 
        1.63369         240.239         24.1011 
        1.64941         237.355         23.5548 
        1.66519         233.814         23.0235 
        1.68085         229.713         22.5124 
        1.69652           226.9         22.0167 
        1.71228         223.426         21.5331 
        1.72806         220.752         21.0638 
        1.74368         217.705         20.6131 
        1.75933         215.758         20.1748 
        1.77505         212.348         19.7471 
        1.79081         209.591         19.3312 
         1.8065         208.408          18.929 
        1.82218         202.819         18.5386 
        1.83797         201.262         18.1566 
        1.85367         198.398         17.7875 
        1.86928         194.873         17.4309 
        1.88497         192.989         17.0821 
        1.90073         191.348         16.7416 
        1.91647         188.234         16.4107 
        1.93218         185.018         16.0895 
        1.94787         182.202         15.7774 
        1.96363         181.242         15.4723 
        1.97935         178.626         15.1759 
        1.99499         176.471         14.8889 
        2.01064         172.578          14.609 
         2.0264         171.882         14.3345 
        2.04216         168.706         14.0673 
        2.05781         166.865         13.8085 
        2.07353         165.656         13.5553 
        2.08928         163.785         13.3079 
        2.10499         160.738         13.0674 
        2.12065         159.168         12.8336 
        2.13633         156.861         12.6052 
        2.15211         154.867          12.381 
        2.16785         153.399         12.1629 
        2.18349          151.35         11.9513 
        2.19916         149.857         11.7444 
        2.21489         147.067         11.5417 
        2.23063         145.365         11.3436 
         2.2463         143.631         11.1511 
        2.26194         142.383         10.9636 
        2.27765         140.169         10.7794 
        2.29341         138.835         10.5989 
        2.30914          136.72          10.423 
        2.32486         135.505         10.2511 
        2.34061         133.077         10.0829 
        2.35635         131.798         9.91855 
        2.37203         130.496         9.75846 
        2.38768         129.128         9.60224 
        2.40339         127.256         9.44887 
        2.41914         125.211          9.2985 
        2.43483         124.038         9.15194 
         2.4505         123.183         9.00878 
        2.46622         120.859         8.86819 
        2.48195         119.726          8.7306 
        2.49759          117.81         8.59666 
        2.51328         116.702         8.46519 
        2.52906         115.639         8.33563 
        2.54479         113.972         8.20928 
        2.56049         112.662         8.08578 
        2.57618         111.419         7.96494 
        2.59189         110.595         7.84639 
        2.60758         109.045         7.73043 
        2.62325         107.455         7.61696 
        2.63898         106.027         7.50538 
        2.65468          105.12         7.39626 
        2.67044         104.187         7.28885 
        2.68618           102.7         7.18382 
        2.70184         101.789         7.08128 
        2.71755         100.317         6.98049 
        2.73329         98.9356          6.8815 
        2.74897         98.0339         6.78476 
        2.76462         97.4111         6.69009 
        2.78034         96.3517         6.59684 
        2.79607         94.8616         6.50527 
        2.81179         93.9538         6.41554 
        2.82749         93.2252          6.3276 
        2.84321         91.6675         6.24122 
        2.85893         90.6062         6.15647 
        2.87462         89.7932         6.07345 
        2.89033         88.8258         5.99188 
        2.90605          87.744         5.91173 
        2.92176         86.9886          5.8331 
        2.93747         86.0433         5.75593 
        2.95318         84.8608         5.68015 
        2.96891         84.4971         5.60569 
        2.98456         82.8862          5.5329 
        3.00023         82.2361         5.46129 
        3.01596         81.7895         5.39073 
        3.03164         80.4709         5.32162 
        3.04738         80.0597         5.25352 
         3.0631         79.0802         5.18663 
        3.07883         78.2015         5.12091 
        3.09456         77.1857         5.05633 
        3.11026         76.7555         4.99297 
        3.12596         75.6535          4.9307 
        3.14163         75.0216         4.86964 
        3.15734         74.0263         4.80946 
        3.17308         73.4788         4.75016 
        3.18879         72.6678         4.69202 
        3.20447         72.1853         4.63494 
         3.2202           70.99         4.57863 
         3.2359         70.5432         4.52336 
        3.25157          69.807         4.46913 
        3.26729          68.915         4.41563 
        3.28304         68.1757         4.36289 
        3.29877          67.625         4.31109 
        3.31446         66.8369         4.26024 
        3.33014         66.2789         4.21026 
        3.34585         65.5012           4.161 
        3.36158         64.9731         4.11245 
        3.37727         64.2535         4.06484 
        3.39294         63.5722         4.01802 
        3.40867         63.1585         3.97176 
        3.42439         62.1506         3.92627 
        3.44008         61.6481         3.88157 
        3.45578         61.2064         3.83753 
        3.47153         60.6213         3.79409 
        3.48724         59.8631         3.75138 
        3.50292         59.4583         3.70944 
        3.51859         58.8022         3.66816 
        3.53431         58.1579         3.62738 
        3.55007         57.4633         3.58712 
        3.56577         56.9398         3.54762 
        3.58146         56.4687         3.50874 
        3.59719         56.0038         3.47035 
        3.61292         55.4012         3.43255 
        3.62859         54.9438         3.39546 
        3.64429          54.472         3.35884 
        3.66003         53.7764         3.32265 
        3.67578         53.2553           3.287 
        3.69146         52.8188         3.25202 
        3.70712         52.2418          3.2176 
        3.72284         51.6607         3.18356 
        3.73853          51.422         3.15006 
        3.75422         50.9405         3.11704 
        3.76993         50.4449         3.08446 
        3.78564         49.9077         3.05236 
        3.80137         49.3305         3.02067 
        3.81707         48.9184         2.98949 
        3.83279         48.5189         2.95872 
        3.84853         48.0614         2.92834 
        3.86424         47.6452         2.89845 
        3.87992         47.1299         2.86901 
        3.89561         46.8396         2.83999 
        3.91134         46.2782          2.8113 
        3.92704         45.9691         2.78304 
        3.94273         45.5374         2.75521 
        3.95845         44.9796          2.7277 
        3.97418         44.5947         2.70056 
        3.98988         44.2464         2.67382 
        4.00554         43.8003         2.64752 
        4.02125         43.3336          2.6215 
        4.03698         43.0786         2.59579 
        4.05268         42.6753         2.57048 
        4.06839          42.279         2.54549 
         4.0841         41.9558         2.52084 
        4.09983         41.6533         2.49648 
        4.11555          41.288         2.47245 
        4.13124         40.7196         2.44881 
        4.14693         40.4567         2.42545 
        4.16266         40.1571         2.40235 
        4.17839         39.6625         2.37955 
        4.19408         39.4486         2.35711 
        4.20977         38.9883         2.33495 
        4.22551         38.6554         2.31301 
        4.24123         38.3352         2.29139 
        4.25691         37.9719         2.27009 
        4.27259         37.6502         2.24906 
        4.28831         37.3591         2.22826 
        4.30404          37.099          2.2077 
        4.31974         36.6309         2.18744 
        4.33543         36.2816         2.16745 
        4.35116         36.0223         2.14766 
        4.36688         35.6923         2.12812 
        4.38255         35.4251          2.1089 
        4.39825         35.1805         2.08987 
        4.41398         34.9223         2.07105 
         4.4297         34.5016         2.05247 
        4.44541         34.3284         2.03412 
        4.46111         34.0676         2.01602 
        4.47683         33.7778         1.99812 
        4.49251         33.4375         1.98047 
        4.50819         33.1277         1.96304 
         4.5239         32.7922          1.9458 
        4.53962         32.5551         1.92874 
        4.55535         32.2579         1.91188 
        4.57106         31.9999         1.89524 
        4.58678         31.7703          1.8788 
         4.6025         31.4775         1.86255 
        4.61821         31.2939         1.84649 
        4.63391         30.9597         1.83064 
         4.6496         30.7832         1.81499 
        4.66532         30.5044          1.7995 
        4.68103         30.1794         1.78419 
        4.69673         29.9736         1.76907 
        4.71241         29.6993         1.75415 
        4.72811         29.4382         1.73937 
        4.74384          29.252         1.72474 
        4.75955         29.0669         1.71031 
        4.77525         28.7952         1.69604 
        4.79096         28.5819         1.68193 
        4.80669         28.3396         1.66796 
         4.8224         28.1127         1.65417 
        4.83809         27.8552         1.64055 
        4.85379         27.6824         1.62708 
         4.8695         27.3936         1.61374 
        4.88521         27.1972         1.60057 
        4.90093         26.9786         1.58753 
        4.91663         26.7958         1.57465 
        4.93234         26.6014         1.56191 
        4.94807         26.3635         1.54929 
        4.96377         26.1449         1.53684 
        4.97943         25.9715         1.52455 
        4.99514         25.7966         1.51236 
        5.01086          25.601          1.5003 
        5.02654         25.3677          1.4884 
        5.04227         25.1317         1.47659 
          5.058         24.9977          1.4649 
        5.07371         24.7919         1.45337 
        5.08942         24.6099         1.44196 
        5.10513         24.3589         1.43067 
        5.12084         24.1602         1.41949 
        5.13656         23.9899         1.40843 
        5.15225         23.8468         1.39752 
        5.16796         23.5933          1.3867 
        5.18369         23.4487         1.37598 
         5.1994         23.2356          1.3654 
        5.21509         23.0505         1.35494 
        5.23079         22.9086         1.34457 
        5.24649         22.7116         1.33432 
        5.26217         22.5561         1.32419 
        5.27788         22.3848         1.31414 
        5.29359         22.1945          1.3042 
        5.30933         21.9844         1.29435 
        5.32504         21.8738         1.28461 
        5.34073         21.6943         1.27499 
        5.35646         21.5129         1.26544 
        5.37218         21.3481           1.256 
        5.38789         21.2282         1.24666 
        5.40357         21.0355         1.23743 
        5.41929         20.9004         1.22827 
        5.43502         20.6947          1.2192 
         5.4507          20.618         1.21025 
        5.46639         20.4175         1.20138 
        5.48212         20.2788         1.19258 
        5.49786         20.1287         1.18386 
        5.51353         19.9527         1.17527 
        5.52921         19.8004         1.16676 
        5.54495         19.7017         1.15831 
        5.56066         19.5012         1.14995 
        5.57637         19.3435         1.14167 
        5.59207         19.2521         1.13348 
        5.60778         19.0989         1.12537 
        5.62346         18.9348         1.11735 
        5.63916         18.7904          1.1094 
        5.65487         18.6691         1.10152 
         5.6706           18.53         1.09371 
        5.68633         18.3887         1.08597 
        5.70203         18.2279         1.07833 
        5.71773         18.1539         1.07075 
        5.73344         18.0139         1.06325 
        5.74916         17.8747         1.05581 
        5.76486         17.7558         1.04846 
        5.78054         17.5908         1.04118 
        5.79626         17.5215         1.03395 
          5.812         17.3355         1.02679 
         5.8277         17.1957         1.01971 
        5.84339         17.0972          1.0127 
        5.85911         16.9667         1.00575 
        5.87484         16.8294        0.998854 
        5.89053         16.7172        0.992041 
        5.90623         16.6191        0.985289 
        5.92195         16.4717        0.978587 
        5.93767         16.3547        0.971952 
        5.95336         16.2562        0.965389 
        5.96905         16.1349        0.958889 
        5.98476         16.0397        0.952439 
        6.00048          15.905        0.946047 
        6.01617         15.7692        0.939722 
        6.03185         15.6789        0.933463 
        6.04756         15.5539        0.927245 
        6.06331         15.4724        0.921071 
        6.07903          15.336        0.914966 
        6.09473          15.241        0.908921 
        6.11044         15.1417        0.902926 
        6.12616         15.0338        0.896986 
        6.14186         14.9279        0.891106 
        6.15755         14.8172        0.885278 
        6.17326         14.7589        0.879498 
        6.18898         14.6426        0.873767 
        6.20467          14.519        0.868097 
        6.22036         14.4027        0.862477 
         6.2361          14.305        0.856892 
         6.2518         14.2008        0.851366 
        6.26748         14.1224        0.845901 
        6.28319          14.023        0.840468 
        6.29893         13.9156        0.835079 
        6.31463         13.8158        0.829746 
        6.33033         13.7312        0.824461 
        6.34604         13.6403        0.819218 
        6.36177         13.5724        0.814016 
        6.37747         13.4506        0.808869 
