#  k  (h/Mpc)          P(k)  (Mpc/h)^3     P_linear(k) (Mpc/h)^3
      0.0200456         22948.7         23506.5 
      0.0350414         16272.2         17088.5 
      0.0492313           12133         12416.2 
      0.0637834         10519.3         10321.4 
      0.0800726          8297.2         8191.87 
       0.096163         5748.01         5943.91 
       0.111083         4629.35         4741.02 
       0.126058          4260.5         4201.51 
       0.142273         3690.89          3559.6 
       0.158546         3247.85         2811.34 
        0.17375         2601.31         2368.55 
       0.188953         2546.76         2144.67 
       0.204907         2393.49          1897.6 
       0.220756         2078.86         1605.48 
        0.23588         1862.93         1396.63 
         0.2514         1624.26         1268.82 
       0.267535         1627.62         1148.07 
       0.283568         1476.84         1012.44 
       0.299022         1399.79         902.032 
       0.314451         1335.13         824.396 
       0.330372         1224.51         756.291 
       0.346141         1180.54         686.449 
       0.361624         1135.36         623.889 
       0.377134         1059.12         574.076 
       0.392932         1016.08         531.181 
       0.408854         1000.05         489.646 
       0.424564         923.967         451.314 
       0.440253         907.754          418.42 
       0.455999         880.367         389.818 
       0.471626         849.212         363.533 
        0.48727          814.96         338.945 
       0.502856         791.671         316.856 
       0.518488         785.685         297.147 
       0.534347         737.645         278.824 
       0.550082         721.592          261.93 
       0.565732         717.158         246.474 
       0.581496          679.34         232.318 
       0.597222         665.831         219.336 
       0.612804         655.421         207.398 
       0.628434         637.664         196.271 
       0.644267         621.751         185.869 
       0.660051          604.88         176.281 
       0.675724         598.753         167.428 
       0.691403         579.603         159.175 
       0.707174         561.294         151.433 
       0.722871         554.411         144.236 
        0.73838         544.176         137.583 
       0.754018         533.763         131.301 
       0.769845         524.933         125.342 
        0.78569         515.106         119.748 
       0.801365         502.562         114.551 
       0.817031         490.138         109.667 
       0.832809             486         105.038 
       0.848511         475.689         100.699 
       0.864097         461.354         96.6356 
       0.879701         455.534         92.7937 
       0.895507         453.683         89.1163 
       0.911279         441.404         85.6468 
        0.92691         435.428         82.3916 
       0.942635         424.553         79.2883 
       0.958396          414.22         76.3391 
       0.974128         408.915         73.5458 
       0.989692          406.77         70.9205 
        1.00528         394.904         68.4201 
        1.02113         393.397         66.0015 
        1.03692         382.276         63.7092 
        1.05264         379.801         61.5368 
        1.06832         369.591         59.4694 
        1.08405          365.33          57.492 
        1.09979         359.745         55.6036 
        1.11537         352.955         53.8191 
        1.13105         347.696         52.1026 
        1.14679         338.748         50.4546 
        1.16256         332.387          48.875 
        1.17828         332.284         47.3684 
        1.19395         324.188         45.9306 
         1.2097         318.745         44.5455 
        1.22537         312.689         43.2243 
          1.241         309.542         41.9609 
        1.25666         304.886          40.745 
        1.27241         300.411         39.5718 
        1.28819         295.628         38.4429 
        1.30392         289.404         37.3615 
        1.31957         288.314         36.3267 
        1.33529         283.347         35.3273 
        1.35108         277.412         34.3618 
        1.36674         272.959         33.4393 
         1.3824         271.532         32.5517 
        1.39811         266.808         31.6934 
        1.41389         263.926         30.8628 
        1.42964         260.898         30.0635 
        1.44531         257.017         29.2966 
        1.46101         252.325         28.5548 
        1.47667         249.586         27.8409 
        1.49229         246.848         27.1535 
        1.50793         240.835         26.4885 
        1.52367         239.649         25.8416 
        1.53953         235.887          25.212 
        1.55526         231.667         24.6085 
        1.57092         229.865         24.0272 
        1.58662         227.345         23.4634 
        1.60235         223.219         22.9167 
        1.61809          220.93         22.3871 
        1.63369         218.003          21.879 
        1.64941         213.861         21.3831 
        1.66519         212.284         20.9008 
        1.68085         209.323         20.4368 
        1.69652         206.307         19.9868 
        1.71228         201.526         19.5478 
        1.72806          199.86         19.1217 
        1.74368         196.959         18.7126 
        1.75933          193.95         18.3147 
        1.77505         192.778         17.9265 
        1.79081         190.627         17.5489 
         1.8065         186.934         17.1838 
        1.82218         185.215         16.8294 
        1.83797         183.756         16.4826 
        1.85367         180.615         16.1476 
        1.86928         177.633         15.8238 
        1.88497         175.586         15.5072 
        1.90073         173.596         15.1981 
        1.91647         172.242         14.8977 
        1.93218         169.845         14.6061 
        1.94787         166.081         14.3227 
        1.96363         164.076         14.0457 
        1.97935         163.284         13.7767 
        1.99499         160.726         13.5162 
        2.01064          158.86         13.2621 
         2.0264         157.348         13.0129 
        2.04216          155.21         12.7703 
        2.05781          153.27         12.5354 
        2.07353         151.719         12.3055 
        2.08928         149.174          12.081 
        2.10499         147.861         11.8626 
        2.12065         145.363         11.6503 
        2.13633         143.891         11.4431 
        2.15211         141.606         11.2395 
        2.16785         140.409         11.0415 
        2.18349         139.102         10.8494 
        2.19916         137.053         10.6616 
        2.21489         135.905         10.4776 
        2.23063         133.524         10.2978 
         2.2463         132.092          10.123 
        2.26194         130.078         9.95275 
        2.27765         128.964         9.78553 
        2.29341         127.527         9.62171 
        2.30914         126.271         9.46199 
        2.32486         124.293         9.30599 
        2.34061          122.96         9.15325 
        2.35635         121.541         9.00408 
        2.37203          120.33         8.85875 
        2.38768          118.54         8.71693 
        2.40339         117.437          8.5777 
        2.41914         115.846         8.44119 
        2.43483         114.665         8.30814 
         2.4505         113.478         8.17818 
        2.46622          112.26         8.05056 
        2.48195         110.559         7.92565 
        2.49759         109.274         7.80407 
        2.51328          108.64         7.68471 
        2.52906          107.04          7.5671 
        2.54479         106.053          7.4524 
        2.56049         104.713         7.34029 
        2.57618         103.654         7.23059 
        2.59189         102.616         7.12296 
        2.60758         101.406          7.0177 
        2.62325         99.9228         6.91469 
        2.63898         98.7551         6.81339 
        2.65468         97.7427         6.71434 
        2.67044         97.0436         6.61683 
        2.68618           95.83         6.52148 
        2.70184         95.1778          6.4284 
        2.71755         93.5493          6.3369 
        2.73329         92.8056         6.24704 
        2.74897         91.8964         6.15922 
        2.76462         90.6248         6.07328 
        2.78034         89.9027         5.98862 
        2.79607         88.4444         5.90549 
        2.81179         87.6742         5.82404 
        2.82749         86.7928         5.74421 
        2.84321         85.9169         5.66579 
        2.85893         85.0521         5.58886 
        2.87462         84.0575         5.51349 
        2.89033         83.0144         5.43944 
        2.90605         82.1321         5.36668 
        2.92176         81.1576          5.2953 
        2.93747         80.6517         5.22524 
        2.95318         79.4812         5.15645 
        2.96891         78.9823         5.08886 
        2.98456         78.1611         5.02278 
        3.00023         77.2259         4.95777 
        3.01596         76.2864         4.89372 
        3.03164         75.6002         4.83098 
        3.04738         74.6163         4.76916 
         3.0631         73.8667         4.70844 
        3.07883         73.4186         4.64877 
        3.09456          72.822         4.59015 
        3.11026         71.8087         4.53263 
        3.12596         70.9621          4.4761 
        3.14163         70.5151         4.42067 
        3.15734         69.4334         4.36604 
        3.17308         68.7644         4.31221 
        3.18879         68.2718         4.25943 
        3.20447         67.4277         4.20761 
         3.2202         66.9446         4.15649 
         3.2359         66.0669         4.10632 
        3.25157         65.4714         4.05709 
        3.26729         64.9197         4.00851 
        3.28304         64.4249         3.96064 
        3.29877         63.6938         3.91362 
        3.31446         62.7081         3.86746 
        3.33014         62.4725         3.82208 
        3.34585         61.5458         3.77736 
        3.36158          61.151         3.73329 
        3.37727         60.6644         3.69007 
        3.39294         59.7549         3.64756 
        3.40867         59.3154         3.60558 
        3.42439         58.8276         3.56427 
        3.44008         58.1473          3.5237 
        3.45578          57.522         3.48372 
        3.47153         57.0085         3.44428 
        3.48724         56.5331         3.40551 
        3.50292         56.1394         3.36744 
        3.51859         55.4494         3.32996 
        3.53431         55.1099         3.29294 
        3.55007         54.4342         3.25639 
        3.56577         54.0749         3.22054 
        3.58146         53.4532         3.18524 
        3.59719         52.8298         3.15039 
        3.61292         52.3962         3.11608 
        3.62859         51.8648          3.0824 
        3.64429         51.3397         3.04916 
        3.66003         51.0372         3.01631 
        3.67578           50.48         2.98395 
        3.69146         50.0016         2.95219 
        3.70712         49.4039         2.92094 
        3.72284         49.0201         2.89004 
        3.73853         48.5565         2.85963 
        3.75422         48.0018         2.82966 
        3.76993         47.5416         2.80008 
        3.78564         47.1484         2.77094 
        3.80137         46.7387         2.74217 
        3.81707         46.2349         2.71386 
        3.83279          45.837         2.68593 
        3.84853         45.5889         2.65835 
        3.86424         44.9998         2.63122 
        3.87992         44.6471         2.60449 
        3.89561         44.2897         2.57814 
        3.91134         43.8005          2.5521 
        3.92704         43.3838         2.52645 
        3.94273         43.0148         2.50118 
        3.95845         42.7869         2.47621 
        3.97418         42.3626         2.45157 
        3.98988         41.9968          2.4273 
        4.00554         41.5709         2.40343 
        4.02125          41.288          2.3798 
        4.03698         40.8106         2.35646 
        4.05268         40.5683         2.33349 
        4.06839         40.1645          2.3108 
         4.0841          39.766         2.28842 
        4.09983         39.4727         2.26631 
        4.11555         39.1607          2.2445 
        4.13124         38.8404         2.22303 
        4.14693          38.488         2.20183 
        4.16266         38.1714         2.18085 
        4.17839         37.7099         2.16016 
        4.19408         37.4206         2.13979 
        4.20977         37.1253         2.11967 
        4.22551         36.7803         2.09976 
        4.24123          36.519         2.08012 
        4.25691         36.2036         2.06079 
        4.27259         35.8462          2.0417 
        4.28831         35.5378         2.02282 
        4.30404         35.2819         2.00415 
        4.31974          34.961         1.98576 
        4.33543         34.5691         1.96761 
        4.35116          34.401         1.94965 
        4.36688         34.0873         1.93191 
        4.38255          33.777         1.91446 
        4.39825         33.5444         1.89719 
        4.41398         33.3075          1.8801 
         4.4297         32.9204         1.86324 
        4.44541         32.7274         1.84658 
        4.46111         32.3595         1.83014 
        4.47683          32.129         1.81389 
        4.49251         31.8161         1.79788 
        4.50819         31.6311         1.78205 
         4.5239         31.3952          1.7664 
        4.53962         31.0966         1.75091 
        4.55535         30.8848         1.73561 
        4.57106         30.5877          1.7205 
        4.58678         30.4164         1.70558 
         4.6025         30.0296         1.69082 
        4.61821         29.8862         1.67625 
        4.63391         29.6093         1.66186 
         4.6496         29.3378         1.64765 
        4.66532         29.1159         1.63358 
        4.68103         28.8887         1.61969 
        4.69673         28.6616         1.60597 
        4.71241         28.5082         1.59242 
        4.72811         28.1833           1.579 
        4.74384          28.042         1.56572 
        4.75955         27.7392         1.55262 
        4.77525         27.5323         1.53967 
        4.79096         27.3597         1.52686 
        4.80669         27.0613         1.51418 
         4.8224         26.8965         1.50166 
        4.83809         26.7196          1.4893 
        4.85379         26.4512         1.47706 
         4.8695         26.2309         1.46496 
        4.88521         26.0084           1.453 
        4.90093         25.7971         1.44116 
        4.91663         25.5654         1.42947 
        4.93234         25.3846          1.4179 
        4.94807         25.2527         1.40645 
        4.96377         25.0261         1.39514 
        4.97943         24.7644         1.38399 
        4.99514         24.6396         1.37292 
        5.01086         24.4778         1.36197 
        5.02654         24.2357         1.35117 
        5.04227         24.0818         1.34045 
          5.058         23.9181         1.32984 
        5.07371          23.719         1.31937 
        5.08942         23.4609         1.30901 
        5.10513         23.3606         1.29876 
        5.12084         23.1887         1.28861 
        5.13656         23.0132         1.27858 
        5.15225         22.8042         1.26867 
        5.16796         22.6347         1.25885 
        5.18369         22.4202         1.24912 
         5.1994         22.2836         1.23951 
        5.21509          22.109         1.23001 
        5.23079         21.9568          1.2206 
        5.24649         21.8205          1.2113 
        5.26217         21.6505          1.2021 
        5.27788         21.4884         1.19298 
        5.29359         21.3132         1.18396 
        5.30933         21.0669         1.17501 
        5.32504         20.9732         1.16617 
        5.34073         20.8278         1.15744 
        5.35646         20.6634         1.14877 
        5.37218         20.4925          1.1402 
        5.38789         20.3563         1.13172 
        5.40357         20.2238         1.12334 
        5.41929         20.0083         1.11502 
        5.43502         19.9232         1.10679 
         5.4507         19.7309         1.09866 
        5.46639          19.602         1.09062 
        5.48212         19.4856         1.08263 
        5.49786         19.2876         1.07471 
        5.51353         19.1573         1.06692 
        5.52921         19.0344         1.05919 
        5.54495         18.8928         1.05151 
        5.56066         18.7568         1.04392 
        5.57637         18.6045         1.03641 
        5.59207         18.4541         1.02897 
        5.60778         18.2943         1.02161 
        5.62346         18.1969         1.01433 
        5.63916         18.0936         1.00711 
        5.65487         17.9641        0.999962 
         5.6706         17.8161        0.992872 
        5.68633         17.6947        0.985848 
        5.70203         17.5252        0.978907 
        5.71773         17.4582        0.972033 
        5.73344         17.2977        0.965222 
        5.74916         17.1939         0.95847 
        5.76486         17.0902        0.951791 
        5.78054         16.9463        0.945187 
        5.79626          16.798        0.938626 
          5.812         16.7315        0.932121 
         5.8277         16.5597        0.925697 
        5.84339         16.4487        0.919334 
        5.85911         16.3702        0.913017 
        5.87484         16.2182        0.906762 
        5.89053         16.1008        0.900577 
        5.90623         16.0179        0.894447 
        5.92195         15.8933        0.888363 
        5.93767         15.7621         0.88234 
        5.95336         15.6585        0.876382 
        5.96905          15.556        0.870481 
        5.98476         15.4469        0.864626 
        6.00048         15.3232        0.858823 
        6.01617         15.2504        0.853082 
        6.03185          15.097        0.847399 
        6.04756         14.9971        0.841755 
        6.06331         14.9055         0.83615 
        6.07903         14.8066        0.830608 
        6.09473         14.6928        0.825121 
        6.11044         14.5837        0.819678 
        6.12616           14.49        0.814286 
        6.14186          14.343        0.808947 
        6.15755         14.2694        0.803657 
        6.17326         14.1994         0.79841 
        6.18898         14.1078        0.793207 
        6.20467         14.0091         0.78806 
        6.22036          13.902        0.782958 
         6.2361          13.802        0.777889 
         6.2518          13.709        0.772872 
        6.26748         13.6117         0.76791 
        6.28319          13.522        0.762979 
        6.29893         13.4159        0.758086 
        6.31463         13.3379        0.753245 
        6.33033         13.2716        0.748447 
        6.34604         13.1692        0.743688 
        6.36177         13.0569        0.738965 
        6.37747         12.9911        0.734292 
