# k  (h/Mpc)    Pcb(k)  (Mpc/h)^3    Pcb_linear(k) (Mpc/h)^3   ShotnoiseSubtracted = true
      0.0200456         30758.3         31341.3 
      0.0350414         21327.3         20440.6 
      0.0492313         13540.2         13806.6 
      0.0637834         10843.8         11371.4 
      0.0800726         8463.99         9037.16 
       0.096163         6673.34          6238.3 
       0.111083         5259.15         4782.76 
       0.126058          4361.9          4291.6 
       0.142273         3865.62         3686.29 
       0.158546         3109.25         2827.14 
        0.17375         2773.91         2309.66 
       0.188953         2659.94         2103.42 
       0.204907          2280.9         1891.71 
       0.220756         2072.91         1581.78 
        0.23588         1836.43         1344.08 
         0.2514         1669.39         1216.99 
       0.267535         1600.41         1114.04 
       0.283568         1436.63         980.345 
       0.299022         1355.33         861.046 
       0.314451          1420.9         781.771 
       0.330372         1270.11         720.788 
       0.346141         1165.27         655.194 
       0.361624         1115.01         591.314 
       0.377134         1078.39          540.66 
       0.392932          1009.9         500.439 
       0.408854         979.109         461.995 
       0.424564         956.142         424.616 
       0.440253         894.004         391.925 
       0.455999         850.866         364.589 
       0.471626          864.03         340.127 
        0.48727          812.65         316.719 
       0.502856         797.072         295.315 
       0.518488         759.735         276.457 
       0.534347         741.203         259.257 
       0.550082         707.002         243.375 
       0.565732         690.405         228.665 
       0.581496          676.76         215.214 
       0.597222         665.548         203.002 
       0.612804         645.299         191.816 
       0.628434         621.052         181.354 
       0.644267         604.057         171.544 
       0.660051         597.586         162.545 
       0.675724         585.557          154.26 
       0.691403         563.524         146.543 
       0.707174         550.518         139.308 
       0.722871         552.897         132.588 
        0.73838         530.035         126.381 
       0.754018         522.234         120.523 
       0.769845         513.662         114.972 
        0.78569         502.814         109.764 
       0.801365         488.355         104.931 
       0.817031         480.325         100.392 
       0.832809         474.193         96.0946 
       0.848511         465.204         92.0691 
       0.864097         454.835         88.3031 
       0.879701         457.532         84.7452 
       0.895507         440.634         81.3424 
       0.911279          435.99         78.1345 
        0.92691         428.539         75.1269 
       0.942635         420.909         72.2617 
       0.958396         411.147         69.5406 
       0.974128         402.479         66.9651 
       0.989692         396.693         64.5459 
        1.00528         387.363         62.2431 
        1.02113         382.283          60.017 
        1.03692         376.985         57.9083 
        1.05264         372.875         55.9109 
        1.06832         364.294         54.0112 
        1.08405         362.665         52.1949 
        1.09979         353.277         50.4613 
        1.11537         345.585         48.8238 
        1.13105          340.88         47.2495 
        1.14679         336.018         45.7387 
        1.16256         332.654         44.2912 
        1.17828         328.101         42.9113 
        1.19395         321.695          41.595 
         1.2097         315.765         40.3274 
        1.22537         312.256         39.1188 
          1.241         305.616         37.9636 
        1.25666         302.199         36.8523 
        1.27241         300.439         35.7804 
        1.28819         292.374         34.7495 
        1.30392         290.656         33.7623 
        1.31957         284.172         32.8179 
        1.33529         279.664         31.9063 
        1.35108         279.371         31.0258 
        1.36674         273.726         30.1849 
         1.3824         267.552         29.3761 
        1.39811         263.327         28.5942 
        1.41389         260.267         27.8379 
        1.42964         256.115         27.1103 
        1.44531         253.527         26.4123 
        1.46101          247.48         25.7375 
        1.47667         245.082         25.0883 
        1.49229         243.541         24.4633 
        1.50793         237.844         23.8589 
        1.52367         234.953         23.2711 
        1.53953         231.643         22.6992 
        1.55526         227.129         22.1511 
        1.57092         225.785         21.6234 
        1.58662         221.554         21.1117 
        1.60235         218.007         20.6155 
        1.61809         216.093         20.1351 
        1.63369         211.761         19.6743 
        1.64941         209.857         19.2247 
        1.66519         206.284         18.7875 
        1.68085         202.751          18.367 
        1.69652         200.828         17.9593 
        1.71228         197.704         17.5617 
        1.72806         195.752         17.1758 
        1.74368         192.357         16.8054 
        1.75933         190.469         16.4452 
        1.77505         187.793         16.0939 
        1.79081         184.906         15.7523 
         1.8065         184.257          15.422 
        1.82218         179.436         15.1015 
        1.83797         177.771         14.7879 
        1.85367         175.627          14.485 
        1.86928         172.836         14.1924 
        1.88497         171.499         13.9063 
        1.90073         169.173         13.6271 
        1.91647         167.103         13.3557 
        1.93218         164.182         13.0924 
        1.94787         161.396         12.8365 
        1.96363         160.514         12.5865 
        1.97935         157.958         12.3436 
        1.99499         156.627         12.1085 
        2.01064         153.625         11.8793 
         2.0264         152.095         11.6545 
        2.04216         150.131         11.4356 
        2.05781          147.67         11.2238 
        2.07353         146.689         11.0166 
        2.08928         144.256         10.8141 
        2.10499         142.714         10.6173 
        2.12065         141.321          10.426 
        2.13633         139.356         10.2393 
        2.15211         137.407         10.0559 
        2.16785         136.291          9.8775 
        2.18349         134.424         9.70457 
        2.19916         133.685         9.53542 
        2.21489         130.765         9.36974 
        2.23063         129.133          9.2079 
         2.2463         127.336          9.0506 
        2.26194         126.585         8.89738 
        2.27765         124.503         8.74691 
        2.29341         123.037         8.59954 
        2.30914         122.066         8.45587 
        2.32486         120.706         8.31557 
        2.34061         118.751         8.17821 
        2.35635         116.924         8.04409 
        2.37203         115.947         7.91343 
        2.38768         114.141         7.78595 
        2.40339         113.732         7.66082 
        2.41914          111.97         7.53815 
        2.43483         110.544          7.4186 
         2.4505         109.815         7.30184 
        2.46622         107.866          7.1872 
        2.48195         106.225         7.07501 
        2.49759         105.098         6.96582 
        2.51328         104.128         6.85864 
        2.52906         102.671         6.75305 
        2.54479         101.953         6.65007 
        2.56049         100.233         6.54944 
        2.57618         99.4271         6.45098 
        2.59189          98.372          6.3544 
        2.60758         97.1954         6.25994 
        2.62325         95.8733         6.16752 
        2.63898         94.3144         6.07665 
        2.65468         93.6249         5.98779 
        2.67044          92.827         5.90034 
        2.68618         91.6955         5.81483 
        2.70184         91.0249         5.73136 
        2.71755         89.5312         5.64932 
        2.73329         88.4357         5.56876 
        2.74897         87.5095         5.49003 
        2.76462         86.9037           5.413 
        2.78034         85.8451         5.33713 
        2.79607         85.0127         5.26264 
        2.81179         84.0674         5.18965 
        2.82749         82.7891         5.11812 
        2.84321         81.9705         5.04787 
        2.85893         81.1488         4.97896 
        2.87462         79.8682         4.91145 
        2.89033         79.4772         4.84512 
        2.90605         78.4852         4.77997 
        2.92176         77.7117         4.71605 
        2.93747         76.6469         4.65333 
        2.95318         76.0905         4.59174 
        2.96891         75.4048         4.53123 
        2.98456         74.5366         4.47208 
        3.00023         73.4467          4.4139 
        3.01596         72.9669         4.35658 
        3.03164         72.0687         4.30043 
        3.04738          71.122         4.24512 
         3.0631         70.6233         4.19079 
        3.07883         69.9573         4.13741 
        3.09456         68.8787         4.08497 
        3.11026         68.4818         4.03352 
        3.12596         67.6114         3.98296 
        3.14163          67.142         3.93338 
        3.15734         66.1015         3.88453 
        3.17308         65.6024          3.8364 
        3.18879         64.8818         3.78921 
        3.20447         64.3614         3.74288 
         3.2202         63.3866         3.69718 
         3.2359         63.0938         3.65233 
        3.25157         62.1707         3.60833 
        3.26729         61.5747         3.56492 
        3.28304         60.9534         3.52214 
        3.29877         60.3464         3.48011 
        3.31446         59.7452         3.43887 
        3.33014         59.1182         3.39833 
        3.34585         58.5346         3.35837 
        3.36158         57.9624         3.31901 
        3.37727         57.4192         3.28039 
        3.39294         56.9458         3.24243 
        3.40867         56.3397         3.20493 
        3.42439         55.6584         3.16804 
        3.44008         55.1286         3.13181 
        3.45578         54.6443         3.09611 
        3.47153         54.1152         3.06089 
        3.48724         53.4786         3.02628 
        3.50292         53.1176         2.99229 
        3.51859         52.6161         2.95884 
        3.53431         52.0443         2.92579 
        3.55007         51.4733         2.89317 
        3.56577         50.8415         2.86117 
        3.58146         50.3461         2.82967 
        3.59719         49.9487         2.79857 
        3.61292         49.6168         2.76795 
        3.62859          49.083          2.7379 
        3.64429         48.4589         2.70824 
        3.66003          48.188         2.67893 
        3.67578         47.6396         2.65006 
        3.69146         47.2254         2.62173 
        3.70712         46.8634         2.59386 
        3.72284         46.1929          2.5663 
        3.73853         45.9323         2.53918 
        3.75422         45.3873         2.51244 
        3.76993         45.2263         2.48607 
        3.78564          44.656         2.46009 
        3.80137         44.2418         2.43443 
        3.81707          43.815         2.40919 
        3.83279         43.3485         2.38429 
        3.84853         42.9651         2.35971 
        3.86424         42.6035         2.33551 
        3.87992         42.1121         2.31169 
        3.89561         41.8664         2.28821 
        3.91134         41.4693           2.265 
        3.92704         41.0709         2.24214 
        3.94273         40.7579         2.21961 
        3.95845         40.3371         2.19736 
        3.97418         39.9187         2.17541 
        3.98988         39.5108         2.15378 
        4.00554         39.2713         2.13251 
        4.02125         39.0538         2.11146 
        4.03698         38.5811         2.09067 
        4.05268         38.2061          2.0702 
        4.06839         37.8444         2.04999 
         4.0841         37.5865         2.03006 
        4.09983         37.1876         2.01036 
        4.11555         36.9387         1.99094 
        4.13124         36.5383         1.97182 
        4.14693         36.2664         1.95294 
        4.16266         35.9316         1.93426 
        4.17839         35.5435         1.91583 
        4.19408          35.307         1.89769 
        4.20977         34.9595         1.87978 
        4.22551         34.6935         1.86205 
        4.24123         34.3183         1.84457 
        4.25691         34.0783         1.82736 
        4.27259          33.736         1.81037 
        4.28831         33.3588         1.79355 
        4.30404         33.1584         1.77694 
        4.31974         32.9788         1.76057 
        4.33543          32.571         1.74442 
        4.35116         32.4502         1.72843 
        4.36688         32.0531         1.71265 
        4.38255         31.8485         1.69712 
        4.39825         31.5382         1.68175 
        4.41398         31.2159         1.66654 
         4.4297         30.9879         1.65154 
        4.44541         30.6735         1.63672 
        4.46111         30.4907         1.62209 
        4.47683         30.2279         1.60764 
        4.49251          30.019         1.59339 
        4.50819         29.7551         1.57931 
         4.5239         29.4692         1.56539 
        4.53962         29.2272         1.55161 
        4.55535         28.9713           1.538 
        4.57106         28.7536         1.52456 
        4.58678         28.5259         1.51129 
         4.6025         28.2951         1.49817 
        4.61821         28.0834          1.4852 
        4.63391         27.8641         1.47241 
         4.6496         27.5395         1.45978 
        4.66532         27.3953         1.44727 
        4.68103         27.1313         1.43491 
        4.69673         26.9297         1.42271 
        4.71241         26.7378         1.41066 
        4.72811         26.4572         1.39874 
        4.74384         26.2797         1.38693 
        4.75955          26.104         1.37528 
        4.77525         25.8721         1.36377 
        4.79096         25.7156         1.35238 
        4.80669          25.466         1.34111 
         4.8224         25.2662         1.32999 
        4.83809         25.0364           1.319 
        4.85379         24.8538         1.30813 
         4.8695         24.6651         1.29737 
        4.88521         24.4556         1.28674 
        4.90093         24.2215         1.27622 
        4.91663         24.1324         1.26583 
        4.93234         23.8962         1.25555 
        4.94807         23.7126         1.24537 
        4.96377         23.5381         1.23533 
        4.97943         23.3349         1.22542 
        4.99514         23.2092         1.21559 
        5.01086         22.9759         1.20586 
        5.02654         22.7598         1.19626 
        5.04227         22.6001         1.18674 
          5.058         22.4523         1.17732 
        5.07371         22.2336         1.16801 
        5.08942         22.0792         1.15881 
        5.10513         21.9146         1.14971 
        5.12084         21.7673         1.14069 
        5.13656         21.6222         1.13178 
        5.15225         21.4241         1.12298 
        5.16796          21.283         1.11426 
        5.18369         21.1377         1.10562 
         5.1994         20.9329         1.09708 
        5.21509         20.7872         1.08865 
        5.23079         20.6373          1.0803 
        5.24649         20.5344         1.07203 
        5.26217         20.3139         1.06387 
        5.27788         20.1984         1.05577 
        5.29359         20.0275         1.04776 
        5.30933         19.8835         1.03982 
        5.32504         19.7143         1.03197 
        5.34073         19.5997         1.02421 
        5.35646         19.4397         1.01652 
        5.37218         19.2743         1.00891 
        5.38789           19.12         1.00138 
        5.40357          19.016        0.993943 
        5.41929         18.8309        0.986563 
        5.43502          18.717        0.979257 
         5.4507         18.5694        0.972042 
        5.46639         18.4576        0.964899 
        5.48212         18.3628        0.957811 
        5.49786         18.1321        0.950785 
        5.51353         18.0194        0.943865 
        5.52921         17.9061        0.937007 
        5.54495         17.7721        0.930196 
        5.56066         17.6624        0.923461 
        5.57637         17.5054        0.916793 
        5.59207          17.401        0.910197 
        5.60778         17.2692        0.903664 
        5.62346         17.1247        0.897203 
        5.63916          16.994        0.890799 
        5.65487         16.9046        0.884455 
         5.6706         16.7575        0.878165 
        5.68633         16.6353        0.871934 
        5.70203         16.5739        0.865776 
        5.71773         16.4478        0.859678 
        5.73344         16.3094        0.853636 
        5.74916         16.1804        0.847646 
        5.76486         16.0794        0.841722 
        5.78054         15.9401        0.835864 
        5.79626         15.8486        0.830045 
          5.812         15.7356        0.824275 
         5.8277         15.6096        0.818577 
        5.84339         15.5128        0.812933 
        5.85911         15.3928        0.807332 
        5.87484         15.2721        0.801784 
        5.89053         15.1493        0.796299 
        5.90623         15.0854        0.790863 
        5.92195         14.9462        0.785468 
        5.93767         14.8488        0.780126 
        5.95336         14.7523        0.774843 
        5.96905         14.6375        0.769611 
        5.98476         14.5462        0.764419 
        6.00048         14.4375        0.759274 
        6.01617         14.3566        0.754183 
        6.03185          14.246        0.749145 
        6.04756          14.155         0.74414 
        6.06331         14.0379        0.739171 
        6.07903         13.9578        0.734258 
        6.09473         13.8503        0.729393 
        6.11044         13.7686        0.724569 
        6.12616         13.6583        0.719788 
        6.14186         13.5645        0.715056 
        6.15755         13.4821        0.710366 
        6.17326         13.3967        0.705715 
        6.18898           13.29        0.701103 
        6.20467         13.2206        0.696541 
        6.22036         13.1081        0.692019 
         6.2361         13.0477        0.687526 
         6.2518         12.9435        0.683079 
        6.26748         12.8528        0.678682 
        6.28319         12.7642        0.674311 
        6.29893         12.6797        0.669975 
        6.31463         12.6117        0.665684 
        6.33033         12.5134        0.661433 
        6.34604         12.4227        0.657215 
        6.36177         12.3351         0.65303 
        6.37747         12.2637        0.648889 
