# k  (h/Mpc)    Pcb(k)  (Mpc/h)^3    Pcb_linear(k) (Mpc/h)^3   ShotnoiseSubtracted = true
      0.0200456           17570         17849.1 
      0.0350414         12071.1           11641 
      0.0492313         7797.43         7862.93 
      0.0637834          6252.9          6476.1 
      0.0800726         4901.04         5146.73 
       0.096163         3751.95         3552.76 
       0.111083         2946.05         2723.82 
       0.126058         2459.27          2444.1 
       0.142273          2151.2         2099.37 
       0.158546         1731.32         1610.07 
        0.17375         1497.47         1315.37 
       0.188953         1403.82         1197.91 
       0.204907         1202.79         1077.34 
       0.220756         1076.87         900.833 
        0.23588         949.643         765.462 
         0.2514         847.197         693.085 
       0.267535         822.375         634.455 
       0.283568         720.021         558.314 
       0.299022         683.884         490.371 
       0.314451         700.212         445.224 
       0.330372         600.916         410.494 
       0.346141         553.418         373.138 
       0.361624         528.327         336.757 
       0.377134         499.281          307.91 
       0.392932          478.14         285.004 
       0.408854         456.594         263.109 
       0.424564         442.106         241.822 
       0.440253          401.55         223.204 
       0.455999          383.15         207.636 
       0.471626         388.142         193.705 
        0.48727         365.048         180.373 
       0.502856           339.8         168.184 
       0.518488         336.989         157.444 
       0.534347         316.327         147.649 
       0.550082         302.711         138.604 
       0.565732         300.986         130.226 
       0.581496         289.044         122.566 
       0.597222         280.411         115.611 
       0.612804         271.999         109.241 
       0.628434         262.334         103.283 
       0.644267         251.191         97.6956 
       0.660051         248.097         92.5704 
       0.675724         242.469         87.8524 
       0.691403         237.476         83.4575 
       0.707174          228.15         79.3371 
       0.722871         224.313         75.5098 
        0.73838         221.036         71.9749 
       0.754018         211.912         68.6387 
       0.769845         211.578         65.4772 
        0.78569         205.014         62.5116 
       0.801365         198.707         59.7588 
       0.817031         196.695         57.1741 
       0.832809         192.136         54.7265 
       0.848511         187.469          52.434 
       0.864097         182.236         50.2892 
       0.879701         181.687          48.263 
       0.895507         177.373         46.3251 
       0.911279         172.421         44.4981 
        0.92691         169.462         42.7853 
       0.942635         167.785         41.1536 
       0.958396         163.752         39.6038 
       0.974128         161.361         38.1371 
       0.989692         155.675         36.7593 
        1.00528         155.295         35.4479 
        1.02113         152.384         34.1801 
        1.03692         149.003         32.9792 
        1.05264         146.279         31.8417 
        1.06832         145.737         30.7597 
        1.08405         141.724         29.7253 
        1.09979         140.435          28.738 
        1.11537         138.293         27.8055 
        1.13105         135.525         26.9089 
        1.14679         134.066         26.0485 
        1.16256         131.306         25.2241 
        1.17828         130.002         24.4383 
        1.19395         126.956         23.6886 
         1.2097         125.919         22.9667 
        1.22537         124.704         22.2784 
          1.241         121.215         21.6205 
        1.25666         120.203         20.9876 
        1.27241         117.369         20.3772 
        1.28819         116.279         19.7901 
        1.30392         114.868         19.2278 
        1.31957         112.269           18.69 
        1.33529         110.573         18.1709 
        1.35108         109.583         17.6694 
        1.36674         107.581         17.1905 
         1.3824         106.785         16.7299 
        1.39811          104.97         16.2846 
        1.41389         103.106         15.8539 
        1.42964         101.452         15.4395 
        1.44531         100.653          15.042 
        1.46101         98.5306         14.6577 
        1.47667         98.2988          14.288 
        1.49229         97.0767          13.932 
        1.50793         95.1403         13.5878 
        1.52367         93.8271          13.253 
        1.53953         92.7281         12.9273 
        1.55526         91.7167         12.6152 
        1.57092         90.9083         12.3147 
        1.58662         89.3446         12.0232 
        1.60235         88.1012         11.7407 
        1.61809          87.268         11.4671 
        1.63369         85.6471         11.2047 
        1.64941         85.5545         10.9486 
        1.66519         84.0047         10.6996 
        1.68085         82.3708         10.4601 
        1.69652         81.5841          10.228 
        1.71228         80.4561         10.0015 
        1.72806         79.9657         9.78175 
        1.74368         78.4226          9.5708 
        1.75933         77.8589         9.36567 
        1.77505         76.9041         9.16559 
        1.79081         75.6073         8.97102 
         1.8065         74.5974         8.78293 
        1.82218         73.8826         8.60041 
        1.83797         73.4721         8.42184 
        1.85367         71.9225         8.24932 
        1.86928         71.4745         8.08269 
        1.88497         70.4194         7.91975 
        1.90073         69.6871          7.7607 
        1.91647         68.7565         7.60618 
        1.93218         67.8561         7.45619 
        1.94787         66.8108         7.31047 
        1.96363         66.1393         7.16807 
        1.97935         65.6306         7.02976 
        1.99499         64.9848         6.89589 
        2.01064         63.6846         6.76532 
         2.0264         63.0976          6.6373 
        2.04216         62.1197         6.51267 
        2.05781         61.5299         6.39203 
        2.07353         60.8695         6.27401 
        2.08928         60.1992         6.15872 
        2.10499         59.3036         6.04664 
        2.12065         59.0075         5.93769 
        2.13633         58.0862         5.83133 
        2.15211         57.2844         5.72689 
        2.16785         56.3524          5.6253 
        2.18349         55.9535         5.52682 
        2.19916         55.3104         5.43049 
        2.21489         54.5533         5.33613 
        2.23063         53.8206         5.24396 
         2.2463         53.4668         5.15438 
        2.26194         53.0269         5.06712 
        2.27765         52.1786         4.98143 
        2.29341         51.6694          4.8975 
        2.30914          50.961         4.81568 
        2.32486         50.4028         4.73577 
        2.34061         49.7116         4.65755 
        2.35635         49.3507         4.58116 
        2.37203         48.5409         4.50676 
        2.38768         48.2343         4.43415 
        2.40339         47.7131         4.36289 
        2.41914         46.8173         4.29303 
        2.43483         46.6644         4.22494 
         2.4505         46.2072         4.15845 
        2.46622         45.5479         4.09316 
        2.48195         45.0051         4.02927 
        2.49759         44.5907         3.96708 
        2.51328         44.1397         3.90605 
        2.52906         43.6141         3.84591 
        2.54479         43.1054         3.78726 
        2.56049         42.2975         3.72995 
        2.57618         42.0661         3.67388 
        2.59189         41.6797         3.61887 
        2.60758         41.1311         3.56508 
        2.62325          40.774         3.51245 
        2.63898         40.3997         3.46069 
        2.65468         39.9122         3.41009 
        2.67044         39.5067         3.36028 
        2.68618           39.13         3.31159 
        2.70184         38.5775         3.26405 
        2.71755         38.0447         3.21733 
        2.73329         37.8624         3.17145 
        2.74897         37.5436         3.12661 
        2.76462         37.1251         3.08274 
        2.78034         36.6818         3.03953 
        2.79607         36.1141         2.99711 
        2.81179         35.7742         2.95554 
        2.82749         35.5407         2.91481 
        2.84321         35.2001          2.8748 
        2.85893         34.6968         2.83555 
        2.87462          34.252          2.7971 
        2.89033         33.8952         2.75933 
        2.90605         33.6078         2.72223 
        2.92176         33.3478         2.68582 
        2.93747         32.9631          2.6501 
        2.95318         32.6157         2.61503 
        2.96891         32.2273         2.58057 
        2.98456         32.0148         2.54688 
        3.00023         31.6259         2.51375 
        3.01596         31.2897          2.4811 
        3.03164         30.9758         2.44913 
        3.04738           30.61         2.41762 
         3.0631         30.4726         2.38668 
        3.07883         30.0552         2.35628 
        3.09456          29.743         2.32642 
        3.11026         29.2801         2.29712 
        3.12596         29.1286         2.26832 
        3.14163         28.8467         2.24009 
        3.15734         28.5731         2.21227 
        3.17308         28.3367         2.18485 
        3.18879         27.9875         2.15798 
        3.20447          27.609          2.1316 
         3.2202         27.4217         2.10557 
         3.2359         27.2251         2.08003 
        3.25157         26.8984         2.05497 
        3.26729         26.5784         2.03025 
        3.28304         26.3702         2.00588 
        3.29877         26.0473         1.98195 
        3.31446         25.7985         1.95846 
        3.33014         25.5481         1.93537 
        3.34585         25.2718         1.91262 
        3.36158         25.0953          1.8902 
        3.37727         24.8301         1.86821 
        3.39294         24.5814         1.84659 
        3.40867         24.3659         1.82523 
        3.42439         24.1782         1.80422 
        3.44008           23.94         1.78358 
        3.45578         23.6943         1.76326 
        3.47153         23.5018          1.7432 
        3.48724         23.2059         1.72349 
        3.50292         23.0336         1.70413 
        3.51859          22.829         1.68508 
        3.53431         22.5526         1.66626 
        3.55007         22.3473         1.64768 
        3.56577         22.0932         1.62945 
        3.58146         21.8476         1.61152 
        3.59719         21.7752          1.5938 
        3.61292         21.5421         1.57637 
        3.62859          21.296         1.55925 
        3.64429         21.0986         1.54236 
        3.66003         20.8969         1.52567 
        3.67578         20.7383         1.50923 
        3.69146         20.5569         1.49309 
        3.70712          20.368         1.47722 
        3.72284         20.2347         1.46152 
        3.73853         20.0504         1.44608 
        3.75422         19.8266         1.43085 
        3.76993         19.6654         1.41583 
        3.78564         19.4025         1.40104 
        3.80137          19.232         1.38642 
        3.81707         19.0598         1.37205 
        3.83279         18.8598         1.35787 
        3.84853         18.7729         1.34387 
        3.86424         18.5674         1.33009 
        3.87992           18.38         1.31653 
        3.89561         18.2572         1.30315 
        3.91134         18.0796         1.28993 
        3.92704         17.8965         1.27691 
        3.94273         17.6978         1.26409 
        3.95845         17.5988         1.25141 
        3.97418         17.4579         1.23891 
        3.98988         17.2467         1.22659 
        4.00554         17.1225         1.21448 
        4.02125         16.9566         1.20249 
        4.03698         16.7734         1.19065 
        4.05268         16.6582         1.17899 
        4.06839          16.497         1.16748 
         4.0841         16.3672         1.15613 
        4.09983         16.2411         1.14492 
        4.11555         16.0803         1.13385 
        4.13124         15.9225         1.12296 
        4.14693         15.8007         1.11221 
        4.16266         15.6854         1.10157 
        4.17839         15.5415         1.09108 
        4.19408          15.424         1.08075 
        4.20977         15.2768         1.07055 
        4.22551         15.1234         1.06045 
        4.24123         15.0009          1.0505 
        4.25691         14.8644          1.0407 
        4.27259         14.7303         1.03102 
        4.28831         14.6088         1.02144 
        4.30404         14.5052         1.01198 
        4.31974         14.3569         1.00266 
        4.33543         14.2609        0.993458 
        4.35116         14.1231        0.984352 
        4.36688         14.0121        0.975363 
        4.38255         13.9144        0.966521 
        4.39825         13.7831        0.957768 
        4.41398         13.6882        0.949106 
         4.4297         13.5568        0.940561 
        4.44541         13.4395        0.932122 
        4.46111         13.3034        0.923793 
        4.47683         13.2016         0.91556 
        4.49251         13.0985        0.907444 
        4.50819         12.9848        0.899429 
         4.5239         12.8994        0.891498 
        4.53962         12.7867        0.883653 
        4.55535         12.6789        0.875899 
        4.57106         12.5646        0.868249 
        4.58678          12.456        0.860689 
         4.6025         12.3609        0.853217 
        4.61821         12.2585        0.845834 
        4.63391         12.1374        0.838549 
         4.6496         12.0333        0.831352 
        4.66532         11.9408        0.824229 
        4.68103         11.8703        0.817192 
        4.69673         11.7795        0.810244 
        4.71241         11.6762        0.803383 
        4.72811         11.5748        0.796591 
        4.74384         11.5179        0.789868 
        4.75955         11.3743        0.783234 
        4.77525         11.2992        0.776679 
        4.79096         11.2134        0.770191 
        4.80669         11.1076        0.763774 
         4.8224         11.0621        0.757437 
        4.83809         10.9428        0.751179 
        4.85379         10.8864        0.744987 
         4.8695         10.7847        0.738861 
        4.88521         10.7172        0.732805 
        4.90093         10.6292        0.726817 
        4.91663         10.5441        0.720901 
        4.93234         10.4694        0.715045 
        4.94807         10.3862        0.709249 
        4.96377         10.3038        0.703529 
        4.97943         10.2091        0.697884 
        4.99514         10.1219        0.692286 
        5.01086         10.0425        0.686745 
        5.02654         9.99208        0.681279 
        5.04227         9.89609        0.675856 
          5.058         9.81189         0.67049 
        5.07371         9.75947        0.665192 
        5.08942         9.69605        0.659951 
        5.10513         9.60677        0.654766 
        5.12084         9.52183        0.649634 
        5.13656         9.45904        0.644558 
        5.15225         9.38535        0.639544 
        5.16796         9.33073        0.634576 
        5.18369         9.25198        0.629656 
         5.1994         9.18489        0.624798 
        5.21509         9.10068        0.619994 
        5.23079         9.04512        0.615236 
        5.24649         8.96022        0.610531 
        5.26217         8.90271        0.605879 
        5.27788         8.83111        0.601268 
        5.29359         8.77371        0.596705 
        5.30933         8.70464        0.592182 
        5.32504         8.64602        0.587714 
        5.34073         8.57679        0.583297 
        5.35646         8.51465        0.578916 
        5.37218         8.44444        0.574579 
        5.38789          8.3739        0.570294 
        5.40357         8.33175        0.566057 
        5.41929         8.27724        0.561854 
        5.43502          8.2228        0.557693 
         5.4507         8.14731        0.553585 
        5.46639         8.08877        0.549517 
        5.48212         8.02576         0.54548 
        5.49786         7.96138        0.541479 
        5.51353         7.91729        0.537538 
        5.52921         7.87829        0.533632 
        5.54495         7.79396        0.529753 
        5.56066         7.75106        0.525917 
        5.57637         7.69431         0.52212 
        5.59207         7.62317        0.518364 
        5.60778         7.58092        0.514643 
        5.62346          7.5311        0.510963 
        5.63916         7.48172        0.507316 
        5.65487         7.41601        0.503703 
         5.6706         7.36932        0.500121 
        5.68633            7.31        0.496572 
        5.70203         7.28079        0.493065 
        5.71773         7.22075        0.489593 
        5.73344         7.17152        0.486152 
        5.74916         7.10444        0.482741 
        5.76486          7.0697        0.479367 
        5.78054         7.02289         0.47603 
        5.79626         6.94914        0.472716 
          5.812         6.91823        0.469431 
         5.8277         6.88502        0.466186 
        5.84339         6.82939        0.462971 
        5.85911         6.78336        0.459781 
        5.87484         6.71932        0.456621 
        5.89053         6.68503        0.453498 
        5.90623         6.64552        0.450402 
        5.92195          6.5933        0.447329 
        5.93767          6.5564        0.444287 
        5.95336         6.51202        0.441278 
        5.96905         6.46058        0.438299 
        5.98476         6.42413        0.435342 
        6.00048         6.36264        0.432412 
        6.01617         6.32783        0.429512 
        6.03185         6.28774        0.426643 
        6.04756           6.239        0.423793 
        6.06331         6.20529        0.420963 
        6.07903         6.15711        0.418165 
        6.09473         6.11503        0.415394 
        6.11044         6.09017        0.412647 
        6.12616         6.05129        0.409924 
        6.14186         6.01535        0.407229 
        6.15755          5.9728        0.404558 
        6.17326         5.94217         0.40191 
        6.18898         5.88055        0.399283 
        6.20467         5.85919        0.396685 
        6.22036         5.81505         0.39411 
         6.2361         5.77716        0.391551 
         6.2518         5.73464        0.389018 
        6.26748         5.69548        0.386514 
        6.28319         5.66027        0.384025 
        6.29893         5.62116        0.381555 
        6.31463         5.58773        0.379112 
        6.33033         5.55755        0.376691 
        6.34604         5.51784        0.374289 
        6.36177         5.47968        0.371905 
        6.37747         5.44168        0.369547 
