# k  (h/Mpc)    Pcb(k)  (Mpc/h)^3    Pcb_linear(k) (Mpc/h)^3   ShotnoiseSubtracted = true
      0.0200456         25801.9         26458.9 
      0.0350414         18247.1         19234.7 
      0.0492313         13614.8         13975.6 
      0.0637834         11837.5         11617.8 
      0.0800726         9329.93         9220.73 
       0.096163          6457.3         6690.44 
       0.111083         5219.66         5336.47 
       0.126058          4795.2          4729.2 
       0.142273         4155.74         4006.67 
       0.158546         3691.68         3164.43 
        0.17375         2963.48         2666.03 
       0.188953         2904.23         2414.03 
       0.204907         2727.07         2135.92 
       0.220756         2374.58         1807.12 
        0.23588         2136.92         1572.04 
         0.2514         1867.97         1428.18 
       0.267535         1873.36         1292.26 
       0.283568         1699.15          1139.6 
       0.299022         1614.71         1015.32 
       0.314451         1537.48         927.937 
       0.330372         1405.96         851.278 
       0.346141         1372.36         772.665 
       0.361624         1318.66         702.246 
       0.377134         1232.84         646.177 
       0.392932         1177.98         597.895 
       0.408854         1162.62         551.144 
       0.424564         1069.72         507.997 
       0.440253         1048.71         470.972 
       0.455999         1026.46         438.778 
       0.471626          989.24         409.191 
        0.48727         949.625         381.515 
       0.502856         917.472         356.651 
       0.518488         915.275         334.467 
       0.534347         859.042         313.843 
       0.550082         844.906         294.827 
       0.565732         834.275          277.43 
       0.581496         793.922         261.496 
       0.597222         774.586         246.883 
       0.612804         764.685         233.447 
       0.628434          744.18         220.922 
       0.644267         725.216         209.213 
       0.660051         709.416         198.421 
       0.675724         699.654         188.456 
       0.691403         679.224         179.167 
       0.707174         656.528         170.452 
       0.722871         644.899         162.351 
        0.73838         633.672         154.863 
       0.754018          622.77         147.791 
       0.769845         612.596         141.084 
        0.78569         602.291         134.787 
       0.801365         585.595         128.938 
       0.817031         574.649         123.441 
       0.832809         567.183         118.231 
       0.848511         555.356         113.346 
       0.864097         537.233         108.773 
       0.879701         529.688         104.448 
       0.895507          528.45         100.309 
       0.911279          516.25         96.4037 
        0.92691         508.313         92.7396 
       0.942635         494.143         89.2466 
       0.958396         483.409         85.9269 
       0.974128         478.158         82.7829 
       0.989692         475.016         79.8279 
        1.00528         459.446         77.0133 
        1.02113         456.819          74.291 
        1.03692         446.989         71.7108 
        1.05264         440.772         69.2655 
        1.06832         430.244         66.9386 
        1.08405         424.612         64.7127 
        1.09979         418.402         62.5872 
        1.11537         411.671         60.5786 
        1.13105         405.271         58.6465 
        1.14679         393.952         56.7915 
        1.16256          386.44         55.0135 
        1.17828         385.471         53.3177 
        1.19395         377.523         51.6993 
         1.2097         367.492         50.1402 
        1.22537         362.041         48.6531 
          1.241         356.065          47.231 
        1.25666         353.134         45.8624 
        1.27241         346.356         44.5418 
        1.28819         339.325         43.2712 
        1.30392         333.862          42.054 
        1.31957          329.23         40.8891 
        1.33529          326.49         39.7643 
        1.35108         318.901         38.6775 
        1.36674         313.555         37.6391 
         1.3824         310.032           36.64 
        1.39811         304.531         35.6739 
        1.41389          301.16         34.7391 
        1.42964         296.531         33.8394 
        1.44531         293.679         32.9761 
        1.46101         286.171         32.1411 
        1.47667         282.361         31.3376 
        1.49229           279.3         30.5638 
        1.50793         272.357         29.8154 
        1.52367         271.008         29.0872 
        1.53953         265.235         28.3785 
        1.55526         262.492         27.6992 
        1.57092         259.267          27.045 
        1.58662         255.937         26.4103 
        1.60235         251.592         25.7949 
        1.61809         247.587         25.1988 
        1.63369         245.174         24.6269 
        1.64941         240.358         24.0687 
        1.66519         238.419         23.5258 
        1.68085         235.607         23.0036 
        1.69652         232.071         22.4971 
        1.71228          226.06          22.003 
        1.72806         223.284         21.5233 
        1.74368         219.977         21.0628 
        1.75933         218.022         20.6149 
        1.77505         215.319          20.178 
        1.79081         212.445          19.753 
         1.8065         207.538          19.342 
        1.82218         205.094         18.9431 
        1.83797         204.378         18.5528 
        1.85367         200.663         18.1756 
        1.86928         196.784         17.8112 
        1.88497         194.982         17.4548 
        1.90073         191.811         17.1069 
        1.91647         190.501         16.7688 
        1.93218         186.923         16.4405 
        1.94787          183.67         16.1216 
        1.96363         181.452         15.8098 
        1.97935         178.815          15.507 
        1.99499         177.038         15.2138 
        2.01064         174.473         14.9278 
         2.0264         173.067         14.6473 
        2.04216         170.632         14.3742 
        2.05781         168.172         14.1098 
        2.07353         166.272         13.8511 
        2.08928         162.753         13.5983 
        2.10499         161.884         13.3525 
        2.12065         159.653         13.1136 
        2.13633         156.916         12.8803 
        2.15211          154.96         12.6511 
        2.16785         153.788         12.4282 
        2.18349         151.827         12.2121 
        2.19916         149.594         12.0006 
        2.21489         148.033         11.7935 
        2.23063         145.945         11.5911 
         2.2463         143.748         11.3944 
        2.26194         141.492         11.2028 
        2.27765          140.28         11.0145 
        2.29341          138.34         10.8302 
        2.30914         137.092         10.6504 
        2.32486         135.264         10.4748 
        2.34061         133.469         10.3029 
        2.35635         131.872          10.135 
        2.37203         130.353         9.97137 
        2.38768         128.455         9.81174 
        2.40339         127.074         9.65502 
        2.41914         125.563         9.50137 
        2.43483         123.857         9.35161 
         2.4505         122.717         9.20533 
        2.46622         121.103         9.06168 
        2.48195         119.139         8.92108 
        2.49759         118.112         8.78422 
        2.51328         117.196         8.64988 
        2.52906         115.537          8.5175 
        2.54479         113.722         8.38839 
        2.56049         111.933          8.2622 
        2.57618         111.172         8.13872 
        2.59189         110.164         8.01758 
        2.60758         108.739         7.89909 
        2.62325         107.199         7.78315 
        2.63898         106.055         7.66913 
        2.65468           104.7         7.55763 
        2.67044         103.459         7.44788 
        2.68618         102.623         7.34056 
        2.70184          101.59         7.23578 
        2.71755         100.114         7.13279 
        2.73329         99.1269         7.03164 
        2.74897         97.9469         6.93279 
        2.76462         96.9045         6.83605 
        2.78034         95.5763         6.74077 
        2.79607         94.4554          6.6472 
        2.81179         93.9522         6.55551 
        2.82749         92.7844         6.46566 
        2.84321          91.354         6.37739 
        2.85893         90.5407         6.29079 
        2.87462          89.583         6.20596 
        2.89033           88.46         6.12261 
        2.90605          87.635         6.04071 
        2.92176         86.5294         5.96036 
        2.93747         85.7192         5.88151 
        2.95318         85.0595         5.80407 
        2.96891          84.198         5.72799 
        2.98456         83.1459         5.65362 
        3.00023         82.2506         5.58045 
        3.01596         81.1198         5.50835 
        3.03164         80.3708         5.43773 
        3.04738         79.4084         5.36814 
         3.0631         78.6306          5.2998 
        3.07883         77.6526         5.23264 
        3.09456         76.9659         5.16665 
        3.11026         76.2586         5.10191 
        3.12596         75.4488         5.03828 
        3.14163         74.6674         4.97588 
        3.15734         73.9229          4.9144 
        3.17308         73.0843          4.8538 
        3.18879         72.3779         4.79439 
        3.20447         71.4377         4.73607 
         3.2202         70.8239         4.67853 
         3.2359         70.0253         4.62205 
        3.25157         69.6236         4.56664 
        3.26729         68.7026         4.51197 
        3.28304          68.143         4.45808 
        3.29877         67.2462         4.40515 
        3.31446         66.6629         4.35319 
        3.33014         65.8647         4.30212 
        3.34585         65.0814         4.25178 
        3.36158         64.6135         4.20218 
        3.37727         64.0069         4.15352 
        3.39294         63.0918         4.10568 
        3.40867         62.7163         4.05842 
        3.42439         62.1101         4.01193 
        3.44008         61.2867         3.96626 
        3.45578         60.7751         3.92126 
        3.47153         60.1067         3.87686 
        3.48724         59.6834         3.83323 
        3.50292         59.1532         3.79037 
        3.51859         58.4399         3.74819 
        3.53431         57.8889         3.70652 
        3.55007         57.4173         3.66538 
        3.56577         56.8798         3.62502 
        3.58146          56.299         3.58529 
        3.59719         55.7659         3.54607 
        3.61292         55.2048         3.50744 
        3.62859         54.6757         3.46954 
        3.64429         54.2861         3.43212 
        3.66003          53.779         3.39514 
        3.67578         53.0375         3.35872 
        3.69146         52.7407         3.32297 
        3.70712         52.2883          3.2878 
        3.72284         51.7584         3.25302 
        3.73853         51.2905         3.21879 
        3.75422         50.6564         3.18505 
        3.76993          50.293         3.15176 
        3.78564         49.7479         3.11896 
        3.80137         49.3363         3.08657 
        3.81707         48.8333         3.05471 
        3.83279         48.4106         3.02328 
        3.84853         47.9634         2.99223 
        3.86424         47.6134         2.96168 
        3.87992           47.17         2.93161 
        3.89561         46.7828         2.90195 
        3.91134         46.3571         2.87264 
        3.92704         45.8353         2.84377 
        3.94273         45.4629         2.81532 
        3.95845         45.0419         2.78721 
        3.97418         44.6586         2.75948 
        3.98988         44.1626         2.73216 
        4.00554         43.8563         2.70529 
        4.02125         43.3606          2.6787 
        4.03698         42.9455         2.65242 
        4.05268         42.6281         2.62656 
        4.06839         42.1579         2.60103 
         4.0841         41.8804         2.57584 
        4.09983         41.5809         2.55095 
        4.11555          41.056          2.5264 
        4.13124         40.7391         2.50224 
        4.14693         40.4866         2.47837 
        4.16266          40.095         2.45476 
        4.17839         39.7876         2.43147 
        4.19408         39.3132         2.40854 
        4.20977         39.0248         2.38589 
        4.22551         38.7712         2.36348 
        4.24123         38.3694         2.34138 
        4.25691         38.0346         2.31962 
        4.27259          37.613         2.29813 
        4.28831         37.4323         2.27687 
        4.30404         37.1054         2.25586 
        4.31974         36.7732         2.23516 
        4.33543         36.4224         2.21474 
        4.35116         36.2072         2.19451 
        4.36688         35.9112         2.17455 
        4.38255         35.5069         2.15491 
        4.39825         35.2009         2.13547 
        4.41398         34.8883         2.11623 
         4.4297         34.6122         2.09725 
        4.44541         34.3027          2.0785 
        4.46111          34.043            2.06 
        4.47683         33.7485         2.04171 
        4.49251          33.496         2.02368 
        4.50819         33.1724         2.00587 
         4.5239         32.9939         1.98825 
        4.53962         32.6423         1.97082 
        4.55535         32.4079         1.95359 
        4.57106         32.1007         1.93659 
        4.58678         31.7457         1.91979 
         4.6025         31.6074         1.90318 
        4.61821         31.2907         1.88678 
        4.63391         31.0002         1.87059 
         4.6496         30.7625         1.85459 
        4.66532         30.5327         1.83876 
        4.68103         30.2832         1.82311 
        4.69673         30.0289         1.80767 
        4.71241         29.8155         1.79242 
        4.72811         29.6217         1.77732 
        4.74384         29.3073         1.76237 
        4.75955         29.0537         1.74762 
        4.77525          28.877         1.73305 
        4.79096         28.5881         1.71862 
        4.80669         28.4119         1.70435 
         4.8224         28.2112         1.69026 
        4.83809         27.9254         1.67635 
        4.85379         27.7274         1.66258 
         4.8695         27.5074         1.64895 
        4.88521         27.2855         1.63549 
        4.90093         27.0838         1.62217 
        4.91663         26.8068         1.60901 
        4.93234         26.5935         1.59598 
        4.94807          26.433         1.58309 
        4.96377          26.214         1.57037 
        4.97943         26.0361         1.55781 
        4.99514         25.7577         1.54536 
        5.01086         25.6488         1.53303 
        5.02654         25.3955         1.52087 
        5.04227         25.1901         1.50881 
          5.058         25.0621         1.49687 
        5.07371         24.8251         1.48508 
        5.08942         24.6153         1.47342 
        5.10513         24.4262         1.46188 
        5.12084         24.2807         1.45046 
        5.13656         24.0506         1.43916 
        5.15225         23.8713         1.42801 
        5.16796          23.707         1.41695 
        5.18369         23.5442           1.406 
         5.1994         23.3351         1.39519 
        5.21509         23.1691          1.3845 
        5.23079         22.9387         1.37391 
        5.24649          22.761         1.36343 
        5.26217         22.6277         1.35308 
        5.27788         22.4697         1.34282 
        5.29359         22.3162         1.33266 
        5.30933         22.1101         1.32259 
        5.32504         21.9283         1.31264 
        5.34073         21.7935         1.30281 
        5.35646          21.664         1.29305 
        5.37218         21.4861          1.2834 
        5.38789         21.2847         1.27386 
        5.40357         21.1376         1.26442 
        5.41929         20.9775         1.25507 
        5.43502         20.8724          1.2458 
         5.4507         20.7182         1.23665 
        5.46639          20.545         1.22759 
        5.48212           20.42          1.2186 
        5.49786         20.2152         1.20969 
        5.51353          20.086         1.20092 
        5.52921         19.9167         1.19222 
        5.54495         19.7417         1.18358 
        5.56066         19.6717         1.17503 
        5.57637         19.4883         1.16658 
        5.59207         19.3356         1.15821 
        5.60778         19.2356         1.14992 
        5.62346          19.074         1.14173 
        5.63916         18.9391          1.1336 
        5.65487         18.8105         1.12555 
         5.6706         18.6358         1.11757 
        5.68633          18.548         1.10967 
        5.70203         18.3693         1.10185 
        5.71773         18.2344         1.09412 
        5.73344          18.141         1.08645 
        5.74916         17.9862         1.07885 
        5.76486         17.8811         1.07133 
        5.78054         17.8018          1.0639 
        5.79626         17.6496         1.05651 
          5.812         17.4993         1.04919 
         5.8277          17.404         1.04196 
        5.84339         17.3104          1.0348 
        5.85911         17.1707         1.02769 
        5.87484         17.0177         1.02065 
        5.89053         16.9021         1.01369 
        5.90623         16.8242         1.00679 
        5.92195         16.7002        0.999938 
        5.93767         16.5913        0.993158 
        5.95336         16.4381        0.986452 
        5.96905         16.3222         0.97981 
        5.98476         16.2168         0.97322 
        6.00048         16.0941        0.966688 
        6.01617          15.969        0.960225 
        6.03185         15.9049        0.953829 
        6.04756         15.7495        0.947475 
        6.06331         15.6549        0.941167 
        6.07903         15.5248        0.934928 
        6.09473         15.4388        0.928752 
        6.11044          15.333        0.922626 
        6.12616         15.2161        0.916557 
        6.14186         15.1253        0.910548 
        6.15755         15.0256        0.904593 
        6.17326          14.928        0.898687 
        6.18898         14.8094         0.89283 
        6.20467         14.7113        0.887037 
        6.22036         14.6093        0.881295 
         6.2361         14.5129        0.875588 
         6.2518         14.4371        0.869941 
        6.26748         14.3372        0.864357 
        6.28319         14.2322        0.858805 
        6.29893         14.1246        0.853298 
        6.31463         14.0341        0.847849 
        6.33033         13.9396        0.842449 
        6.34604         13.8438        0.837092 
        6.36177         13.7597        0.831776 
        6.37747          13.648        0.826516 
