# k  (h/Mpc)    Pcb(k)  (Mpc/h)^3    Pcb_linear(k) (Mpc/h)^3   ShotnoiseSubtracted = true
      0.0200456         21413.2         21788.4 
      0.0350414         16334.9         15839.4 
      0.0492313         11265.3         11508.6 
      0.0637834         9082.15            9567 
      0.0800726         7128.26         7593.09 
       0.096163         5724.18         5509.45 
       0.111083         4661.89         4394.48 
       0.126058         3853.42          3894.4 
       0.142273         3373.94         3299.42 
       0.158546         2769.09         2605.85 
        0.17375         2472.66         2195.42 
       0.188953         2341.83         1987.91 
       0.204907         2013.72         1758.89 
       0.220756         1819.95         1488.13 
        0.23588         1624.38         1294.54 
         0.2514         1469.77         1176.08 
       0.267535         1418.99         1064.15 
       0.283568         1262.89         938.437 
       0.299022         1204.22         836.099 
       0.314451         1253.07         764.138 
       0.330372         1104.66         701.011 
       0.346141         1014.56         636.274 
       0.361624          973.47         578.286 
       0.377134         932.538         532.114 
       0.392932         890.013         492.355 
       0.408854           852.5         453.856 
       0.424564         833.676         418.326 
       0.440253         771.657         387.836 
       0.455999         737.787         361.325 
       0.471626         751.115         336.961 
        0.48727         708.561          314.17 
       0.502856         677.698         293.695 
       0.518488         659.278         275.427 
       0.534347          631.23         258.444 
       0.550082         601.952         242.784 
       0.565732           593.9         228.458 
       0.581496         581.125         215.337 
       0.597222         567.918         203.304 
       0.612804         554.467         192.239 
       0.628434         531.338         181.925 
       0.644267         515.963         172.283 
       0.660051         510.008         163.396 
       0.675724         499.289          155.19 
       0.691403         485.766         147.541 
       0.707174         470.126         140.364 
       0.722871         464.222         133.693 
        0.73838         454.891         127.527 
       0.754018         442.451         121.703 
       0.769845         437.568          116.18 
        0.78569         428.285         110.995 
       0.801365         413.434         106.178 
       0.817031          410.37         101.651 
       0.832809         403.819         97.3606 
       0.848511         396.584         93.3384 
       0.864097         386.843         89.5721 
       0.879701         385.255          86.011 
       0.895507         370.566         82.6024 
       0.911279         364.915         79.3865 
        0.92691         361.227         76.3692 
       0.942635         357.157         73.4928 
       0.958396         345.009         70.7591 
       0.974128         341.137         68.1701 
       0.989692         330.173         65.7366 
        1.00528         328.179          63.419 
        1.02113         322.611         61.1771 
        1.03692         317.223         59.0524 
        1.05264         312.225         57.0388 
        1.06832         306.737         55.1226 
        1.08405         303.806         53.2896 
        1.09979         297.931         51.5393 
        1.11537         290.183         49.8853 
        1.13105         286.706         48.2942 
        1.14679         282.318         46.7667 
        1.16256         280.526         45.3025 
        1.17828         275.695          43.906 
        1.19395         268.598         42.5734 
         1.2097          268.01         41.2894 
        1.22537         263.134         40.0648 
          1.241         256.962         38.8938 
        1.25666         254.826         37.7668 
        1.27241          250.97         36.6793 
        1.28819         245.697          35.633 
        1.30392         245.227         34.6306 
        1.31957         237.913         33.6714 
        1.33529         234.963         32.7451 
        1.35108         233.736         31.8501 
        1.36674         227.153         30.9951 
         1.3824         225.695         30.1723 
        1.39811         223.467         29.3768 
        1.41389         217.133         28.6069 
        1.42964         214.723         27.8661 
        1.44531         212.787         27.1551 
        1.46101         209.031         26.4676 
        1.47667          206.44         25.8059 
        1.49229         203.444         25.1687 
        1.50793         200.525         24.5524 
        1.52367          197.58         23.9527 
        1.53953         193.635         23.3692 
        1.55526         192.263         22.8097 
        1.57092         190.598          22.271 
        1.58662         186.035         21.7484 
        1.60235         184.153         21.2416 
        1.61809         181.748         20.7507 
        1.63369         178.271         20.2798 
        1.64941         176.031         19.8201 
        1.66519         173.809          19.373 
        1.68085         170.811          18.943 
        1.69652         169.193         18.5259 
        1.71228           166.3          18.119 
        1.72806         164.583          17.724 
        1.74368         162.416         17.3448 
        1.75933         161.248          16.976 
        1.77505         158.708         16.6162 
        1.79081         155.225         16.2662 
         1.8065         153.949         15.9277 
        1.82218         150.673         15.5993 
        1.83797         149.741         15.2778 
        1.85367         147.509         14.9673 
        1.86928         145.364         14.6672 
        1.88497         144.252         14.3737 
        1.90073         142.575         14.0872 
        1.91647         139.678         13.8088 
        1.93218         137.952         13.5385 
        1.94787         136.072         13.2758 
        1.96363         135.495         13.0191 
        1.97935         133.677         12.7697 
        1.99499         131.584         12.5282 
        2.01064         128.907         12.2927 
         2.0264         128.228         12.0617 
        2.04216          126.28         11.8368 
        2.05781         124.091         11.6191 
        2.07353         123.031         11.4061 
        2.08928         121.427         11.1979 
        2.10499         120.235         10.9955 
        2.12065         118.829         10.7988 
        2.13633         117.263         10.6066 
        2.15211         115.285          10.418 
        2.16785         114.042         10.2344 
        2.18349         112.616         10.0564 
        2.19916         111.329         9.88229 
        2.21489         110.027         9.71173 
        2.23063         108.249         9.54507 
         2.2463         106.938         9.38308 
        2.26194         106.034         9.22526 
        2.27765         104.493         9.07026 
        2.29341         103.458         8.91842 
        2.30914         102.329         8.77038 
        2.32486         100.451         8.62578 
        2.34061         99.5503          8.4842 
        2.35635         98.6279         8.34593 
        2.37203         96.8481         8.21122 
        2.38768         96.1706         8.07977 
        2.40339          94.753         7.95072 
        2.41914         93.5726         7.82419 
        2.43483         92.9441         7.70087 
         2.4505           91.55         7.58041 
        2.46622         90.3559         7.46211 
        2.48195         89.6318         7.34633 
        2.49759         88.2409         7.23363 
        2.51328         87.5451         7.12301 
        2.52906         86.2662         7.01399 
        2.54479         85.1662         6.90767 
        2.56049         84.0034         6.80376 
        2.57618          83.121         6.70207 
        2.59189         82.4308         6.60231 
        2.60758         80.9441         6.50475 
        2.62325         80.6715         6.40927 
        2.63898          79.582         6.31537 
        2.65468         78.6335         6.22356 
        2.67044         77.4222         6.13318 
        2.68618         76.6352          6.0448 
        2.70184         75.7182         5.95852 
        2.71755         75.0911         5.87371 
        2.73329         73.8793         5.79042 
        2.74897         73.3037         5.70901 
        2.76462         72.6476         5.62935 
        2.78034         71.2648         5.55089 
        2.79607         70.5595         5.47383 
        2.81179         70.0482         5.39833 
        2.82749         69.3389         5.32434 
        2.84321         68.4095         5.25165 
        2.85893         67.5641         5.18034 
        2.87462         66.9153         5.11048 
        2.89033         66.2402         5.04184 
        2.90605         65.6346         4.97441 
        2.92176         64.8633         4.90824 
        2.93747          64.297         4.84331 
        2.95318         63.1882         4.77954 
        2.96891         62.8057         4.71689 
        2.98456         61.9942         4.65564 
        3.00023         61.3624         4.59539 
        3.01596         60.9271         4.53602 
        3.03164         60.1351         4.47786 
        3.04738         59.8503         4.42056 
         3.0631         58.7643         4.36428 
        3.07883         58.3085         4.30897 
        3.09456         57.5792         4.25464 
        3.11026         57.0688         4.20132 
        3.12596         56.4651         4.14892 
        3.14163         55.7766         4.09754 
        3.15734          55.119         4.04691 
        3.17308         54.6925         3.99701 
        3.18879         54.1368         3.94809 
        3.20447         53.7219         3.90006 
         3.2202         52.9586         3.85268 
         3.2359         52.3313         3.80617 
        3.25157         52.0063         3.76054 
        3.26729         51.4023         3.71552 
        3.28304         50.7965         3.67114 
        3.29877         50.3711         3.62755 
        3.31446         49.9374         3.58477 
        3.33014         49.3658         3.54271 
        3.34585         48.8005         3.50126 
        3.36158         48.4721         3.46041 
        3.37727         47.8195         3.42034 
        3.39294         47.4669         3.38095 
        3.40867         46.9864         3.34203 
        3.42439         46.4412         3.30374 
        3.44008         45.8974         3.26613 
        3.45578         45.5952         3.22908 
        3.47153         45.0659         3.19252 
        3.48724         44.6473         3.15659 
        3.50292          44.247          3.1213 
        3.51859         43.7304         3.08656 
        3.53431         43.2051         3.05224 
        3.55007         42.8587         3.01837 
        3.56577         42.4723         2.98514 
        3.58146         41.9886         2.95242 
        3.59719         41.6063         2.92012 
        3.61292         41.1406         2.88831 
        3.62859         40.9057          2.8571 
        3.64429         40.5292         2.82628 
        3.66003         40.1635         2.79583 
        3.67578         39.7584         2.76584 
        3.69146         39.3591          2.7364 
        3.70712         38.9733         2.70744 
        3.72284         38.6717         2.67879 
        3.73853         38.2477         2.65061 
        3.75422         37.8889         2.62282 
        3.76993         37.5519         2.59541 
        3.78564          37.219          2.5684 
        3.80137         36.9213         2.54173 
        3.81707         36.4042         2.51549 
        3.83279         36.1979         2.48961 
        3.84853         35.8399         2.46404 
        3.86424         35.4183         2.43889 
        3.87992         35.1984         2.41412 
        3.89561         34.8916          2.3897 
        3.91134         34.6166         2.36556 
        3.92704         34.2504         2.34178 
        3.94273         33.9214         2.31836 
        3.95845         33.6678         2.29521 
        3.97418         33.3423         2.27237 
        3.98988         32.9599         2.24988 
        4.00554         32.7471         2.22775 
        4.02125         32.4928         2.20585 
        4.03698         32.1315         2.18422 
        4.05268          31.939         2.16292 
        4.06839         31.5079         2.14189 
         4.0841         31.3504         2.12115 
        4.09983          31.038         2.10065 
        4.11555         30.7695         2.08044 
        4.13124         30.4562         2.06054 
        4.14693         30.1948         2.04089 
        4.16266         29.9249         2.02145 
        4.17839         29.6779         2.00227 
        4.19408         29.4399         1.98338 
        4.20977         29.2068         1.96473 
        4.22551         28.8847         1.94628 
        4.24123         28.6577         1.92808 
        4.25691         28.4094         1.91016 
        4.27259         28.2416         1.89247 
        4.28831         27.8956         1.87496 
        4.30404         27.6972         1.85766 
        4.31974         27.4111         1.84061 
        4.33543         27.2327         1.82379 
        4.35116         27.0039         1.80714 
        4.36688         26.7294          1.7907 
        4.38255          26.595         1.77453 
        4.39825         26.2819         1.75852 
        4.41398         26.0795         1.74267 
         4.4297         25.8922         1.72704 
        4.44541         25.7374         1.71161 
        4.46111         25.4213         1.69637 
        4.47683         25.2276         1.68131 
        4.49251         25.0478         1.66646 
        4.50819         24.8713          1.6518 
         4.5239         24.5995         1.63729 
        4.53962         24.4627         1.62293 
        4.55535         24.2063         1.60874 
        4.57106         24.0194         1.59474 
        4.58678         23.8507         1.58091 
         4.6025         23.6164         1.56723 
        4.61821         23.4447         1.55372 
        4.63391         23.1538         1.54039 
         4.6496         23.0424         1.52722 
        4.66532         22.8837         1.51418 
        4.68103         22.6159          1.5013 
        4.69673          22.481         1.48858 
        4.71241         22.3178         1.47602 
        4.72811         22.1043         1.46359 
        4.74384          21.905         1.45128 
        4.75955         21.7713         1.43913 
        4.77525         21.5995         1.42713 
        4.79096         21.3886         1.41525 
        4.80669         21.2648          1.4035 
         4.8224         21.0621          1.3919 
        4.83809         20.8661         1.38044 
        4.85379         20.6995          1.3691 
         4.8695          20.579         1.35788 
        4.88521         20.3714         1.34679 
        4.90093         20.2428         1.33582 
        4.91663         20.0756         1.32499 
        4.93234         19.9419         1.31426 
        4.94807         19.7713         1.30365 
        4.96377         19.6692         1.29317 
        4.97943         19.4219         1.28283 
        4.99514         19.3076         1.27257 
        5.01086         19.1735         1.26242 
        5.02654         19.0291         1.25241 
        5.04227         18.8876         1.24247 
          5.058         18.6991         1.23264 
        5.07371         18.5457         1.22293 
        5.08942          18.404         1.21333 
        5.10513          18.305         1.20383 
        5.12084         18.1706         1.19442 
        5.13656         17.9747         1.18512 
        5.15225         17.8542         1.17594 
        5.16796         17.7218         1.16683 
        5.18369         17.5856         1.15781 
         5.1994         17.4832         1.14891 
        5.21509         17.3311         1.14011 
        5.23079         17.2229         1.13138 
        5.24649         17.0763         1.12276 
        5.26217         16.9781         1.11423 
        5.27788         16.8163         1.10578 
        5.29359         16.6894         1.09742 
        5.30933         16.5621         1.08913 
        5.32504         16.4249         1.08093 
        5.34073         16.3317         1.07284 
        5.35646         16.2048          1.0648 
        5.37218         16.0584         1.05685 
        5.38789         15.9364           1.049 
        5.40357          15.825         1.04123 
        5.41929         15.7194         1.03352 
        5.43502         15.5737         1.02589 
         5.4507         15.4767         1.01836 
        5.46639         15.3632          1.0109 
        5.48212         15.2689          1.0035 
        5.49786         15.1558        0.996158 
        5.51353         15.0654         0.98893 
        5.52921         14.9355        0.981766 
        5.54495         14.8305        0.974653 
        5.56066          14.705        0.967618 
        5.57637         14.5967        0.960653 
        5.59207         14.5017        0.953763 
        5.60778          14.395        0.946937 
        5.62346         14.2983        0.940188 
        5.63916         14.1887        0.933498 
        5.65487         14.0862         0.92687 
         5.6706         13.9648        0.920298 
        5.68633         13.8917        0.913788 
        5.70203         13.7913        0.907354 
        5.71773         13.6862        0.900983 
        5.73344          13.582         0.89467 
        5.74916         13.4942        0.888411 
        5.76486         13.4084        0.882221 
        5.78054         13.3173        0.876099 
        5.79626         13.1905        0.870018 
          5.812         13.1249        0.863989 
         5.8277         13.0203        0.858034 
        5.84339         12.9338        0.852135 
        5.85911         12.8353        0.846281 
        5.87484         12.7455        0.840483 
        5.89053         12.6467         0.83475 
        5.90623         12.5764        0.829068 
        5.92195         12.4567        0.823429 
        5.93767         12.3726        0.817846 
        5.95336         12.3155        0.812323 
        5.96905         12.2297        0.806854 
        5.98476         12.1613        0.801427 
        6.00048         12.0584        0.796048 
        6.01617         12.0012        0.790726 
        6.03185         11.8839        0.785459 
        6.04756          11.802        0.780227 
        6.06331         11.7419        0.775032 
        6.07903         11.6331        0.769895 
        6.09473         11.5705        0.764809 
        6.11044         11.4702        0.759764 
        6.12616         11.4011        0.754766 
        6.14186         11.3208        0.749818 
        6.15755         11.2541        0.744914 
        6.17326         11.1728        0.740051 
        6.18898         11.1024        0.735228 
        6.20467         11.0096        0.730457 
        6.22036         10.9412        0.725729 
         6.2361          10.862        0.721029 
         6.2518         10.8067        0.716379 
        6.26748         10.7416         0.71178 
        6.28319         10.6739        0.707209 
        6.29893         10.5924        0.702674 
        6.31463         10.5259        0.698187 
        6.33033         10.4536         0.69374 
        6.34604         10.3653        0.689328 
        6.36177         10.3201        0.684951 
        6.37747         10.2545         0.68062 
