# k  (h/Mpc)    Pcb(k)  (Mpc/h)^3    Pcb_linear(k) (Mpc/h)^3   ShotnoiseSubtracted = true
      0.0200456         22430.9         22829.7 
      0.0350414           17122         16596.4 
      0.0492313         11789.9         12058.6 
      0.0637834         9503.26         10024.2 
      0.0800726         7456.25         7955.99 
       0.096163          6000.2         5772.76 
       0.111083         4886.93          4604.5 
       0.126058         4038.09         4080.53 
       0.142273         3540.16          3457.1 
       0.158546         2904.87         2730.39 
        0.17375         2599.57         2300.35 
       0.188953         2467.18         2082.91 
       0.204907         2122.43         1842.95 
       0.220756         1920.07         1559.25 
        0.23588         1714.12         1356.41 
         0.2514         1553.34         1232.29 
       0.267535         1497.99         1115.01 
       0.283568         1336.07         983.288 
       0.299022         1273.44         876.059 
       0.314451         1326.74         800.658 
       0.330372         1174.43         734.514 
       0.346141          1078.3         666.683 
       0.361624         1034.55         605.924 
       0.377134         992.532         557.546 
       0.392932         945.611         515.886 
       0.408854         907.018         475.547 
       0.424564         887.596         438.319 
       0.440253         823.572         406.372 
       0.455999         787.351         378.594 
       0.471626         800.857         353.065 
        0.48727         755.852         329.185 
       0.502856         726.189         307.732 
       0.518488         703.941          288.59 
       0.534347         676.387         270.795 
       0.550082         644.877         254.388 
       0.565732         635.344         239.377 
       0.581496         621.806         225.629 
       0.597222         608.838          213.02 
       0.612804         594.004         201.426 
       0.628434         569.378          190.62 
       0.644267         553.615         180.517 
       0.660051         547.473         171.205 
       0.675724          536.12         162.607 
       0.691403         520.374         154.592 
       0.707174          504.66         147.072 
       0.722871         499.277         140.083 
        0.73838         488.108         133.622 
       0.754018          475.99          127.52 
       0.769845         470.103         121.733 
        0.78569         459.997           116.3 
       0.801365         444.356         111.252 
       0.817031         440.713         106.509 
       0.832809          433.72         102.014 
       0.848511         426.416         97.7993 
       0.864097         416.463          93.853 
       0.879701         415.477         90.1217 
       0.895507         399.115         86.5502 
       0.911279         393.597         83.1806 
        0.92691         389.094         80.0191 
       0.942635         384.434         77.0053 
       0.958396         371.826         74.1409 
       0.974128         367.051         71.4281 
       0.989692         356.251         68.8784 
        1.00528         353.211           66.45 
        1.02113         347.155          64.101 
        1.03692         341.734         61.8747 
        1.05264         336.644         59.7648 
        1.06832         329.634         57.7571 
        1.08405         327.726         55.8365 
        1.09979         320.744         54.0026 
        1.11537          312.32         52.2694 
        1.13105          308.78         50.6023 
        1.14679         303.607         49.0018 
        1.16256         301.859         47.4676 
        1.17828         296.731         46.0044 
        1.19395         289.144         44.6081 
         1.2097          287.77         43.2628 
        1.22537         282.812         41.9797 
          1.241         276.434         40.7526 
        1.25666         273.882         39.5718 
        1.27241         270.046         38.4323 
        1.28819         263.744          37.336 
        1.30392         263.678         36.2857 
        1.31957          255.97         35.2807 
        1.33529         252.736         34.3101 
        1.35108         251.363         33.3723 
        1.36674         244.439         32.4764 
         1.3824         242.342         31.6143 
        1.39811         239.677         30.7808 
        1.41389         233.557         29.9742 
        1.42964         230.707         29.1979 
        1.44531         228.413          28.453 
        1.46101         224.311         27.7325 
        1.47667         221.636         27.0393 
        1.49229         218.494         26.3716 
        1.50793         215.335         25.7258 
        1.52367         211.948         25.0975 
        1.53953         208.144          24.486 
        1.55526         206.205         23.8999 
        1.57092         204.417         23.3354 
        1.58662         199.681         22.7878 
        1.60235         197.495         22.2568 
        1.61809         195.271         21.7425 
        1.63369         191.508          21.249 
        1.64941         188.839         20.7674 
        1.66519         186.445         20.2989 
        1.68085         183.158         19.8483 
        1.69652         181.449         19.4113 
        1.71228         178.526          18.985 
        1.72806         176.551         18.5711 
        1.74368         174.248         18.1738 
        1.75933         173.048         17.7873 
        1.77505         170.281         17.4103 
        1.79081          166.82         17.0436 
         1.8065         165.692          16.689 
        1.82218         161.721         16.3448 
        1.83797          160.67          16.008 
        1.85367         158.239         15.6826 
        1.86928          155.89         15.3682 
        1.88497         154.576         15.0607 
        1.90073         152.916         14.7605 
        1.91647         149.829         14.4687 
        1.93218         147.764         14.1855 
        1.94787         145.894         13.9103 
        1.96363         145.255         13.6413 
        1.97935         143.403           13.38 
        1.99499         141.056          13.127 
        2.01064         138.126         12.8802 
         2.0264         137.669         12.6382 
        2.04216         135.328         12.4026 
        2.05781         132.906         12.1744 
        2.07353         132.108         11.9512 
        2.08928         130.359         11.7331 
        2.10499         129.047         11.5211 
        2.12065         127.534         11.3149 
        2.13633         125.602         11.1136 
        2.15211         123.577         10.9159 
        2.16785         122.324         10.7235 
        2.18349         120.956          10.537 
        2.19916         119.253         10.3546 
        2.21489         117.775         10.1759 
        2.23063          116.17         10.0013 
         2.2463         114.569         9.83153 
        2.26194         113.631         9.66616 
        2.27765         111.805         9.50376 
        2.29341         110.809         9.34466 
        2.30914         109.584         9.18954 
        2.32486         107.654         9.03803 
        2.34061         106.442         8.88969 
        2.35635         105.615         8.74481 
        2.37203         103.744         8.60366 
        2.38768          103.03         8.46593 
        2.40339         101.148         8.33071 
        2.41914           100.2         8.19813 
        2.43483         99.4619         8.06891 
         2.4505         98.0008          7.9427 
        2.46622         96.5589         7.81875 
        2.48195         95.7832         7.69744 
        2.49759         94.3117         7.57935 
        2.51328         93.4554         7.46344 
        2.52906         92.4102         7.34921 
        2.54479         91.1105         7.23781 
        2.56049         89.8947         7.12893 
        2.57618         89.0117         7.02239 
        2.59189         88.2556         6.91786 
        2.60758          86.734         6.81563 
        2.62325         86.3491         6.71559 
        2.63898         85.2333         6.61721 
        2.65468         84.2988           6.521 
        2.67044         83.1854          6.4263 
        2.68618         81.9974          6.3337 
        2.70184         81.0874          6.2433 
        2.71755         80.5311         6.15443 
        2.73329         79.1337         6.06716 
        2.74897         78.3884         5.98186 
        2.76462         77.9567          5.8984 
        2.78034         76.5029         5.81618 
        2.79607          75.612         5.73545 
        2.81179         75.0059         5.65634 
        2.82749         74.2765         5.57881 
        2.84321         73.1433         5.50265 
        2.85893         72.1252         5.42793 
        2.87462         71.6529         5.35473 
        2.89033         70.8095         5.28281 
        2.90605         70.0605         5.21215 
        2.92176         69.3828         5.14282 
        2.93747          68.643         5.07479 
        2.95318         67.5149         5.00797 
        2.96891         67.1138         4.94232 
        2.98456         66.1593         4.87815 
        3.00023         65.5383         4.81502 
        3.01596          65.021         4.75281 
        3.03164         64.1782         4.69187 
        3.04738          63.886         4.63183 
         3.0631         62.7391         4.57286 
        3.07883         62.3041         4.51491 
        3.09456         61.4429         4.45798 
        3.11026         60.9987         4.40211 
        3.12596         60.2515         4.34721 
        3.14163            59.6         4.29337 
        3.15734         58.7992         4.24032 
        3.17308         58.3846         4.18804 
        3.18879         57.8292         4.13678 
        3.20447         57.3497         4.08645 
         3.2202         56.4643         4.03681 
         3.2359         55.8635         3.98808 
        3.25157         55.5799         3.94026 
        3.26729         54.8955         3.89309 
        3.28304         54.1186          3.8466 
        3.29877         53.7757         3.80093 
        3.31446         53.1358         3.75609 
        3.33014         52.6884         3.71203 
        3.34585         52.1543          3.6686 
        3.36158         51.7957          3.6258 
        3.37727         51.1446         3.58381 
        3.39294         50.6087         3.54253 
        3.40867         50.1795         3.50175 
        3.42439         49.5921         3.46164 
        3.44008         49.0357         3.42223 
        3.45578         48.6142         3.38341 
        3.47153         48.1366          3.3451 
        3.48724         47.6684         3.30745 
        3.50292         47.2095         3.27047 
        3.51859         46.7707         3.23408 
        3.53431         46.2046         3.19812 
        3.55007         45.7273         3.16262 
        3.56577          45.269          3.1278 
        3.58146         44.7884         3.09352 
        3.59719         44.4168         3.05968 
        3.61292           43.87         3.02635 
        3.62859         43.5937         2.99365 
        3.64429          43.247         2.96136 
        3.66003         42.8718         2.92945 
        3.67578         42.3717         2.89803 
        3.69146          41.977         2.86718 
        3.70712         41.6482         2.83684 
        3.72284          41.227         2.80682 
        3.73853         40.8185         2.77729 
        3.75422         40.4039         2.74818 
        3.76993         40.0582         2.71945 
        3.78564         39.6678         2.69115 
        3.80137         39.4025         2.66321 
        3.81707         38.8608         2.63572 
        3.83279         38.6329         2.60859 
        3.84853         38.2018         2.58181 
        3.86424         37.7951         2.55545 
        3.87992         37.4559          2.5295 
        3.89561         37.1956         2.50391 
        3.91134          36.853         2.47862 
        3.92704         36.5032         2.45371 
        3.94273         36.1619         2.42916 
        3.95845          35.795         2.40491 
        3.97418         35.5268         2.38098 
        3.98988          35.159         2.35741 
        4.00554          34.828         2.33422 
        4.02125         34.6124         2.31128 
        4.03698          34.208         2.28861 
        4.05268         34.0243         2.26629 
        4.06839         33.6676         2.24426 
         4.0841         33.4353         2.22253 
        4.09983         33.0408         2.20105 
        4.11555          32.799         2.17987 
        4.13124         32.4011         2.15902 
        4.14693         32.1617         2.13843 
        4.16266         31.9222         2.11806 
        4.17839          31.598         2.09796 
        4.19408         31.3646         2.07818 
        4.20977         31.1178         2.05863 
        4.22551         30.7728          2.0393 
        4.24123         30.5543         2.02023 
        4.25691         30.2663         2.00146 
        4.27259         30.0272         1.98291 
        4.28831         29.7384         1.96457 
        4.30404         29.5157         1.94644 
        4.31974         29.2523         1.92858 
        4.33543         29.0165         1.91096 
        4.35116          28.753         1.89351 
        4.36688         28.4636         1.87628 
        4.38255          28.304         1.85934 
        4.39825         27.9993         1.84256 
        4.41398         27.7907         1.82596 
         4.4297         27.5425         1.80958 
        4.44541         27.4154         1.79341 
        4.46111         27.0439         1.77745 
        4.47683         26.8765         1.76166 
        4.49251         26.6765         1.74611 
        4.50819         26.4659         1.73074 
         4.5239          26.159         1.71554 
        4.53962         26.0155          1.7005 
        4.55535         25.7748         1.68563 
        4.57106         25.5377         1.67096 
        4.58678         25.3545         1.65647 
         4.6025         25.1662         1.64214 
        4.61821         25.0006         1.62798 
        4.63391         24.6956         1.61401 
         4.6496         24.5015         1.60021 
        4.66532         24.3428         1.58655 
        4.68103         24.1338         1.57305 
        4.69673         23.9417         1.55972 
        4.71241         23.7797         1.54656 
        4.72811         23.5635         1.53354 
        4.74384         23.3916         1.52064 
        4.75955         23.2226         1.50791 
        4.77525          22.989         1.49534 
        4.79096         22.7669         1.48289 
        4.80669         22.6613         1.47058 
         4.8224         22.4572         1.45842 
        4.83809         22.2288         1.44641 
        4.85379         22.0684         1.43453 
         4.8695         21.9243         1.42278 
        4.88521         21.6951         1.41116 
        4.90093         21.5994         1.39967 
        4.91663         21.3786         1.38831 
        4.93234         21.1965         1.37707 
        4.94807         21.0349         1.36595 
        4.96377         20.8951         1.35497 
        4.97943         20.7248         1.34414 
        4.99514         20.5903         1.33339 
        5.01086         20.4209         1.32276 
        5.02654         20.2577         1.31226 
        5.04227         20.1237         1.30185 
          5.058         19.9231         1.29155 
        5.07371         19.7377         1.28138 
        5.08942         19.5875         1.27132 
        5.10513         19.5085         1.26136 
        5.12084         19.3485         1.25151 
        5.13656         19.1775         1.24176 
        5.15225         19.0829         1.23214 
        5.16796         18.8921          1.2226 
        5.18369         18.7365         1.21315 
         5.1994          18.575         1.20382 
        5.21509         18.4411          1.1946 
        5.23079         18.3257         1.18546 
        5.24649         18.1808         1.17642 
        5.26217         18.0695         1.16749 
        5.27788         17.9298         1.15863 
        5.29359         17.7703         1.14987 
        5.30933         17.6185         1.14118 
        5.32504         17.5141          1.1326 
        5.34073         17.3598         1.12411 
        5.35646         17.2542         1.11569 
        5.37218         17.0922         1.10736 
        5.38789         16.9834         1.09913 
        5.40357         16.8548         1.09099 
        5.41929         16.7551         1.08292 
        5.43502         16.6091         1.07492 
         5.4507         16.4623         1.06703 
        5.46639          16.338         1.05921 
        5.48212         16.2395         1.05146 
        5.49786         16.1386         1.04377 
        5.51353         16.0483         1.03619 
        5.52921         15.9073         1.02869 
        5.54495         15.7825         1.02123 
        5.56066         15.6645         1.01386 
        5.57637         15.5578         1.00657 
        5.59207          15.428        0.999346 
        5.60778         15.3583        0.992194 
        5.62346         15.2251        0.985123 
        5.63916         15.1196        0.978113 
        5.65487          14.996        0.971168 
         5.6706          14.892        0.964283 
        5.68633         14.8028        0.957461 
        5.70203         14.6803        0.950719 
        5.71773         14.5846        0.944044 
        5.73344         14.4927        0.937429 
        5.74916         14.3739        0.930871 
        5.76486         14.2766        0.924385 
        5.78054         14.1599        0.917971 
        5.79626          14.055        0.911599 
          5.812         13.9943        0.905281 
         5.8277         13.8623        0.899042 
        5.84339         13.7778        0.892862 
        5.85911         13.6944        0.886728 
        5.87484         13.5696        0.880652 
        5.89053         13.4566        0.874645 
        5.90623         13.4081        0.868692 
        5.92195         13.2874        0.862783 
        5.93767         13.2142        0.856933 
        5.95336         13.1151        0.851147 
        5.96905         13.0295        0.845416 
        5.98476         12.9546         0.83973 
        6.00048         12.8536        0.834094 
        6.01617         12.7896        0.828517 
        6.03185         12.6698        0.822999 
        6.04756         12.5911        0.817517 
        6.06331         12.5135        0.812073 
        6.07903          12.407        0.806691 
        6.09473         12.3172        0.801362 
        6.11044         12.2409        0.796076 
        6.12616          12.158        0.790839 
        6.14186         12.0907        0.785654 
        6.15755         11.9966        0.780516 
        6.17326         11.9052         0.77542 
        6.18898          11.823        0.770367 
        6.20467         11.7241        0.765368 
        6.22036         11.6496        0.760414 
         6.2361          11.575         0.75549 
         6.2518         11.5031        0.750617 
        6.26748         11.4404        0.745799 
        6.28319         11.3634        0.741009 
        6.29893         11.2917        0.736257 
        6.31463         11.2117        0.731555 
        6.33033         11.1403        0.726896 
        6.34604         11.0397        0.722273 
        6.36177         10.9729        0.717687 
        6.37747         10.9152        0.713149 
