# k  (h/Mpc)    Pcb(k)  (Mpc/h)^3    Pcb_linear(k) (Mpc/h)^3   ShotnoiseSubtracted = true
      0.0200456         805.661         816.939 
      0.0350414         591.487         593.887 
      0.0492313         433.064         431.507 
      0.0637834         361.298         358.708 
      0.0800726         286.411         284.697 
       0.096163         206.193         206.573 
       0.111083         163.828         164.768 
       0.126058         146.527         146.018 
       0.142273         124.659         123.709 
       0.158546         98.9891         97.7043 
        0.17375         82.2517         82.3158 
       0.188953         75.1765         74.5351 
       0.204907         68.1019         65.9484 
       0.220756         56.9548         55.7963 
        0.23588         49.5628         48.5379 
         0.2514         44.5871         44.0962 
       0.267535         40.5853         39.8995 
       0.283568         36.0278          35.186 
       0.299022         32.3784         31.3489 
       0.314451         29.0422         28.6508 
       0.330372         26.8973         26.2839 
       0.346141         24.4366         23.8566 
       0.361624         22.3997         21.6824 
       0.377134         20.8359         19.9512 
       0.392932         18.6339         18.4605 
       0.408854         17.7448          17.017 
       0.424564         16.3553         15.6848 
       0.440253         15.1175         14.5416 
       0.455999         14.2169         13.5476 
       0.471626         13.3469         12.6341 
        0.48727         12.4295         11.7796 
       0.502856         11.5735         11.0119 
       0.518488         11.0376         10.3269 
       0.534347         10.4966         9.69015 
       0.550082         9.61005         9.10302 
       0.565732         8.88102         8.56587 
       0.581496         8.65047          8.0739 
       0.597222         8.25622         7.62272 
       0.612804         7.70178         7.20785 
       0.628434         7.40845         6.82115 
       0.644267         7.03727         6.45962 
       0.660051         6.63474         6.12641 
       0.675724          6.3099         5.81873 
       0.691403         6.07482         5.53193 
       0.707174         5.75152         5.26284 
       0.722871         5.49289         5.01272 
        0.73838         5.27662         4.78153 
       0.754018         5.09809         4.56317 
       0.769845         4.82458         4.35608 
        0.78569         4.64933         4.16167 
       0.801365         4.44066         3.98106 
       0.817031         4.28434         3.81133 
       0.832809          4.1209         3.65047 
       0.848511         3.90036         3.49965 
       0.864097         3.74726         3.35844 
       0.879701         3.61606         3.22492 
       0.895507         3.46969         3.09712 
       0.911279         3.40241         2.97654 
        0.92691         3.26609         2.86341 
       0.942635         3.12583         2.75556 
       0.958396         3.00734         2.65306 
       0.974128         2.91691         2.55599 
       0.989692         2.85001         2.46475 
        1.00528         2.72328         2.37785 
        1.02113         2.61972         2.29379 
        1.03692         2.57059         2.21413 
        1.05264         2.47389         2.13863 
        1.06832         2.40993         2.06678 
        1.08405         2.29261         1.99806 
        1.09979         2.24253         1.93243 
        1.11537         2.18217         1.87041 
        1.13105         2.12451         1.81076 
        1.14679         2.06545         1.75348 
        1.16256         1.98949         1.69858 
        1.17828         1.94124         1.64622 
        1.19395         1.88685         1.59626 
         1.2097           1.804         1.54812 
        1.22537         1.76836          1.5022 
          1.241         1.72719         1.45829 
        1.25666         1.70808         1.41604 
        1.27241         1.62643         1.37526 
        1.28819         1.58852         1.33603 
        1.30392         1.55902         1.29845 
        1.31957         1.51935         1.26248 
        1.33529         1.47166         1.22775 
        1.35108         1.43714          1.1942 
        1.36674         1.38856         1.16214 
         1.3824         1.36076         1.13129 
        1.39811         1.32582         1.10146 
        1.41389         1.30095          1.0726 
        1.42964         1.27067         1.04482 
        1.44531          1.2371         1.01816 
        1.46101         1.21351        0.992382 
        1.47667         1.16696        0.967574 
        1.49229         1.15775        0.943682 
        1.50793         1.12458        0.920573 
        1.52367         1.10444         0.89809 
        1.53953         1.06867         0.87621 
        1.55526          1.0484        0.855234 
        1.57092         1.02529        0.835034 
        1.58662         1.00714         0.81544 
        1.60235        0.982458        0.796438 
        1.61809        0.956978        0.778033 
        1.63369        0.950134        0.760375 
        1.64941        0.920365         0.74314 
        1.66519        0.904101        0.726378 
        1.68085        0.876693        0.710253 
        1.69652        0.861954        0.694614 
        1.71228        0.849773        0.679359 
        1.72806        0.824411         0.66455 
        1.74368        0.815482        0.650332 
        1.75933        0.794289        0.636503 
        1.77505        0.780812        0.623011 
        1.79081        0.765432        0.609888 
         1.8065        0.744705        0.597199 
        1.82218        0.736708        0.584884 
        1.83797        0.721824        0.572832 
        1.85367        0.714609        0.561186 
        1.86928        0.698258        0.549935 
        1.88497        0.681039        0.538932 
        1.90073        0.666312        0.528189 
        1.91647        0.661131         0.51775 
        1.93218        0.644889        0.507615 
        1.94787        0.632991        0.497767 
        1.96363        0.620504        0.488141 
        1.97935        0.608926         0.47879 
        1.99499        0.598523        0.469738 
        2.01064        0.587601        0.460906 
         2.0264        0.578141        0.452247 
        2.04216         0.56957        0.443814 
        2.05781        0.558428         0.43565 
        2.07353         0.54791        0.427663 
        2.08928        0.536276        0.419858 
        2.10499        0.530132         0.41227 
        2.12065        0.524672        0.404892 
        2.13633        0.514044        0.397688 
        2.15211        0.503697        0.390614 
        2.16785        0.494259        0.383731 
        2.18349        0.486713        0.377058 
        2.19916        0.480115        0.370529 
        2.21489        0.470706        0.364134 
        2.23063        0.463616        0.357886 
         2.2463        0.458827        0.351812 
        2.26194        0.445211        0.345894 
        2.27765        0.440738        0.340083 
        2.29341        0.435867         0.33439 
        2.30914         0.43112        0.328839 
        2.32486        0.421971        0.323417 
        2.34061         0.41503        0.318109 
        2.35635         0.40701        0.312925 
        2.37203        0.402025        0.307874 
        2.38768        0.396418        0.302945 
        2.40339        0.391064        0.298107 
        2.41914        0.385339        0.293362 
        2.43483        0.378866        0.288738 
         2.4505        0.372318        0.284222 
        2.46622        0.367338        0.279786 
        2.48195        0.364019        0.275445 
        2.49759        0.357696         0.27122 
        2.51328        0.351098        0.267072 
        2.52906        0.347618        0.262985 
        2.54479        0.341607        0.258998 
        2.56049         0.33556        0.255102 
        2.57618        0.332051        0.251289 
        2.59189        0.328156        0.247549 
        2.60758        0.324112        0.243891 
        2.62325        0.318452        0.240311 
        2.63898        0.314914         0.23679 
        2.65468        0.309622        0.233348 
        2.67044        0.305372        0.229959 
        2.68618        0.301212        0.226645 
        2.70184        0.297549         0.22341 
        2.71755        0.292572         0.22023 
        2.73329        0.289085        0.217107 
        2.74897        0.286007        0.214055 
        2.76462         0.28206        0.211069 
        2.78034        0.278033        0.208126 
        2.79607        0.274666        0.205237 
        2.81179        0.271171        0.202407 
        2.82749        0.267431        0.199632 
        2.84321        0.264833        0.196907 
        2.85893        0.260969        0.194233 
        2.87462        0.257355        0.191614 
        2.89033        0.253875         0.18904 
        2.90605         0.25154        0.186512 
        2.92176        0.247864        0.184031 
        2.93747        0.244701        0.181596 
        2.95318        0.242194        0.179205 
        2.96891        0.239031        0.176856 
        2.98456        0.235997         0.17456 
        3.00023        0.233777        0.172301 
        3.01596        0.230371        0.170075 
        3.03164        0.228308        0.167894 
        3.04738        0.224205        0.165746 
         3.0631        0.222798        0.163635 
        3.07883        0.219206        0.161562 
        3.09456        0.216879        0.159524 
        3.11026        0.215179        0.157525 
        3.12596        0.211621        0.155561 
        3.14163        0.209929        0.153634 
        3.15734         0.20809        0.151736 
        3.17308        0.205521        0.149865 
        3.18879        0.203573        0.148031 
        3.20447        0.199844         0.14623 
         3.2202        0.198982        0.144453 
         3.2359         0.19638        0.142709 
        3.25157        0.194597        0.140999 
        3.26729         0.19207        0.139311 
        3.28304        0.190761        0.137647 
        3.29877        0.188185        0.136012 
        3.31446        0.186469        0.134408 
        3.33014        0.184655        0.132831 
        3.34585        0.183801        0.131277 
        3.36158        0.181139        0.129746 
        3.37727        0.179583        0.128243 
        3.39294        0.177361        0.126766 
        3.40867        0.175362        0.125307 
        3.42439        0.174202        0.123871 
        3.44008        0.172007        0.122461 
        3.45578        0.171167        0.121072 
        3.47153        0.169137        0.119701 
        3.48724        0.167895        0.118354 
        3.50292        0.166367        0.117031 
        3.51859        0.164073        0.115728 
        3.53431         0.16252        0.114442 
        3.55007        0.161731        0.113171 
        3.56577        0.159596        0.111925 
        3.58146         0.15821        0.110699 
        3.59719        0.157007        0.109488 
        3.61292        0.156032        0.108295 
        3.62859        0.154059        0.107125 
        3.64429          0.1528        0.105969 
        3.66003        0.151645        0.104828 
        3.67578        0.150334        0.103703 
        3.69146        0.148857        0.102599 
        3.70712        0.147941        0.101514 
        3.72284        0.146532        0.100439 
        3.73853        0.145613       0.0993828 
        3.75422        0.144302       0.0983409 
        3.76993        0.143062       0.0973131 
        3.78564        0.141598       0.0963003 
        3.80137        0.140543       0.0953003 
        3.81707         0.13943       0.0943167 
        3.83279        0.138441        0.093346 
        3.84853        0.136933       0.0923875 
        3.86424        0.135887       0.0914444 
        3.87992         0.13487       0.0905157 
        3.89561        0.133563       0.0895999 
        3.91134        0.132966       0.0886949 
        3.92704        0.131365       0.0878035 
        3.94273        0.130089       0.0869252 
        3.95845        0.129029       0.0860573 
        3.97418        0.128442        0.085201 
        3.98988        0.126643       0.0843576 
        4.00554        0.125806       0.0835278 
        4.02125        0.124583       0.0827069 
        4.03698        0.122958       0.0818957 
        4.05268         0.12189       0.0810972 
        4.06839        0.120088       0.0803087 
         4.0841        0.118579        0.079531 
        4.09983        0.117173       0.0787625 
        4.11555        0.115794       0.0780045 
        4.13124        0.114004       0.0772585 
        4.14693        0.113283       0.0765216 
        4.16266        0.111708       0.0757926 
        4.17839        0.110591       0.0750736 
        4.19408        0.109437       0.0743655 
        4.20977        0.108441       0.0736662 
        4.22551        0.107275       0.0729743 
        4.24123        0.106206       0.0722919 
        4.25691        0.104996       0.0716201 
        4.27259        0.104081       0.0709567 
        4.28831        0.103048       0.0703003 
        4.30404        0.102114       0.0696516 
        4.31974        0.101815       0.0690124 
        4.33543         0.10057       0.0683817 
        4.35116       0.0994924       0.0677573 
        4.36688       0.0988391        0.067141 
        4.38255       0.0977119       0.0665346 
        4.39825       0.0975128       0.0659343 
        4.41398       0.0967061       0.0653403 
         4.4297       0.0961072       0.0647543 
        4.44541       0.0955918       0.0641755 
        4.46111       0.0948302       0.0636042 
        4.47683       0.0943288       0.0630395 
        4.49251       0.0936757       0.0624827 
        4.50819       0.0932634       0.0619329 
         4.5239       0.0927312       0.0613888 
        4.53962       0.0924673       0.0608507 
        4.55535       0.0919219       0.0603187 
        4.57106       0.0915564       0.0597938 
        4.58678       0.0909922        0.059275 
         4.6025       0.0909736       0.0587623 
        4.61821       0.0907696       0.0582557 
        4.63391       0.0904735       0.0577558 
         4.6496       0.0902336       0.0572619 
        4.66532       0.0901498       0.0567731 
        4.68103       0.0900057       0.0562901 
        4.69673       0.0894857       0.0558132 
        4.71241       0.0896804       0.0553423 
        4.72811       0.0894337       0.0548761 
        4.74384       0.0894855       0.0544147 
        4.75955       0.0898153       0.0539592 
        4.77525       0.0897849       0.0535092 
        4.79096       0.0894505       0.0530638 
        4.80669       0.0896425       0.0526233 
         4.8224       0.0899097       0.0521882 
        4.83809       0.0897945       0.0517585 
        4.85379       0.0900104       0.0513334 
         4.8695       0.0901129       0.0509127 
        4.88521       0.0904689       0.0504969 
        4.90093       0.0906215       0.0500857 
        4.91663       0.0908435       0.0496794 
        4.93234       0.0911353       0.0492772 
        4.94807       0.0916866       0.0488792 
        4.96377       0.0921016       0.0484864 
        4.97943       0.0928611       0.0480986 
        4.99514       0.0926562       0.0477141 
        5.01086       0.0936305       0.0473335 
        5.02654       0.0937683       0.0469581 
        5.04227       0.0943752       0.0465856 
          5.058       0.0950321       0.0462169 
        5.07371       0.0958335        0.045853 
        5.08942       0.0961276       0.0454929 
        5.10513       0.0970291       0.0451367 
        5.12084       0.0975118       0.0447841 
        5.13656       0.0980332       0.0444353 
        5.15225       0.0993277       0.0440908 
        5.16796       0.0999649       0.0437495 
        5.18369        0.100548       0.0434114 
         5.1994        0.101861       0.0430775 
        5.21509        0.102485       0.0427474 
        5.23079        0.103716       0.0424204 
        5.24649        0.104872       0.0420971 
        5.26217        0.105753       0.0417774 
        5.27788         0.10684       0.0414605 
        5.29359        0.107582       0.0411468 
        5.30933        0.108933        0.040836 
        5.32504        0.110236       0.0405288 
        5.34073         0.11117       0.0402252 
        5.35646        0.112036       0.0399241 
        5.37218        0.113897        0.039626 
        5.38789        0.114798       0.0393314 
        5.40357        0.115959       0.0390401 
        5.41929        0.117882       0.0387511 
        5.43502        0.119115       0.0384651 
         5.4507        0.120734       0.0381826 
        5.46639        0.122021       0.0379029 
        5.48212        0.123773       0.0376253 
        5.49786        0.125463       0.0373502 
        5.51353        0.126998       0.0370792 
        5.52921        0.128277       0.0368106 
        5.54495        0.130553       0.0365439 
        5.56066        0.132217       0.0362801 
        5.57637        0.134076        0.036019 
        5.59207        0.136331       0.0357606 
        5.60778        0.138107       0.0355047 
        5.62346        0.140444       0.0352517 
        5.63916        0.142291       0.0350008 
        5.65487        0.144065       0.0347523 
         5.6706        0.146358       0.0345059 
        5.68633        0.147818       0.0342618 
        5.70203        0.150422       0.0340206 
        5.71773        0.152879       0.0337817 
        5.73344        0.154328        0.033545 
        5.74916        0.157654       0.0333103 
        5.76486         0.15962       0.0330782 
        5.78054        0.161822       0.0328487 
        5.79626        0.164541       0.0326207 
          5.812        0.167081       0.0323946 
         5.8277         0.16992       0.0321714 
        5.84339        0.172103       0.0319502 
        5.85911        0.175469       0.0317307 
        5.87484        0.177508       0.0315133 
        5.89053        0.181143       0.0312983 
        5.90623        0.183269       0.0310853 
        5.92195        0.186026       0.0308739 
        5.93767        0.188549       0.0306645 
        5.95336        0.192988       0.0304575 
        5.96905        0.194671       0.0302524 
        5.98476         0.19686       0.0300489 
        6.00048        0.201377       0.0298473 
        6.01617        0.204126       0.0296477 
        6.03185        0.206856       0.0294502 
        6.04756        0.211042       0.0292541 
        6.06331        0.213026       0.0290593 
        6.07903        0.216363       0.0288666 
        6.09473        0.219903        0.028676 
        6.11044        0.223723       0.0284868 
        6.12616        0.226121       0.0282994 
        6.14186        0.230298       0.0281139 
        6.15755         0.23331         0.02793 
        6.17326        0.237724       0.0277477 
        6.18898        0.240191       0.0275668 
        6.20467         0.24504        0.027388 
        6.22036        0.247603       0.0272107 
         6.2361        0.250946       0.0270345 
         6.2518        0.255687       0.0268601 
        6.26748        0.257383       0.0266877 
        6.28319        0.262292       0.0265163 
        6.29893        0.266502       0.0263463 
        6.31463         0.27066        0.026178 
        6.33033        0.273481       0.0260113 
        6.34604        0.276699       0.0258459 
        6.36177         0.28188       0.0256817 
        6.37747        0.285767       0.0255193 
