# k  (h/Mpc)    Pcb(k)  (Mpc/h)^3    Pcb_linear(k) (Mpc/h)^3   ShotnoiseSubtracted = true
      0.0200456         917.154         928.923 
      0.0350414         683.063         675.296 
      0.0492313         492.342         490.657 
      0.0637834         404.138         407.879 
      0.0800726         319.961         323.723 
       0.096163         238.367         234.889 
       0.111083          191.13         187.354 
       0.126058          165.21         166.034 
       0.142273         139.634         140.667 
       0.158546         111.918         111.097 
        0.17375         95.3295         93.5995 
       0.188953         85.6065         84.7522 
       0.204907         73.9191         74.9885 
       0.220756         64.1406         63.4448 
        0.23588         55.9023         55.1914 
         0.2514          50.719         50.1409 
       0.267535         46.2841         45.3689 
       0.283568         40.7561         40.0093 
       0.299022         36.6464         35.6462 
       0.314451         34.1284         32.5782 
       0.330372         30.8368         29.8868 
       0.346141         28.0598         27.1269 
       0.361624         25.5254         24.6546 
       0.377134         23.3863         22.6861 
       0.392932         22.3505          20.991 
       0.408854         20.2014         19.3497 
       0.424564         19.1309         17.8349 
       0.440253         17.4858          16.535 
       0.455999         16.0332         15.4047 
       0.471626         15.0315          14.366 
        0.48727         14.4192         13.3943 
       0.502856         13.5037         12.5214 
       0.518488         12.4471         11.7425 
       0.534347         11.6406         11.0185 
       0.550082         11.1496         10.3508 
       0.565732          10.648         9.74006 
       0.581496         9.99878         9.18066 
       0.597222         9.41279         8.66763 
       0.612804         8.87402         8.19589 
       0.628434         8.54953         7.75618 
       0.644267          8.1193         7.34509 
       0.660051         7.68672         6.96621 
       0.675724         7.25678         6.61636 
       0.691403          6.9894         6.29024 
       0.707174         6.64742         5.98426 
       0.722871         6.47791         5.69985 
        0.73838          6.0483         5.43697 
       0.754018         5.77492         5.18869 
       0.769845         5.48879         4.95321 
        0.78569         5.34537         4.73214 
       0.801365         5.10755         4.52677 
       0.817031         4.92935         4.33378 
       0.832809         4.67616         4.15087 
       0.848511         4.53822         3.97938 
       0.864097         4.37202         3.81881 
       0.879701         4.24903         3.66699 
       0.895507          4.0565         3.52167 
       0.911279         3.91447         3.38456 
        0.92691         3.79986         3.25592 
       0.942635         3.62654         3.13329 
       0.958396          3.5106         3.01674 
       0.974128         3.41161         2.90636 
       0.989692         3.26225         2.80261 
        1.00528         3.18067          2.7038 
        1.02113         3.08825         2.60822 
        1.03692         3.00488         2.51764 
        1.05264         2.87444         2.43179 
        1.06832         2.79991         2.35009 
        1.08405         2.70835         2.27195 
        1.09979         2.64312         2.19732 
        1.11537         2.55811          2.1268 
        1.13105         2.46645         2.05897 
        1.14679         2.40503         1.99385 
        1.16256         2.32688         1.93142 
        1.17828         2.29132         1.87189 
        1.19395         2.20483         1.81507 
         1.2097         2.14188         1.76033 
        1.22537         2.07074         1.70812 
          1.241         2.02833         1.65819 
        1.25666         1.99312         1.61015 
        1.27241         1.93988         1.56378 
        1.28819         1.86504         1.51917 
        1.30392         1.82051         1.47644 
        1.31957         1.78937         1.43554 
        1.33529         1.71703         1.39605 
        1.35108         1.68567          1.3579 
        1.36674         1.63942         1.32144 
         1.3824         1.61823         1.28636 
        1.39811         1.57039         1.25245 
        1.41389         1.53082         1.21963 
        1.42964         1.49428         1.18804 
        1.44531         1.46711         1.15773 
        1.46101         1.42503         1.12842 
        1.47667         1.39995         1.10021 
        1.49229         1.35147         1.07304 
        1.50793         1.32054         1.04676 
        1.52367         1.29291          1.0212 
        1.53953         1.26118        0.996319 
        1.55526          1.2512        0.972469 
        1.57092         1.22521        0.949499 
        1.58662         1.20753        0.927219 
        1.60235         1.16477        0.905613 
        1.61809         1.14457        0.884685 
        1.63369         1.11284        0.864606 
        1.64941         1.09628        0.845008 
        1.66519         1.07887        0.825949 
        1.68085         1.04965        0.807614 
        1.69652         1.02987        0.789831 
        1.71228         1.00678        0.772484 
        1.72806        0.989268        0.755645 
        1.74368        0.971138        0.739478 
        1.75933         0.95488        0.723753 
        1.77505        0.938184        0.708413 
        1.79081        0.909374         0.69349 
         1.8065        0.901915        0.679063 
        1.82218        0.878184        0.665059 
        1.83797        0.859712        0.651355 
        1.85367        0.848939        0.638113 
        1.86928        0.832876         0.62532 
        1.88497         0.81334        0.612808 
        1.90073         0.80659        0.600593 
        1.91647        0.784082        0.588722 
        1.93218        0.773097        0.577198 
        1.94787        0.759625           0.566 
        1.96363        0.748447        0.555055 
        1.97935         0.73265        0.544422 
        1.99499        0.721525        0.534128 
        2.01064        0.709336        0.524086 
         2.0264        0.692182         0.51424 
        2.04216        0.684682        0.504651 
        2.05781         0.67277        0.495368 
        2.07353        0.661783        0.486286 
        2.08928        0.650753        0.477412 
        2.10499        0.639282        0.468783 
        2.12065        0.628147        0.460394 
        2.13633        0.619731        0.452203 
        2.15211        0.605783        0.444158 
        2.16785        0.599794        0.436333 
        2.18349        0.589555        0.428744 
        2.19916        0.580996        0.421321 
        2.21489        0.570539        0.414049 
        2.23063         0.55986        0.406944 
         2.2463          0.5528        0.400038 
        2.26194        0.545664        0.393309 
        2.27765        0.536271        0.386701 
        2.29341          0.5282        0.380227 
        2.30914        0.517439        0.373916 
        2.32486        0.511536        0.367751 
        2.34061        0.502174        0.361715 
        2.35635        0.495555         0.35582 
        2.37203        0.490407        0.350077 
        2.38768         0.48249        0.344472 
        2.40339        0.475718         0.33897 
        2.41914        0.469349        0.333576 
        2.43483        0.461614        0.328318 
         2.4505        0.455165        0.323182 
        2.46622        0.449128        0.318139 
        2.48195        0.441045        0.313203 
        2.49759        0.438321        0.308398 
        2.51328        0.429035        0.303682 
        2.52906        0.423154        0.299034 
        2.54479        0.417164        0.294501 
        2.56049        0.411764        0.290071 
        2.57618        0.407314        0.285736 
        2.59189        0.400065        0.281483 
        2.60758        0.397165        0.277323 
        2.62325        0.390677        0.273252 
        2.63898        0.387017        0.269249 
        2.65468        0.378927        0.265335 
        2.67044         0.37516        0.261481 
        2.68618        0.370998        0.257714 
        2.70184        0.365196        0.254035 
        2.71755        0.360008        0.250419 
        2.73329        0.358068        0.246868 
        2.74897        0.350921        0.243398 
        2.76462        0.347241        0.240001 
        2.78034        0.342164        0.236656 
        2.79607        0.339392        0.233371 
        2.81179        0.333311        0.230152 
        2.82749        0.330325        0.226998 
        2.84321        0.325869        0.223899 
        2.85893        0.321816        0.220858 
        2.87462        0.317061         0.21788 
        2.89033        0.315244        0.214954 
        2.90605         0.31089        0.212079 
        2.92176         0.30843        0.209258 
        2.93747        0.303224        0.206489 
        2.95318         0.30011        0.203771 
        2.96891        0.297108          0.2011 
        2.98456        0.293349        0.198488 
        3.00023        0.289819        0.195919 
        3.01596        0.286313        0.193388 
        3.03164        0.283024        0.190909 
        3.04738        0.280374        0.188466 
         3.0631        0.277182        0.186066 
        3.07883        0.274066        0.183708 
        3.09456        0.271435        0.181392 
        3.11026        0.267759        0.179119 
        3.12596        0.264152        0.176885 
        3.14163        0.262614        0.174694 
        3.15734        0.259728        0.172536 
        3.17308        0.257061        0.170408 
        3.18879        0.254013        0.168323 
        3.20447        0.250654        0.166275 
         3.2202        0.249116        0.164255 
         3.2359        0.245763        0.162272 
        3.25157        0.242048        0.160326 
        3.26729        0.241514        0.158407 
        3.28304        0.238538        0.156515 
        3.29877        0.236026        0.154657 
        3.31446         0.23453        0.152833 
        3.33014        0.231355         0.15104 
        3.34585        0.228794        0.149272 
        3.36158         0.22717        0.147531 
        3.37727        0.225055        0.145823 
        3.39294         0.22322        0.144143 
        3.40867        0.219922        0.142484 
        3.42439        0.218767        0.140852 
        3.44008        0.216609        0.139248 
        3.45578        0.214246        0.137668 
        3.47153         0.21274         0.13611 
        3.48724        0.210768        0.134578 
        3.50292        0.208995        0.133073 
        3.51859        0.206963        0.131592 
        3.53431        0.204879        0.130129 
        3.55007         0.20328        0.128685 
        3.56577        0.201677        0.127268 
        3.58146        0.199663        0.125873 
        3.59719        0.198103        0.124496 
        3.61292         0.19662         0.12314 
        3.62859        0.194875        0.121809 
        3.64429        0.192782        0.120496 
        3.66003        0.191242        0.119197 
        3.67578        0.189835        0.117919 
        3.69146        0.187781        0.116663 
        3.70712        0.186788        0.115429 
        3.72284        0.185961        0.114207 
        3.73853        0.184408        0.113006 
        3.75422        0.182223        0.111821 
        3.76993        0.180912        0.110653 
        3.78564        0.179187        0.109501 
        3.80137        0.177946        0.108364 
        3.81707        0.176513        0.107245 
        3.83279        0.175125        0.106142 
        3.84853        0.173706        0.105052 
        3.86424        0.172422        0.103979 
        3.87992         0.17092        0.102923 
        3.89561        0.169762        0.101882 
        3.91134        0.168163        0.100853 
        3.92704        0.166746       0.0998394 
        3.94273        0.165798       0.0988407 
        3.95845        0.164005       0.0978538 
        3.97418        0.162902       0.0968802 
        3.98988        0.161232       0.0959212 
        4.00554        0.159843       0.0949777 
        4.02125        0.158032       0.0940442 
        4.03698        0.156131       0.0931218 
        4.05268        0.154814       0.0922138 
        4.06839        0.152855       0.0913173 
         4.0841        0.151166        0.090433 
        4.09983        0.149599       0.0895592 
        4.11555        0.147801       0.0886972 
        4.13124        0.146206       0.0878489 
        4.14693        0.144594        0.087011 
        4.16266        0.142917       0.0861822 
        4.17839        0.141492       0.0853646 
        4.19408        0.139674       0.0845594 
        4.20977        0.138967       0.0837643 
        4.22551        0.137563       0.0829775 
        4.24123        0.135746       0.0822016 
        4.25691        0.134868       0.0814377 
        4.27259         0.13354       0.0806833 
        4.28831        0.132822       0.0799369 
        4.30404        0.130926       0.0791993 
        4.31974        0.130137       0.0784725 
        4.33543        0.129148       0.0777553 
        4.35116        0.128243       0.0770454 
        4.36688          0.1272       0.0763445 
        4.38255        0.125942        0.075655 
        4.39825        0.125531       0.0749725 
        4.41398        0.124509       0.0742971 
         4.4297        0.123906       0.0736307 
        4.44541        0.122684       0.0729725 
        4.46111        0.122049        0.072323 
        4.47683        0.121368       0.0716808 
        4.49251         0.12054       0.0710478 
        4.50819        0.120301       0.0704225 
         4.5239        0.119505       0.0698039 
        4.53962        0.118836        0.069192 
        4.55535        0.118586        0.068587 
        4.57106        0.117931       0.0679902 
        4.58678        0.117261       0.0674004 
         4.6025        0.117325       0.0668174 
        4.61821        0.116971       0.0662413 
        4.63391        0.116416       0.0656729 
         4.6496        0.116063       0.0651113 
        4.66532        0.115742       0.0645554 
        4.68103        0.115615       0.0640063 
        4.69673        0.115507        0.063464 
        4.71241        0.115436       0.0629286 
        4.72811        0.115349       0.0623984 
        4.74384        0.115015       0.0618737 
        4.75955        0.114975       0.0613558 
        4.77525        0.115073       0.0608442 
        4.79096         0.11497       0.0603377 
        4.80669        0.114472       0.0598368 
         4.8224        0.115071       0.0593421 
        4.83809        0.114956       0.0588535 
        4.85379        0.115212       0.0583701 
         4.8695        0.115156       0.0578917 
        4.88521        0.115521        0.057419 
        4.90093        0.116073       0.0569514 
        4.91663        0.115787       0.0564894 
        4.93234        0.116265       0.0560321 
        4.94807        0.116471       0.0555795 
        4.96377        0.117235       0.0551328 
        4.97943        0.117931       0.0546919 
        4.99514        0.117439       0.0542547 
        5.01086        0.118065       0.0538219 
        5.02654        0.118894        0.053395 
        5.04227        0.119379       0.0529714 
          5.058        0.120178       0.0525523 
        5.07371        0.120457       0.0521384 
        5.08942        0.121562        0.051729 
        5.10513        0.121925       0.0513239 
        5.12084        0.122721        0.050923 
        5.13656        0.123306       0.0505264 
        5.15225        0.124162       0.0501347 
        5.16796        0.125394       0.0497466 
        5.18369        0.125973       0.0493622 
         5.1994        0.127021       0.0489825 
        5.21509        0.127736       0.0486072 
        5.23079         0.12864       0.0482353 
        5.24649        0.129807       0.0478677 
        5.26217        0.131038       0.0475041 
        5.27788        0.131726       0.0471438 
        5.29359        0.133077       0.0467872 
        5.30933        0.134452       0.0464337 
        5.32504        0.135624       0.0460845 
        5.34073        0.136714       0.0457392 
        5.35646         0.13801       0.0453968 
        5.37218        0.139941       0.0450578 
        5.38789        0.140416       0.0447228 
        5.40357        0.141597       0.0443917 
        5.41929        0.143137       0.0440631 
        5.43502        0.145208       0.0437378 
         5.4507        0.146987       0.0434166 
        5.46639        0.148267       0.0430985 
        5.48212        0.149696       0.0427829 
        5.49786        0.151542       0.0424701 
        5.51353        0.154264        0.042162 
        5.52921        0.154607       0.0418566 
        5.54495        0.157023       0.0415533 
        5.56066        0.159436       0.0412533 
        5.57637        0.160784       0.0409564 
        5.59207        0.162139       0.0406626 
        5.60778        0.164898       0.0403717 
        5.62346        0.166867       0.0400839 
        5.63916        0.168116       0.0397987 
        5.65487        0.170803       0.0395161 
         5.6706        0.172253       0.0392359 
        5.68633        0.175175       0.0389584 
        5.70203        0.177865       0.0386841 
        5.71773        0.180205       0.0384124 
        5.73344        0.182665       0.0381433 
        5.74916         0.18419       0.0378765 
        5.76486        0.187481       0.0376125 
        5.78054        0.188834       0.0373515 
        5.79626        0.191928       0.0370923 
          5.812        0.194589       0.0368352 
         5.8277        0.196466       0.0365814 
        5.84339         0.19976       0.0363299 
        5.85911        0.202559       0.0360803 
        5.87484        0.205011       0.0358331 
        5.89053        0.207451       0.0355887 
        5.90623        0.210894       0.0353464 
        5.92195        0.213396        0.035106 
        5.93767        0.216182        0.034868 
        5.95336        0.218882       0.0346325 
        5.96905         0.22175       0.0343993 
        5.98476        0.223282        0.034168 
        6.00048        0.227713       0.0339387 
        6.01617        0.231469       0.0337118 
        6.03185        0.234362       0.0334872 
        6.04756        0.236348       0.0332641 
        6.06331        0.240075       0.0330427 
        6.07903        0.245167       0.0328236 
        6.09473        0.246407       0.0326068 
        6.11044        0.250551       0.0323917 
        6.12616        0.252306       0.0321787 
        6.14186        0.256652       0.0319677 
        6.15755        0.259968       0.0317586 
        6.17326        0.263076       0.0315513 
        6.18898        0.266198       0.0313457 
        6.20467        0.268687       0.0311422 
        6.22036        0.273151       0.0309407 
         6.2361        0.274054       0.0307403 
         6.2518        0.278513       0.0305421 
        6.26748        0.282108        0.030346 
        6.28319        0.286772       0.0301511 
        6.29893        0.290389       0.0299578 
        6.31463        0.293162       0.0297664 
        6.33033        0.297782       0.0295768 
        6.34604        0.300943       0.0293888 
        6.36177        0.303493       0.0292021 
        6.37747        0.306612       0.0290175 
