# k  (h/Mpc)    Pcb(k)  (Mpc/h)^3    Pcb_linear(k) (Mpc/h)^3   ShotnoiseSubtracted = true
      0.0200456         13889.6         14105.6 
      0.0350414         10539.3         10254.3 
      0.0492313         7359.39         7450.56 
      0.0637834         5948.01         6193.59 
      0.0800726          4681.4          4915.7 
       0.096163         3693.85         3566.77 
       0.111083            3004         2844.94 
       0.126058         2497.11          2521.2 
       0.142273         2161.66         2136.01 
       0.158546         1775.57            1687 
        0.17375         1560.35          1421.3 
       0.188953         1453.37         1286.95 
       0.204907         1243.47         1138.69 
       0.220756         1116.55         963.401 
        0.23588          993.65         838.075 
         0.2514         890.715         761.383 
       0.267535         864.274         688.921 
       0.283568          757.82         607.535 
       0.299022         723.369         541.283 
       0.314451         737.419         494.696 
       0.330372         635.057         453.828 
       0.346141         587.354         411.918 
       0.361624          562.04         374.377 
       0.377134         529.492         344.486 
       0.392932         511.703         318.746 
       0.408854         487.191         293.822 
       0.424564         472.143          270.82 
       0.440253         428.968         251.082 
       0.455999         410.899         233.918 
       0.471626         414.996         218.145 
        0.48727         392.663         203.391 
       0.502856         362.886         190.136 
       0.518488         363.061         178.309 
       0.534347         338.467         167.314 
       0.550082          326.93         157.176 
       0.565732         325.111         147.902 
       0.581496         311.805         139.407 
       0.597222         302.884         131.617 
       0.612804         295.126         124.453 
       0.628434         283.736         117.777 
       0.644267          271.94         111.534 
       0.660051         267.871         105.781 
       0.675724         264.332         100.469 
       0.691403          257.39         95.5164 
       0.707174         247.976         90.8702 
       0.722871         244.216         86.5515 
        0.73838         241.775         82.5597 
       0.754018         230.467         78.7895 
       0.769845         230.004         75.2138 
        0.78569         224.253          71.857 
       0.801365         218.101         68.7385 
       0.817031         213.821         65.8079 
       0.832809         210.263         63.0304 
       0.848511         204.908         60.4264 
       0.864097         200.169         57.9881 
       0.879701         199.127         55.6827 
       0.895507         194.328          53.476 
       0.911279         188.642         51.3941 
        0.92691         186.269         49.4407 
       0.942635         184.451         47.5786 
       0.958396         180.262         45.8088 
       0.974128         176.935         44.1327 
       0.989692         171.532         42.5573 
        1.00528         170.708         41.0568 
        1.02113         167.227         39.6055 
        1.03692         164.328           38.23 
        1.05264         161.923         36.9264 
        1.06832         160.497         35.6858 
        1.08405         156.499         34.4992 
        1.09979         155.568         33.3661 
        1.11537         152.284         32.2952 
        1.13105         150.202         31.2652 
        1.14679         148.133         30.2763 
        1.16256           145.7         29.3284 
        1.17828         144.025         28.4244 
        1.19395         140.459         27.5616 
         1.2097         139.617         26.7304 
        1.22537         137.791         25.9376 
          1.241         135.294         25.1795 
        1.25666         132.753         24.4499 
        1.27241         129.787         23.7458 
        1.28819         128.987         23.0684 
        1.30392         126.862         22.4195 
        1.31957         124.456         21.7985 
        1.33529         123.183         21.1989 
        1.35108          121.67         20.6195 
        1.36674         119.461         20.0659 
         1.3824         119.087         19.5333 
        1.39811         116.018         19.0182 
        1.41389         115.045         18.5199 
        1.42964         112.734         18.0402 
        1.44531         111.779           17.58 
        1.46101         109.661         17.1349 
        1.47667         109.422         16.7065 
        1.49229         108.011          16.294 
        1.50793         105.877          15.895 
        1.52367          104.61         15.5068 
        1.53953         103.305          15.129 
        1.55526         102.124         14.7668 
        1.57092         101.183          14.418 
        1.58662         99.6301         14.0797 
        1.60235         97.9528         13.7516 
        1.61809         97.3463         13.4338 
        1.63369         95.4652         13.1289 
        1.64941         95.3688         12.8313 
        1.66519         93.5027         12.5419 
        1.68085         92.1182         12.2635 
        1.69652         90.7788         11.9935 
        1.71228         89.9133         11.7301 
        1.72806         88.9875         11.4744 
        1.74368         87.3979         11.2289 
        1.75933         86.7892         10.9901 
        1.77505         85.7405         10.7572 
        1.79081         84.3313         10.5306 
         1.8065         83.5957         10.3115 
        1.82218         82.3413         10.0988 
        1.83797         81.9464         9.89073 
        1.85367         80.2009         9.68966 
        1.86928         79.6732          9.4954 
        1.88497         78.8226         9.30541 
        1.90073         77.9322         9.11992 
        1.91647         76.5375         8.93967 
        1.93218         75.6895         8.76468 
        1.94787         74.7792         8.59463 
        1.96363         73.9064         8.42843 
        1.97935         73.2836         8.26698 
        1.99499         72.4016         8.11067 
        2.01064         71.2835         7.95818 
         2.0264          70.343         7.80866 
        2.04216         69.4977         7.66306 
        2.05781         68.8178          7.5221 
        2.07353         67.9898         7.38419 
        2.08928         67.1023         7.24943 
        2.10499         66.2919         7.11841 
        2.12065         65.8033         6.99102 
        2.13633         65.1272         6.86664 
        2.15211         64.0824         6.74449 
        2.16785         63.0146         6.62565 
        2.18349         62.5308         6.51043 
        2.19916          61.781         6.39771 
        2.21489         60.9699         6.28728 
        2.23063           60.25         6.17939 
         2.2463         59.7272         6.07452 
        2.26194         59.1871         5.97235 
        2.27765         58.3295           5.872 
        2.29341         57.6453          5.7737 
        2.30914         56.9089         5.67786 
        2.32486         56.0933         5.58425 
        2.34061         55.7637         5.49259 
        2.35635         54.9338         5.40308 
        2.37203         54.4026         5.31587 
        2.38768         53.8674         5.23077 
        2.40339         53.2467         5.14722 
        2.41914          52.527         5.06531 
        2.43483         52.0148         4.98547 
         2.4505         51.5464         4.90748 
        2.46622         50.9648          4.8309 
        2.48195         50.3082         4.75595 
        2.49759         49.7328         4.68299 
        2.51328         49.3763         4.61137 
        2.52906         48.6316         4.54079 
        2.54479         48.1848         4.47196 
        2.56049         47.3744         4.40469 
        2.57618         47.0171         4.33886 
        2.59189         46.6583         4.27428 
        2.60758         45.8521         4.21111 
        2.62325          45.499          4.1493 
        2.63898         45.0709         4.08851 
        2.65468         44.6183         4.02907 
        2.67044         44.1058         3.97056 
        2.68618         43.7523         3.91335 
        2.70184         42.9721         3.85749 
        2.71755         42.7093         3.80258 
        2.73329         42.1832         3.74866 
        2.74897         41.9446         3.69596 
        2.76462         41.3335         3.64439 
        2.78034         40.9177         3.59359 
        2.79607         40.4278         3.54371 
        2.81179         40.1013         3.49483 
        2.82749         39.6052         3.44693 
        2.84321         39.2785         3.39987 
        2.85893         38.7255         3.35371 
        2.87462         38.2348         3.30848 
        2.89033         37.9892         3.26404 
        2.90605         37.4586         3.22038 
        2.92176         37.2456         3.17755 
        2.93747         36.9062         3.13551 
        2.95318          36.534         3.09423 
        2.96891         36.0047         3.05367 
        2.98456         35.7932         3.01402 
        3.00023         35.3677         2.97501 
        3.01596         35.0293         2.93657 
        3.03164         34.6519         2.89893 
        3.04738         34.2503         2.86183 
         3.0631          34.093         2.82539 
        3.07883         33.6348         2.78959 
        3.09456         33.1665         2.75441 
        3.11026         32.8409         2.71989 
        3.12596         32.5663         2.68597 
        3.14163         32.2441         2.65271 
        3.15734         31.9601         2.61993 
        3.17308         31.6546         2.58763 
        3.18879         31.2379         2.55596 
        3.20447         30.9279         2.52486 
         3.2202         30.7043         2.49419 
         3.2359         30.4139         2.46408 
        3.25157         30.1612         2.43454 
        3.26729         29.7702         2.40539 
        3.28304         29.5152         2.37666 
        3.29877         29.0762         2.34844 
        3.31446         28.8894         2.32074 
        3.33014         28.5827         2.29352 
        3.34585           28.32         2.26668 
        3.36158         28.0764         2.24024 
        3.37727         27.8026          2.2143 
        3.39294         27.5109         2.18879 
        3.40867         27.2523          2.1636 
        3.42439         27.0538         2.13881 
        3.44008         26.7714         2.11446 
        3.45578         26.5673         2.09048 
        3.47153         26.2409         2.06681 
        3.48724         26.0031         2.04355 
        3.50292          25.788          2.0207 
        3.51859         25.4502         1.99821 
        3.53431         25.2347         1.97599 
        3.55007         24.9933         1.95406 
        3.56577         24.7093         1.93255 
        3.58146         24.5425         1.91137 
        3.59719         24.3315         1.89046 
        3.61292         24.1166         1.86986 
        3.62859         23.9037         1.84966 
        3.64429         23.6136         1.82971 
        3.66003         23.4906         1.80999 
        3.67578         23.2168         1.79058 
        3.69146         23.0697         1.77152 
        3.70712         22.8367         1.75277 
        3.72284         22.6707         1.73423 
        3.73853         22.4654         1.71598 
        3.75422         22.1381         1.69799 
        3.76993         21.9617         1.68024 
        3.78564         21.7709         1.66276 
        3.80137         21.5413         1.64549 
        3.81707         21.4015         1.62851 
        3.83279         21.2214         1.61175 
        3.84853         21.0125          1.5952 
        3.86424         20.8105         1.57891 
        3.87992         20.6109         1.56288 
        3.89561         20.5028         1.54707 
        3.91134         20.2071         1.53144 
        3.92704         20.1297         1.51605 
        3.94273         19.8613         1.50088 
        3.95845         19.7499          1.4859 
        3.97418         19.5083         1.47111 
        3.98988         19.3682         1.45655 
        4.00554         19.2538         1.44222 
        4.02125         19.0222         1.42805 
        4.03698         18.8527         1.41404 
        4.05268         18.6983         1.40026 
        4.06839         18.5638         1.38664 
         4.0841         18.3663         1.37321 
        4.09983         18.1539         1.35994 
        4.11555         17.9988         1.34686 
        4.13124         17.9282         1.33397 
        4.14693          17.712         1.32125 
        4.16266         17.6326         1.30866 
        4.17839         17.4397         1.29625 
        4.19408         17.2509         1.28402 
        4.20977          17.162         1.27195 
        4.22551         16.9807            1.26 
        4.24123         16.8412         1.24822 
        4.25691         16.6576         1.23662 
        4.27259         16.5612         1.22517 
        4.28831         16.4259         1.21383 
        4.30404         16.2865         1.20263 
        4.31974         16.1868          1.1916 
        4.33543           16.03          1.1807 
        4.35116         15.8506         1.16992 
        4.36688         15.7558         1.15928 
        4.38255         15.6114         1.14881 
        4.39825         15.4486         1.13845 
        4.41398         15.3776         1.12819 
         4.4297         15.2441         1.11807 
        4.44541         15.0574         1.10808 
        4.46111         14.9745         1.09821 
        4.47683         14.8178         1.08846 
        4.49251         14.7439         1.07885 
        4.50819         14.5985         1.06936 
         4.5239         14.4534         1.05996 
        4.53962         14.3635         1.05067 
        4.55535         14.2173         1.04149 
        4.57106         14.1583         1.03242 
        4.58678         13.9949         1.02347 
         4.6025         13.8892         1.01461 
        4.61821          13.801         1.00587 
        4.63391         13.6582        0.997234 
         4.6496         13.5303        0.988706 
        4.66532         13.4253        0.980265 
        4.68103         13.3365        0.971927 
        4.69673         13.2301        0.963693 
        4.71241         13.1165        0.955562 
        4.72811         12.9933        0.947512 
        4.74384         12.9188        0.939544 
        4.75955         12.8085        0.931681 
        4.77525         12.6928        0.923911 
        4.79096         12.5853         0.91622 
        4.80669         12.5086        0.908613 
         4.8224         12.3929        0.901102 
        4.83809         12.3235        0.893682 
        4.85379         12.2103        0.886342 
         4.8695         12.1173        0.879079 
        4.88521         12.0289        0.871899 
        4.90093         11.9558        0.864799 
        4.91663         11.8734        0.857784 
        4.93234         11.7832         0.85084 
        4.94807         11.6865        0.843968 
        4.96377         11.5908        0.837184 
        4.97943         11.5051        0.830489 
        4.99514         11.3986         0.82385 
        5.01086         11.3077        0.817279 
        5.02654         11.2245        0.810796 
        5.04227         11.1003        0.804364 
          5.058         11.0527        0.797999 
        5.07371         10.9618        0.791715 
        5.08942         10.8948        0.785498 
        5.10513         10.8036        0.779347 
        5.12084         10.7203        0.773259 
        5.13656         10.6586        0.767237 
        5.15225           10.57        0.761289 
        5.16796         10.4958        0.755395 
        5.18369         10.4028        0.749558 
         5.1994         10.3171        0.743793 
        5.21509         10.2708        0.738094 
        5.23079         10.1512        0.732448 
        5.24649         10.0892        0.726865 
        5.26217          10.007        0.721344 
        5.27788         9.95021        0.715873 
        5.29359          9.8651        0.710457 
        5.30933         9.80803         0.70509 
        5.32504         9.72463        0.699787 
        5.34073         9.67303        0.694544 
        5.35646         9.59986        0.689344 
        5.37218          9.5087        0.684197 
        5.38789         9.43306        0.679111 
        5.40357         9.37827        0.674082 
        5.41929         9.32227        0.669092 
        5.43502         9.24882        0.664153 
         5.4507         9.16043        0.659275 
        5.46639         9.12185        0.654446 
        5.48212         9.02946        0.649653 
        5.49786         8.96783        0.644903 
        5.51353         8.91291        0.640224 
        5.52921         8.84868        0.635586 
        5.54495         8.78806        0.630981 
        5.56066         8.71514        0.626427 
        5.57637          8.6416        0.621918 
        5.59207         8.60326        0.617457 
        5.60778         8.52061        0.613038 
        5.62346         8.47521        0.608669 
        5.63916         8.41879        0.604338 
        5.65487         8.36058        0.600047 
         5.6706         8.28779        0.595793 
        5.68633         8.23378        0.591578 
        5.70203         8.16531        0.587412 
        5.71773         8.12125        0.583288 
        5.73344         8.08474        0.579201 
        5.74916          8.0088        0.575149 
        5.76486         7.96358        0.571141 
        5.78054         7.89473        0.567178 
        5.79626         7.83208        0.563241 
          5.812          7.7968        0.559338 
         5.8277         7.75757        0.555483 
        5.84339          7.6842        0.551665 
        5.85911         7.62906        0.547874 
        5.87484         7.58667        0.544121 
        5.89053         7.51868        0.540409 
        5.90623         7.46291        0.536731 
        5.92195         7.43131         0.53308 
        5.93767         7.37339        0.529466 
        5.95336          7.3448         0.52589 
        5.96905         7.26577         0.52235 
        5.98476         7.22303        0.518836 
        6.00048         7.17328        0.515354 
        6.01617         7.12189        0.511909 
        6.03185         7.08521        0.508499 
        6.04756         7.03617        0.505112 
        6.06331         6.98976        0.501748 
        6.07903         6.93831        0.498423 
        6.09473          6.8914         0.49513 
        6.11044         6.86599        0.491864 
        6.12616         6.80573        0.488629 
        6.14186         6.76238        0.485425 
        6.15755         6.70757         0.48225 
        6.17326         6.67911        0.479102 
        6.18898         6.62661         0.47598 
        6.20467         6.57226        0.472891 
        6.22036         6.54983         0.46983 
         6.2361         6.49042        0.466788 
         6.2518         6.45631        0.463777 
        6.26748         6.40035          0.4608 
        6.28319         6.37468        0.457841 
        6.29893         6.33197        0.454905 
        6.31463         6.28594           0.452 
        6.33033         6.25904        0.449121 
        6.34604         6.21277        0.446265 
        6.36177          6.1551        0.443431 
        6.37747         6.13583        0.440627 
