# k  (h/Mpc)    Pcb(k)  (Mpc/h)^3    Pcb_linear(k) (Mpc/h)^3   ShotnoiseSubtracted = true
      0.0200456           26585         27084.9 
      0.0350414         20342.3         19689.8 
      0.0492313         13922.9         14306.3 
      0.0637834         11216.8         11892.7 
      0.0800726         8789.96         9438.91 
       0.096163            7131         6848.75 
       0.111083         5807.59         5462.74 
       0.126058         4796.77          4841.1 
       0.142273         4224.42         4101.48 
       0.158546         3463.02         3239.31 
        0.17375          3126.6         2729.11 
       0.188953         2992.34         2471.15 
       0.204907         2576.75         2186.46 
       0.220756         2341.13         1849.88 
        0.23588         2091.95         1609.24 
         0.2514         1906.77         1461.97 
       0.267535            1831         1322.84 
       0.283568         1646.84         1166.56 
       0.299022         1566.58         1039.35 
       0.314451         1635.59         949.894 
       0.330372         1472.42         871.421 
       0.346141         1353.62         790.947 
       0.361624         1296.46         718.863 
       0.377134         1251.12         661.467 
       0.392932         1183.09         612.043 
       0.408854         1142.34         564.185 
       0.424564         1119.01         520.017 
       0.440253         1049.81         482.116 
       0.455999         1003.07          449.16 
       0.471626         1012.72         418.873 
        0.48727         960.377         390.542 
       0.502856         936.981          365.09 
       0.518488         898.293         342.381 
       0.534347          872.02         321.269 
       0.550082         834.675         301.803 
       0.565732         816.938         283.994 
       0.581496         798.631         267.684 
       0.597222         788.419         252.725 
       0.612804         766.261          238.97 
       0.628434          736.68          226.15 
       0.644267         718.328         214.163 
       0.660051         709.892         203.116 
       0.675724         698.613         192.915 
       0.691403         670.841         183.407 
       0.707174         656.182         174.485 
       0.722871         653.596         166.193 
        0.73838         632.196         158.528 
       0.754018         623.309         151.288 
       0.769845         612.059         144.422 
        0.78569         598.025         137.977 
       0.801365         581.201         131.989 
       0.817031         573.496         126.362 
       0.832809         562.686         121.028 
       0.848511         552.176         116.028 
       0.864097         543.821         111.346 
       0.879701         546.169          106.92 
       0.895507         525.605         102.682 
       0.911279         520.658         98.6847 
        0.92691         510.748          94.934 
       0.942635         502.769         91.3583 
       0.958396         492.535         87.9601 
       0.974128         483.036         84.7417 
       0.989692         473.388         81.7167 
        1.00528         465.452         78.8356 
        1.02113         457.195         76.0488 
        1.03692         450.683         73.4076 
        1.05264         445.713         70.9045 
        1.06832         435.595         68.5224 
        1.08405         433.106          66.244 
        1.09979         422.391         64.0681 
        1.11537         413.967          62.012 
        1.13105         408.371         60.0342 
        1.14679         401.588         58.1353 
        1.16256         398.528         56.3152 
        1.17828         392.507         54.5793 
        1.19395         384.086         52.9226 
         1.2097         376.967         51.3266 
        1.22537         372.844         49.8043 
          1.241         365.229         48.3486 
        1.25666         361.119         46.9476 
        1.27241         358.713         45.5958 
        1.28819         349.101         44.2951 
        1.30392         346.689          43.049 
        1.31957         339.912         41.8567 
        1.33529         335.126         40.7052 
        1.35108         334.891         39.5927 
        1.36674          326.11         38.5298 
         1.3824          319.15          37.507 
        1.39811         315.819          36.518 
        1.41389         311.483         35.5611 
        1.42964         306.243         34.6401 
        1.44531         301.218         33.7563 
        1.46101         294.538         32.9016 
        1.47667         293.595         32.0791 
        1.49229         289.976          31.287 
        1.50793         283.539         30.5208 
        1.52367         279.375         29.7755 
        1.53953         276.275           29.05 
        1.55526         270.723         28.3546 
        1.57092         268.614         27.6849 
        1.58662         263.469         27.0353 
        1.60235         259.411         26.4053 
        1.61809         257.182         25.7951 
        1.63369         252.186         25.2096 
        1.64941         249.495         24.6382 
        1.66519         245.737         24.0825 
        1.68085         241.325         23.5479 
        1.69652         238.225         23.0294 
        1.71228         234.612         22.5236 
        1.72806         231.589         22.0326 
        1.74368         228.119         21.5612 
        1.75933         225.993         21.1027 
        1.77505         222.216         20.6554 
        1.79081         219.382         20.2203 
         1.8065         217.967         19.7997 
        1.82218          212.34         19.3914 
        1.83797         210.676         18.9918 
        1.85367         207.424         18.6057 
        1.86928         203.652         18.2327 
        1.88497         201.604         17.8679 
        1.90073         199.803         17.5117 
        1.91647         196.673         17.1656 
        1.93218         193.456         16.8296 
        1.94787         189.982         16.5031 
        1.96363         189.115         16.1839 
        1.97935         185.705         15.8739 
        1.99499          184.18         15.5738 
        2.01064         179.604          15.281 
         2.0264         178.847         14.9939 
        2.04216         175.623         14.7143 
        2.05781         173.819         14.4436 
        2.07353         172.323         14.1788 
        2.08928         170.651         13.9201 
        2.10499         167.243         13.6685 
        2.12065         165.518         13.4239 
        2.13633         163.071          13.185 
        2.15211         161.133         12.9505 
        2.16785         159.454         12.7223 
        2.18349         156.911         12.5011 
        2.19916         156.376         12.2846 
        2.21489         152.793         12.0726 
        2.23063         150.987         11.8654 
         2.2463         149.274          11.664 
        2.26194         147.897         11.4678 
        2.27765         145.728         11.2752 
        2.29341         144.091         11.0864 
        2.30914         141.906         10.9024 
        2.32486         140.709         10.7226 
        2.34061         138.117         10.5466 
        2.35635         136.471         10.3748 
        2.37203         135.598         10.2073 
        2.38768         133.627         10.0439 
        2.40339         132.032         9.88348 
        2.41914         129.836         9.72619 
        2.43483         128.609         9.57289 
         2.4505         127.448         9.42314 
        2.46622         125.312         9.27609 
        2.48195         123.898         9.13217 
        2.49759         122.181         8.99207 
        2.51328         120.889         8.85455 
        2.52906         119.687         8.71904 
        2.54479         118.053         8.58687 
        2.56049         116.614          8.4577 
        2.57618         115.508          8.3313 
        2.59189          114.32         8.20729 
        2.60758         113.223           8.086 
        2.62325          111.13         7.96731 
        2.63898         109.543         7.85059 
        2.65468         108.548         7.73646 
        2.67044         107.545         7.62411 
        2.68618         106.214         7.51425 
        2.70184         105.333         7.40699 
        2.71755          103.51         7.30156 
        2.73329         102.338         7.19802 
        2.74897         101.041         7.09683 
        2.76462         100.276         6.99781 
        2.78034         99.2998         6.90027 
        2.79607         98.0261         6.80448 
        2.81179         97.0089         6.71063 
        2.82749         96.0122         6.61865 
        2.84321         94.5538         6.52829 
        2.85893         93.5143         6.43965 
        2.87462         92.3713          6.3528 
        2.89033         91.6184         6.26748 
        2.90605         90.3957         6.18365 
        2.92176         89.3843          6.1014 
        2.93747         88.6105         6.02068 
        2.95318         87.4725         5.94141 
        2.96891         86.9739         5.86353 
        2.98456         85.4219         5.78739 
        3.00023         84.7228         5.71249 
        3.01596         84.0747         5.63869 
        3.03164         82.9022          5.5664 
        3.04738         82.2261         5.49516 
         3.0631         81.4746          5.4252 
        3.07883         80.4611         5.35645 
        3.09456         79.4371         5.28891 
        3.11026          78.931         5.22263 
        3.12596         77.8375         5.15749 
        3.14163         77.0449         5.09362 
        3.15734         76.1911         5.03068 
        3.17308         75.3755         4.96865 
        3.18879          74.643         4.90784 
        3.20447         74.1084         4.84813 
         3.2202         73.0951         4.78923 
         3.2359         72.5088         4.73142 
        3.25157         71.8238         4.67469 
        3.26729         70.9366         4.61873 
        3.28304         70.0818         4.56357 
        3.29877         69.4839         4.50938 
        3.31446         68.8338          4.4562 
        3.33014          68.194         4.40391 
        3.34585         67.4942         4.35239 
        3.36158         66.8078         4.30161 
        3.37727         66.0392          4.2518 
        3.39294            65.4         4.20283 
        3.40867          64.822         4.15445 
        3.42439         63.7799         4.10686 
        3.44008           63.36         4.06011 
        3.45578         62.9712         4.01404 
        3.47153         62.2958          3.9686 
        3.48724         61.5909         3.92393 
        3.50292         61.1771         3.88006 
        3.51859         60.4619         3.83688 
        3.53431         59.7518         3.79422 
        3.55007         59.2049         3.75211 
        3.56577         58.6549          3.7108 
        3.58146         58.0558         3.67013 
        3.59719         57.6417         3.62998 
        3.61292         57.0499         3.59044 
        3.62859         56.4572         3.55163 
        3.64429         56.0834         3.51333 
        3.66003         55.4159         3.47548 
        3.67578         54.8012         3.43819 
        3.69146         54.3604          3.4016 
        3.70712         53.6795          3.3656 
        3.72284         53.1458         3.32999 
        3.73853         52.8822         3.29495 
        3.75422         52.3465         3.26041 
        3.76993         51.9318         3.22634 
        3.78564         51.2903         3.19276 
        3.80137         50.8229         3.15961 
        3.81707         50.3111         3.12699 
        3.83279          49.877         3.09481 
        3.84853         49.4598         3.06303 
        3.86424          49.084         3.03176 
        3.87992         48.4926         3.00098 
        3.89561          48.175         2.97061 
        3.91134         47.7163         2.94061 
        3.92704         47.2536         2.91105 
        3.94273         46.7837         2.88193 
        3.95845         46.3205         2.85316 
        3.97418         45.9377         2.82477 
        3.98988         45.4891         2.79681 
        4.00554         45.0381          2.7693 
        4.02125         44.5685         2.74208 
        4.03698         44.3096         2.71518 
        4.05268         43.8977         2.68871 
        4.06839          43.506         2.66257 
         4.0841         43.2008         2.63679 
        4.09983         42.8315         2.61131 
        4.11555         42.4383         2.58618 
        4.13124         41.9919         2.56144 
        4.14693         41.6681         2.53701 
        4.16266         41.4044         2.51284 
        4.17839         40.9353           2.489 
        4.19408         40.6342         2.46553 
        4.20977         40.1602         2.44234 
        4.22551         39.8169          2.4194 
        4.24123         39.5352         2.39678 
        4.25691         39.1323         2.37451 
        4.27259         38.8428         2.35251 
        4.28831         38.4866         2.33075 
        4.30404         38.2329         2.30924 
        4.31974         37.7858         2.28805 
        4.33543         37.4608         2.26714 
        4.35116         37.1042         2.24644 
        4.36688         36.8674           2.226 
        4.38255         36.5996          2.2059 
        4.39825          36.279           2.186 
        4.41398         35.9548         2.16631 
         4.4297         35.5496         2.14688 
        4.44541         35.3808         2.12769 
        4.46111         35.1373         2.10875 
        4.47683         34.8275         2.09002 
        4.49251         34.4898         2.07157 
        4.50819         34.2153         2.05333 
         4.5239         33.8514          2.0353 
        4.53962         33.5875         2.01745 
        4.55535         33.2598         1.99982 
        4.57106         33.0396         1.98241 
        4.58678         32.7175         1.96522 
         4.6025          32.417         1.94822 
        4.61821         32.2316         1.93142 
        4.63391         31.9416         1.91485 
         4.6496         31.6965         1.89847 
        4.66532         31.5094         1.88226 
        4.68103         31.2503         1.86625 
        4.69673         30.8905         1.85044 
        4.71241         30.6994         1.83483 
        4.72811         30.4124         1.81937 
        4.74384         30.1941         1.80407 
        4.75955         29.9323         1.78897 
        4.77525         29.7051         1.77405 
        4.79096         29.4959         1.75929 
        4.80669         29.2789         1.74468 
         4.8224         29.0155         1.73026 
        4.83809         28.7659         1.71601 
        4.85379         28.5034         1.70192 
         4.8695         28.2816         1.68797 
        4.88521          28.023         1.67418 
        4.90093         27.7946         1.66055 
        4.91663         27.6787         1.64708 
        4.93234         27.3968         1.63375 
        4.94807         27.2052         1.62055 
        4.96377         26.9921         1.60753 
        4.97943         26.8055         1.59467 
        4.99514         26.5553         1.58192 
        5.01086         26.3869         1.56931 
        5.02654         26.1338         1.55686 
        5.04227         25.9165         1.54451 
          5.058          25.866         1.53228 
        5.07371         25.5992         1.52022 
        5.08942         25.4437         1.50828 
        5.10513         25.2181         1.49647 
        5.12084         24.9718         1.48478 
        5.13656         24.8575         1.47322 
        5.15225         24.6125          1.4618 
        5.16796         24.4265         1.45048 
        5.18369         24.2642         1.43927 
         5.1994         24.0461          1.4282 
        5.21509         23.8474         1.41726 
        5.23079         23.6656         1.40642 
        5.24649          23.454          1.3957 
        5.26217         23.3522         1.38509 
        5.27788         23.1572         1.37459 
        5.29359         22.9574         1.36419 
        5.30933         22.7792         1.35388 
        5.32504         22.6492          1.3437 
        5.34073          22.486         1.33363 
        5.35646         22.3383         1.32365 
        5.37218         22.1324         1.31377 
        5.38789           21.98           1.304 
        5.40357         21.7662         1.29434 
        5.41929         21.6589         1.28476 
        5.43502         21.4518         1.27528 
         5.4507         21.3823         1.26591 
        5.46639         21.1652         1.25664 
        5.48212         20.9674         1.24744 
        5.49786         20.8563         1.23832 
        5.51353         20.6706         1.22933 
        5.52921         20.5163         1.22043 
        5.54495         20.4167         1.21158 
        5.56066         20.2491         1.20284 
        5.57637         20.0893         1.19418 
        5.59207         20.0069         1.18562 
        5.60778         19.8279         1.17713 
        5.62346         19.6621         1.16874 
        5.63916         19.5022         1.16042 
        5.65487         19.3601         1.15219 
         5.6706         19.2399         1.14402 
        5.68633          19.107         1.13592 
        5.70203          18.944         1.12792 
        5.71773         18.8379         1.12001 
        5.73344         18.7224         1.11216 
        5.74916         18.5792         1.10438 
        5.76486         18.4477         1.09668 
        5.78054         18.3038         1.08907 
        5.79626         18.2051         1.08151 
          5.812         18.0769         1.07402 
         5.8277          17.916         1.06662 
        5.84339         17.7786         1.05928 
        5.85911         17.6534         1.05201 
        5.87484         17.5497          1.0448 
        5.89053         17.4102         1.03767 
        5.90623          17.291         1.03061 
        5.92195         17.2041          1.0236 
        5.93767         17.0606         1.01666 
        5.95336         16.9411         1.00979 
        5.96905         16.8298         1.00299 
        5.98476         16.7125        0.996248 
        6.00048          16.553        0.989562 
        6.01617         16.4662        0.982946 
        6.03185         16.3551        0.976398 
        6.04756          16.222        0.969895 
        6.06331         16.1329        0.963436 
        6.07903         16.0011         0.95705 
        6.09473         15.8921        0.950728 
        6.11044         15.7902        0.944458 
        6.12616         15.6999        0.938244 
        6.14186         15.5449        0.932093 
        6.15755         15.4814        0.925997 
        6.17326         15.4064        0.919951 
        6.18898         15.2952        0.913956 
        6.20467         15.1471        0.908026 
        6.22036         15.0556        0.902148 
         6.2361         14.9604        0.896306 
         6.2518         14.8354        0.890526 
        6.26748         14.7675        0.884809 
        6.28319         14.6564        0.879126 
        6.29893         14.5494        0.873489 
        6.31463         14.4588        0.867911 
        6.33033         14.3588        0.862383 
        6.34604         14.2545        0.856899 
        6.36177         14.1952        0.851457 
        6.37747           14.07        0.846073 
