# k  (h/Mpc)    Pcb(k)  (Mpc/h)^3    Pcb_linear(k) (Mpc/h)^3   ShotnoiseSubtracted = true
      0.0200456         7666.76         7801.47 
      0.0350414         5539.81          5671.4 
      0.0492313         4102.42         4120.73 
      0.0637834         3487.62         3425.53 
      0.0800726          2762.4         2718.76 
       0.096163         1940.99          1972.7 
       0.111083         1540.85         1573.47 
       0.126058         1414.22         1394.42 
       0.142273         1218.98         1181.38 
       0.158546         1001.68         933.041 
        0.17375          808.72         786.086 
       0.188953         771.819         711.783 
       0.204907         722.388         629.783 
       0.220756         608.379         532.834 
        0.23588         533.102          463.52 
         0.2514         468.734         421.103 
       0.267535          448.53         381.026 
       0.283568         406.065         336.014 
       0.299022         375.336         299.371 
       0.314451         346.563         273.605 
       0.330372         320.692         251.002 
       0.346141         288.849         227.822 
       0.361624         275.898         207.059 
       0.377134         258.331         190.527 
       0.392932         238.936         176.291 
       0.408854         229.068         162.506 
       0.424564         219.357         149.784 
       0.440253         207.781         138.867 
       0.455999         195.518         129.375 
       0.471626         180.891         120.651 
        0.48727         175.717         112.491 
       0.502856         168.689          105.16 
       0.518488         164.879         98.6184 
       0.534347         156.827         92.5375 
       0.550082         145.643         86.9305 
       0.565732         141.149         81.8009 
       0.581496         135.038         77.1029 
       0.597222         130.861         72.7942 
       0.612804         124.964         68.8323 
       0.628434         122.064         65.1395 
       0.644267         117.862          61.687 
       0.660051         115.511          58.505 
       0.675724         111.903         55.5668 
       0.691403         108.489         52.8279 
       0.707174         104.236         50.2582 
       0.722871         102.639         47.8696 
        0.73838         100.526         45.6619 
       0.754018         95.8783         43.5767 
       0.769845         94.0236          41.599 
        0.78569         91.7602         39.7424 
       0.801365         88.9755         38.0177 
       0.817031         85.9348         36.3968 
       0.832809         84.9555         34.8606 
       0.848511         81.8457         33.4204 
       0.864097         79.7243         32.0719 
       0.879701         78.7187         30.7968 
       0.895507         77.1152         29.5763 
       0.911279         75.7866         28.4249 
        0.92691          73.914         27.3445 
       0.942635         71.7126         26.3146 
       0.958396         71.4281         25.3358 
       0.974128          69.565         24.4087 
       0.989692         68.0063         23.5374 
        1.00528         66.6573         22.7076 
        1.02113         65.3425         21.9049 
        1.03692         63.5345         21.1441 
        1.05264         63.2786         20.4231 
        1.06832         61.5732          19.737 
        1.08405          60.846         19.0807 
        1.09979         60.2187          18.454 
        1.11537         57.9322         17.8618 
        1.13105         58.3631         17.2921 
        1.14679         57.0774         16.7451 
        1.16256         56.1304         16.2209 
        1.17828         54.6926         15.7208 
        1.19395         54.2465         15.2437 
         1.2097         53.0827          14.784 
        1.22537         52.9978         14.3455 
          1.241         51.5951         13.9262 
        1.25666         50.6136         13.5227 
        1.27241         50.2115         13.1333 
        1.28819         49.0463         12.7586 
        1.30392         48.3685         12.3997 
        1.31957         47.9996         12.0563 
        1.33529         47.3001         11.7246 
        1.35108         46.8911         11.4042 
        1.36674         46.1287          11.098 
         1.3824         44.9874         10.8034 
        1.39811         44.8532         10.5185 
        1.41389          44.139         10.2429 
        1.42964         43.4448         9.97763 
        1.44531         42.9115         9.72308 
        1.46101         42.0274         9.47689 
        1.47667         41.9758         9.23998 
        1.49229         41.5042         9.01183 
        1.50793         40.7449         8.79114 
        1.52367         40.2328         8.57644 
        1.53953         39.9805         8.36748 
        1.55526         39.2542         8.16718 
        1.57092         38.8899         7.97427 
        1.58662          38.387         7.78716 
        1.60235         37.9887          7.6057 
        1.61809         37.3564         7.42994 
        1.63369         36.8721         7.26131 
        1.64941         36.3532         7.09672 
        1.66519         35.9657         6.93665 
        1.68085           35.67         6.78266 
        1.69652         35.2077         6.63332 
        1.71228         34.9839         6.48763 
        1.72806         34.4281         6.34621 
        1.74368         33.9438         6.21043 
        1.75933         33.5811         6.07837 
        1.77505         33.4059         5.94953 
        1.79081         32.8312         5.82421 
         1.8065         32.4843         5.70304 
        1.82218         32.2248         5.58543 
        1.83797         31.7734         5.47034 
        1.85367         31.3464         5.35913 
        1.86928         31.1463         5.25168 
        1.88497         30.6952          5.1466 
        1.90073         30.5592         5.04402 
        1.91647         30.1196         4.94432 
        1.93218         29.8643         4.84754 
        1.94787         29.4857         4.75349 
        1.96363         29.2955         4.66157 
        1.97935         28.9272         4.57227 
        1.99499         28.5868         4.48582 
        2.01064         28.4097         4.40149 
         2.0264         27.9104         4.31879 
        2.04216         27.6253         4.23826 
        2.05781          27.358          4.1603 
        2.07353         27.1171         4.08402 
        2.08928         27.0818         4.00949 
        2.10499         26.7583         3.93703 
        2.12065         26.2833         3.86657 
        2.13633         26.1933         3.79778 
        2.15211         25.6774         3.73022 
        2.16785         25.5214         3.66449 
        2.18349         25.3362         3.60077 
        2.19916         25.1173         3.53842 
        2.21489          24.754         3.47735 
        2.23063         24.5891         3.41768 
         2.2463          24.425         3.35968 
        2.26194         24.2049         3.30317 
        2.27765         23.8849         3.24767 
        2.29341         23.6139          3.1933 
        2.30914         23.5133         3.14029 
        2.32486         23.2165         3.08852 
        2.34061         23.0255         3.03783 
        2.35635         22.7274         2.98832 
        2.37203         22.5733         2.94008 
        2.38768         22.3272         2.89302 
        2.40339         22.2141         2.84681 
        2.41914          21.947          2.8015 
        2.43483         21.7011         2.75735 
         2.4505          21.497         2.71422 
        2.46622         21.2818         2.67186 
        2.48195         21.0981          2.6304 
        2.49759         20.8513         2.59005 
        2.51328         20.6696         2.55044 
        2.52906         20.5465         2.51141 
        2.54479         20.2825         2.47334 
        2.56049         20.0586         2.43613 
        2.57618         19.8938         2.39972 
        2.59189         19.7943           2.364 
        2.60758         19.6072         2.32907 
        2.62325         19.4089         2.29488 
        2.63898         19.3081         2.26126 
        2.65468         19.0754         2.22839 
        2.67044         18.8925         2.19603 
        2.68618         18.7092         2.16438 
        2.70184         18.5907         2.13349 
        2.71755         18.3951         2.10312 
        2.73329         18.2252          2.0733 
        2.74897         17.9895         2.04415 
        2.76462         18.0511         2.01563 
        2.78034         17.7611         1.98753 
        2.79607         17.6111         1.95994 
        2.81179         17.4848         1.93291 
        2.82749         17.3106         1.90642 
        2.84321         17.1982         1.88039 
        2.85893         17.0112         1.85486 
        2.87462         16.8381         1.82984 
        2.89033         16.6969         1.80527 
        2.90605         16.6288         1.78112 
        2.92176         16.3578         1.75743 
        2.93747         16.3075         1.73418 
        2.95318         16.1081         1.71135 
        2.96891         15.9815         1.68891 
        2.98456         15.8618         1.66698 
        3.00023         15.7043         1.64541 
        3.01596         15.6216         1.62415 
        3.03164          15.478         1.60333 
        3.04738         15.2753         1.58281 
         3.0631         15.1547         1.56266 
        3.07883         15.0241         1.54286 
        3.09456         14.9285          1.5234 
        3.11026         14.7928         1.50431 
        3.12596         14.6339         1.48555 
        3.14163         14.5701         1.46715 
        3.15734         14.3915         1.44902 
        3.17308         14.2754         1.43116 
        3.18879         14.1719         1.41364 
        3.20447          14.043         1.39644 
         3.2202         13.9095         1.37948 
         3.2359         13.8305         1.36282 
        3.25157         13.7175         1.34649 
        3.26729         13.5776         1.33037 
        3.28304         13.4701         1.31448 
        3.29877          13.334         1.29887 
        3.31446         13.2202         1.28355 
        3.33014         13.1052         1.26849 
        3.34585         13.0008         1.25365 
        3.36158          12.933         1.23902 
        3.37727         12.7604         1.22468 
        3.39294         12.6877         1.21057 
        3.40867         12.5823         1.19664 
        3.42439          12.472         1.18293 
        3.44008         12.4085         1.16946 
        3.45578         12.2915         1.15619 
        3.47153         12.2064          1.1431 
        3.48724         12.0952         1.13024 
        3.50292          11.961          1.1176 
        3.51859         11.9038         1.10516 
        3.53431         11.8055         1.09288 
        3.55007         11.7194         1.08075 
        3.56577         11.6198         1.06885 
        3.58146         11.5585         1.05713 
        3.59719         11.4082         1.04557 
        3.61292         11.3258         1.03418 
        3.62859          11.214           1.023 
        3.64429         11.1521         1.01197 
        3.66003         11.0349         1.00107 
        3.67578         10.9703        0.990327 
        3.69146          10.877        0.979786 
        3.70712         10.7863        0.969417 
        3.72284         10.7054         0.95916 
        3.73853         10.5989        0.949069 
        3.75422         10.5674         0.93912 
        3.76993         10.4731        0.929304 
        3.78564         10.3555        0.919633 
        3.80137         10.2938        0.910084 
        3.81707         10.1913         0.90069 
        3.83279         10.1201        0.891421 
        3.84853         10.0308        0.882267 
        3.86424         9.95019         0.87326 
        3.87992         9.86409        0.864392 
        3.89561         9.80758        0.855647 
        3.91134         9.74296        0.847005 
        3.92704         9.63682        0.838492 
        3.94273         9.58888        0.830104 
        3.95845         9.51473        0.821816 
        3.97418         9.42299        0.813639 
        3.98988         9.34191        0.805584 
        4.00554         9.29518         0.79766 
        4.02125         9.20899        0.789821 
        4.03698         9.14602        0.782074 
        4.05268         9.08082        0.774449 
        4.06839          8.9765        0.766919 
         4.0841         8.94377        0.759493 
        4.09983         8.86013        0.752154 
        4.11555         8.78684        0.744915 
        4.13124         8.72639         0.73779 
        4.14693         8.64171        0.730754 
        4.16266         8.58954        0.723792 
        4.17839          8.5185        0.716926 
        4.19408         8.46674        0.710164 
        4.20977         8.39908        0.703486 
        4.22551          8.3292        0.696878 
        4.24123         8.27089        0.690362 
        4.25691         8.18948        0.683946 
        4.27259         8.12982         0.67761 
        4.28831         8.06375        0.671342 
        4.30404         8.02433        0.665147 
        4.31974         7.95343        0.659044 
        4.33543         7.88179         0.65302 
        4.35116         7.82227        0.647058 
        4.36688          7.7661        0.641172 
        4.38255         7.70633        0.635381 
        4.39825         7.62791        0.629649 
        4.41398          7.6058        0.623976 
         4.4297         7.53753         0.61838 
        4.44541         7.48252        0.612853 
        4.46111         7.41443        0.607397 
        4.47683         7.36787        0.602004 
        4.49251         7.31794        0.596688 
        4.50819         7.25767        0.591437 
         4.5239         7.21562        0.586241 
        4.53962         7.15402        0.581102 
        4.55535         7.09478        0.576021 
        4.57106         7.05053        0.571009 
        4.58678          6.9936        0.566055 
         4.6025         6.93623        0.561159 
        4.61821         6.88362        0.556321 
        4.63391         6.85467        0.551547 
         4.6496         6.78524        0.546831 
        4.66532         6.76161        0.542162 
        4.68103         6.66536         0.53755 
        4.69673         6.63651        0.532996 
        4.71241         6.60001        0.528499 
        4.72811         6.52697        0.524047 
        4.74384         6.48685         0.51964 
        4.75955         6.43041        0.515291 
        4.77525          6.4116        0.510994 
        4.79096         6.34123         0.50674 
        4.80669         6.32124        0.502533 
         4.8224         6.26467        0.498378 
        4.83809         6.21483        0.494275 
        4.85379         6.15316        0.490215 
         4.8695         6.12321        0.486198 
        4.88521         6.08248        0.482227 
        4.90093         6.02428          0.4783 
        4.91663         6.00289        0.474421 
        4.93234         5.95508         0.47058 
        4.94807         5.91705        0.466779 
        4.96377          5.8762        0.463027 
        4.97943         5.81984        0.459324 
        4.99514         5.77909        0.455653 
        5.01086         5.75372        0.452018 
        5.02654         5.70336        0.448432 
        5.04227         5.66193        0.444875 
          5.058         5.63439        0.441355 
        5.07371         5.59183        0.437879 
        5.08942          5.5451        0.434441 
        5.10513         5.51157        0.431039 
        5.12084         5.47717        0.427672 
        5.13656         5.44489        0.424341 
        5.15225         5.41659        0.421052 
        5.16796         5.36624        0.417792 
        5.18369         5.32584        0.414563 
         5.1994         5.29766        0.411375 
        5.21509         5.26067        0.408223 
        5.23079         5.22509          0.4051 
        5.24649         5.18605        0.402012 
        5.26217         5.16002        0.398959 
        5.27788         5.11174        0.395932 
        5.29359         5.08326        0.392937 
        5.30933         5.05636        0.389969 
        5.32504         5.00886        0.387036 
        5.34073         4.98272        0.384136 
        5.35646         4.93812         0.38126 
        5.37218         4.90997        0.378414 
        5.38789         4.88346          0.3756 
        5.40357         4.83956        0.372819 
        5.41929         4.81482        0.370059 
        5.43502         4.78231        0.367328 
         5.4507         4.75115         0.36463 
        5.46639          4.7091        0.361959 
        5.48212         4.68078        0.359308 
        5.49786         4.65611        0.356681 
        5.51353         4.62402        0.354093 
        5.52921         4.59253        0.351528 
        5.54495         4.56996        0.348981 
        5.56066         4.53635        0.346462 
        5.57637         4.50133        0.343968 
        5.59207         4.47243        0.341501 
        5.60778         4.45596        0.339057 
        5.62346         4.42332        0.336641 
        5.63916         4.39249        0.334245 
        5.65487         4.35102        0.331872 
         5.6706         4.32843        0.329519 
        5.68633         4.30227        0.327188 
        5.70203         4.27543        0.324884 
        5.71773         4.25257        0.322603 
        5.73344         4.22976        0.320343 
        5.74916         4.19893        0.318102 
        5.76486         4.17281        0.315885 
        5.78054          4.1436        0.313693 
        5.79626         4.11267        0.311516 
          5.812         4.09812        0.309357 
         5.8277         4.06682        0.307225 
        5.84339         4.04134        0.305113 
        5.85911          4.0179        0.303017 
        5.87484         3.99404         0.30094 
        5.89053         3.97216        0.298888 
        5.90623          3.9436        0.296853 
        5.92195         3.91109        0.294834 
        5.93767         3.90292        0.292835 
        5.95336         3.87502        0.290858 
        5.96905         3.83485        0.288899 
        5.98476         3.82076        0.286956 
        6.00048         3.79261         0.28503 
        6.01617         3.77801        0.283125 
        6.03185         3.75561        0.281239 
        6.04756         3.73554        0.279366 
        6.06331         3.70463        0.277505 
        6.07903         3.67845        0.275666 
        6.09473         3.66413        0.273845 
        6.11044         3.63521        0.272039 
        6.12616         3.62705        0.270249 
        6.14186         3.59926        0.268477 
        6.15755         3.57819        0.266722 
        6.17326         3.55534         0.26498 
        6.18898         3.53577        0.263253 
        6.20467         3.51167        0.261545 
        6.22036         3.49524        0.259852 
         6.2361         3.46577        0.258169 
         6.2518         3.45727        0.256504 
        6.26748         3.42904        0.254858 
        6.28319         3.40874        0.253221 
        6.29893         3.39211        0.251597 
        6.31463         3.35973         0.24999 
        6.33033         3.35509        0.248398 
        6.34604         3.32586        0.246819 
        6.36177         3.31179        0.245251 
        6.37747         3.28727          0.2437 
