# k  (h/Mpc)    Pcb(k)  (Mpc/h)^3    Pcb_linear(k) (Mpc/h)^3   ShotnoiseSubtracted = true
      0.0200456         14185.2         14476.6 
      0.0350414           10156           10524 
      0.0492313         7550.83         7646.52 
      0.0637834         6482.45         6356.48 
      0.0800726         5124.92         5044.98 
       0.096163         3570.18         3660.57 
       0.111083         2847.44         2919.77 
       0.126058          2625.6         2587.51 
       0.142273         2270.31         2192.19 
       0.158546         1926.61         1731.37 
        0.17375         1541.74         1458.68 
       0.188953         1495.78          1320.8 
       0.204907         1405.72         1168.64 
       0.220756         1203.16         988.739 
        0.23588         1063.76         860.117 
         0.2514         926.148         781.407 
       0.267535         911.826          707.04 
       0.283568         826.729         623.514 
       0.299022         774.866         555.519 
       0.314451         733.727         507.706 
       0.330372         675.849         465.764 
       0.346141         621.565         422.751 
       0.361624         597.681         384.223 
       0.377134         554.744         353.546 
       0.392932          531.52         327.129 
       0.408854         512.232          301.55 
       0.424564         482.455         277.943 
       0.440253          471.22         257.685 
       0.455999         444.403          240.07 
       0.471626         419.252         223.883 
        0.48727         405.364          208.74 
       0.502856         393.166         195.136 
       0.518488         389.299         182.998 
       0.534347         364.141         171.714 
       0.550082         346.465          161.31 
       0.565732         344.377         151.791 
       0.581496         324.628         143.074 
       0.597222         319.055         135.078 
       0.612804         309.194         127.727 
       0.628434         297.307         120.874 
       0.644267         288.676         114.468 
       0.660051         283.033         108.563 
       0.675724         278.394         103.111 
       0.691403         270.102         98.0285 
       0.707174         260.094         93.2601 
       0.722871         256.985         88.8279 
        0.73838          252.59         84.7311 
       0.754018         245.877         80.8617 
       0.769845         237.447          77.192 
        0.78569         237.094         73.7469 
       0.801365         228.779         70.5463 
       0.817031         221.871         67.5387 
       0.832809         219.708         64.6881 
       0.848511         213.794         62.0156 
       0.864097         211.013         59.5132 
       0.879701         207.057         57.1472 
       0.895507          201.84         54.8825 
       0.911279         195.748         52.7458 
        0.92691         195.768          50.741 
       0.942635         190.742         48.8299 
       0.958396         189.414         47.0136 
       0.974128         185.018         45.2934 
       0.989692         180.657         43.6766 
        1.00528         178.342         42.1367 
        1.02113         176.984         40.6471 
        1.03692         171.806         39.2355 
        1.05264         168.461         37.8976 
        1.06832         165.549         36.6244 
        1.08405         162.948         35.4066 
        1.09979          161.81         34.2436 
        1.11537         157.215         33.1446 
        1.13105         155.267         32.0875 
        1.14679         154.978         31.0726 
        1.16256         152.228         30.0998 
        1.17828         149.027         29.1719 
        1.19395         146.809         28.2865 
         1.2097         145.696         27.4334 
        1.22537         143.027         26.6198 
          1.241         140.964         25.8417 
        1.25666         138.641         25.0929 
        1.27241         136.236         24.3704 
        1.28819         134.738         23.6752 
        1.30392         132.718         23.0092 
        1.31957         131.679         22.3719 
        1.33529         128.173         21.7564 
        1.35108         127.364         21.1618 
        1.36674         126.096         20.5937 
         1.3824         123.581          20.047 
        1.39811         123.001         19.5184 
        1.41389         120.756         19.0069 
        1.42964         118.202         18.5147 
        1.44531          116.12         18.0423 
        1.46101         115.026         17.5855 
        1.47667         113.691         17.1459 
        1.49229         112.081         16.7225 
        1.50793         111.129          16.313 
        1.52367         109.701         15.9146 
        1.53953          107.55         15.5269 
        1.55526         106.589         15.1552 
        1.57092          105.34         14.7972 
        1.58662         103.407           14.45 
        1.60235          102.93         14.1133 
        1.61809         100.861         13.7871 
        1.63369         100.092         13.4742 
        1.64941         99.2072         13.1688 
        1.66519         97.0445         12.8718 
        1.68085         96.5138          12.586 
        1.69652         94.0689         12.3089 
        1.71228         94.2522         12.0386 
        1.72806         92.8483         11.7762 
        1.74368         91.6284         11.5242 
        1.75933         90.2791         11.2791 
        1.77505         89.3212         11.0401 
        1.79081          87.944         10.8075 
         1.8065          86.966         10.5827 
        1.82218         85.3449         10.3644 
        1.83797         84.3983         10.1509 
        1.85367         83.5753         9.94451 
        1.86928         83.0912         9.74513 
        1.88497         81.3624         9.55014 
        1.90073         80.8285         9.35978 
        1.91647         79.7703         9.17479 
        1.93218         78.6284         8.99519 
        1.94787         77.9591         8.82068 
        1.96363         76.5962         8.65011 
        1.97935         75.9329          8.4844 
        1.99499         74.9685         8.32399 
        2.01064         74.2238         8.16749 
         2.0264         72.8032         8.01404 
        2.04216         72.0589         7.86461 
        2.05781         71.2441         7.71994 
        2.07353         69.9891          7.5784 
        2.08928         69.0845          7.4401 
        2.10499          68.565         7.30563 
        2.12065         68.1132         7.17489 
        2.13633         67.2101         7.04724 
        2.15211         66.3985         6.92187 
        2.16785         65.6468         6.79991 
        2.18349         64.9142         6.68166 
        2.19916         64.0397         6.56597 
        2.21489         63.3782         6.45264 
        2.23063         62.8895         6.34191 
         2.2463         61.9259         6.23428 
        2.26194         61.3489         6.12942 
        2.27765         60.7372         6.02644 
        2.29341         59.9447         5.92556 
        2.30914         59.0232         5.82719 
        2.32486         58.2598         5.73112 
        2.34061          57.723         5.63705 
        2.35635         57.2041         5.54518 
        2.37203         56.2749         5.45568 
        2.38768         55.7227         5.36834 
        2.40339          55.024          5.2826 
        2.41914          54.648         5.19853 
        2.43483         54.3119         5.11659 
         2.4505         53.6261         5.03655 
        2.46622         52.9834         4.95796 
        2.48195         52.3364         4.88103 
        2.49759         51.4898         4.80615 
        2.51328         51.0555         4.73265 
        2.52906         50.6518         4.66022 
        2.54479          50.018         4.58958 
        2.56049          49.369         4.52053 
        2.57618         48.9729         4.45297 
        2.59189         48.4068         4.38669 
        2.60758         48.0649         4.32187 
        2.62325         47.3897         4.25843 
        2.63898         46.9685         4.19604 
        2.65468         46.4271         4.13504 
        2.67044         45.6687         4.07499 
        2.68618           45.43         4.01627 
        2.70184         44.7431         3.95894 
        2.71755         44.6164         3.90259 
        2.73329         43.8029         3.84725 
        2.74897         43.4335         3.79317 
        2.76462         42.9482         3.74024 
        2.78034         42.6667         3.68811 
        2.79607         42.0639         3.63691 
        2.81179         41.6747         3.58675 
        2.82749         41.0236         3.53758 
        2.84321         40.7584         3.48929 
        2.85893         40.3054         3.44191 
        2.87462         39.7879         3.39549 
        2.89033         39.4333         3.34989 
        2.90605         39.0602         3.30508 
        2.92176         38.6698         3.26112 
        2.93747         38.2733         3.21798 
        2.95318         37.8553         3.17561 
        2.96891          37.277         3.13398 
        2.98456         37.1191         3.09329 
        3.00023         36.6867         3.05326 
        3.01596         36.3136         3.01381 
        3.03164          35.871         2.97517 
        3.04738         35.6789          2.9371 
         3.0631         35.1301          2.8997 
        3.07883         34.8398         2.86296 
        3.09456         34.4919         2.82685 
        3.11026         34.0954         2.79143 
        3.12596         33.8287         2.75662 
        3.14163          33.432         2.72248 
        3.15734         32.9867         2.68884 
        3.17308         32.8265         2.65568 
        3.18879         32.5573         2.62318 
        3.20447         32.0884         2.59127 
         3.2202         31.7121         2.55979 
         3.2359         31.5044         2.52888 
        3.25157         31.1781         2.49857 
        3.26729         30.9235         2.46865 
        3.28304         30.5582         2.43917 
        3.29877         30.2512         2.41021 
        3.31446         30.0185         2.38178 
        3.33014         29.6808         2.35384 
        3.34585         29.4441          2.3263 
        3.36158         29.1202         2.29916 
        3.37727         28.7991         2.27254 
        3.39294         28.5259         2.24636 
        3.40867         28.2617          2.2205 
        3.42439         28.0106         2.19506 
        3.44008         27.8147         2.17008 
        3.45578          27.348         2.14546 
        3.47153         27.1512         2.12117 
        3.48724         26.8982         2.09729 
        3.50292          26.616         2.07384 
        3.51859         26.3968         2.05076 
        3.53431         26.2282         2.02796 
        3.55007         25.9188         2.00546 
        3.56577         25.6645         1.98338 
        3.58146         25.4758         1.96164 
        3.59719         25.1615         1.94018 
        3.61292         24.9512         1.91904 
        3.62859         24.7307          1.8983 
        3.64429         24.4439         1.87783 
        3.66003          24.224          1.8576 
        3.67578         24.0913         1.83767 
        3.69146         23.8209         1.81811 
        3.70712         23.5733         1.79887 
        3.72284         23.4382         1.77984 
        3.73853         23.2119         1.76111 
        3.75422         22.9456         1.74265 
        3.76993         22.7829         1.72444 
        3.78564         22.4747         1.70649 
        3.80137         22.3461         1.68877 
        3.81707         22.1585         1.67134 
        3.83279         21.8537         1.65414 
        3.84853          21.621         1.63715 
        3.86424         21.4716         1.62044 
        3.87992         21.2989         1.60398 
        3.89561         21.1216         1.58776 
        3.91134         20.9504         1.57172 
        3.92704         20.7466         1.55592 
        3.94273          20.521         1.54036 
        3.95845         20.3605         1.52498 
        3.97418         20.2152          1.5098 
        3.98988         20.0067         1.49486 
        4.00554         19.8651         1.48015 
        4.02125         19.6867         1.46561 
        4.03698         19.4159         1.45123 
        4.05268         19.2874         1.43708 
        4.06839         19.0989         1.42311 
         4.0841         19.0155         1.40933 
        4.09983          18.813         1.39571 
        4.11555          18.651         1.38228 
        4.13124          18.416         1.36906 
        4.14693         18.2406           1.356 
        4.16266         18.1141         1.34308 
        4.17839         17.9427         1.33034 
        4.19408         17.7622         1.31779 
        4.20977          17.689          1.3054 
        4.22551         17.5202         1.29314 
        4.24123         17.3414         1.28105 
        4.25691         17.2388         1.26915 
        4.27259         17.0522         1.25739 
        4.28831         16.9046         1.24576 
        4.30404         16.7564         1.23426 
        4.31974         16.5855         1.22294 
        4.33543         16.4878         1.21176 
        4.35116         16.3525         1.20069 
        4.36688         16.1755         1.18977 
        4.38255         16.0642         1.17903 
        4.39825         15.9609         1.16839 
        4.41398         15.7865         1.15786 
         4.4297         15.6641         1.14748 
        4.44541         15.5601         1.13722 
        4.46111         15.4101          1.1271 
        4.47683         15.2664         1.11709 
        4.49251         15.1907         1.10723 
        4.50819         15.0147         1.09748 
         4.5239         14.9257         1.08784 
        4.53962         14.7698          1.0783 
        4.55535         14.6724         1.06888 
        4.57106         14.5327         1.05958 
        4.58678         14.4654         1.05038 
         4.6025         14.2979          1.0413 
        4.61821         14.1833         1.03232 
        4.63391         14.0908         1.02346 
         4.6496         13.9417         1.01471 
        4.66532         13.8097         1.00605 
        4.68103         13.7173        0.997489 
        4.69673         13.6607        0.989038 
        4.71241         13.5251        0.980694 
        4.72811         13.4004        0.972432 
        4.74384         13.2986        0.964255 
        4.75955         13.1905        0.956184 
        4.77525         13.1038         0.94821 
        4.79096         13.0005        0.940317 
        4.80669         12.8906        0.932511 
         4.8224         12.7715        0.924801 
        4.83809         12.6879        0.917187 
        4.85379          12.568        0.909654 
         4.8695         12.5159        0.902199 
        4.88521         12.3757        0.894831 
        4.90093         12.2799        0.887544 
        4.91663         12.2243        0.880345 
        4.93234          12.074        0.873218 
        4.94807         12.0145        0.866165 
        4.96377         11.9046        0.859203 
        4.97943         11.8287        0.852332 
        4.99514         11.7117        0.845518 
        5.01086         11.6512        0.838774 
        5.02654         11.5372         0.83212 
        5.04227           11.47         0.82552 
          5.058          11.391        0.818987 
        5.07371         11.2989        0.812538 
        5.08942         11.1959        0.806157 
        5.10513         11.1108        0.799845 
        5.12084         11.0362        0.793596 
        5.13656         10.9496        0.787416 
        5.15225         10.8607        0.781312 
        5.16796          10.804        0.775263 
        5.18369         10.6934        0.769272 
         5.1994         10.6374        0.763355 
        5.21509         10.5431        0.757506 
        5.23079         10.4858        0.751711 
        5.24649         10.4145        0.745982 
        5.26217         10.2989        0.740316 
        5.27788         10.2291          0.7347 
        5.29359          10.176        0.729142 
        5.30933         10.1006        0.723634 
        5.32504         10.0286        0.718191 
        5.34073         9.93508        0.712811 
        5.35646         9.87379        0.707475 
        5.37218         9.80132        0.702192 
        5.38789         9.72434        0.696972 
        5.40357         9.65638         0.69181 
        5.41929         9.56829         0.68669 
        5.43502         9.54263        0.681621 
         5.4507          9.4439        0.676615 
        5.46639         9.37984        0.671658 
        5.48212         9.31832         0.66674 
        5.49786         9.24242        0.661864 
        5.51353         9.17156        0.657062 
        5.52921         9.10622        0.652303 
        5.54495         9.03337        0.647576 
        5.56066         8.96789        0.642902 
        5.57637         8.90349        0.638275 
        5.59207          8.8536        0.633696 
        5.60778         8.77669        0.629162 
        5.62346         8.71862        0.624677 
        5.63916         8.65956        0.620233 
        5.65487         8.59791        0.615829 
         5.6706         8.54658        0.611462 
        5.68633         8.47375        0.607137 
        5.70203         8.43297        0.602862 
        5.71773         8.36279        0.598629 
        5.73344         8.30481        0.594434 
        5.74916         8.22853        0.590276 
        5.76486         8.21309        0.586163 
        5.78054          8.1272        0.582095 
        5.79626          8.0597        0.578055 
          5.812          8.0255        0.574049 
         5.8277         7.96339        0.570093 
        5.84339         7.91322        0.566174 
        5.85911         7.85172        0.562284 
        5.87484         7.80142        0.558431 
        5.89053         7.74675        0.554622 
        5.90623         7.68704        0.550847 
        5.92195         7.65063        0.547101 
        5.93767         7.59946        0.543391 
        5.95336          7.5401        0.539722 
        5.96905         7.47122        0.536088 
        5.98476          7.4477        0.532482 
        6.00048         7.39563        0.528908 
        6.01617         7.34648        0.525372 
        6.03185         7.28824        0.521873 
        6.04756         7.23352        0.518397 
        6.06331         7.19994        0.514945 
        6.07903         7.15886        0.511532 
        6.09473         7.08583        0.508152 
        6.11044         7.05479        0.504801 
        6.12616         7.00634         0.50148 
        6.14186         6.95784        0.498192 
        6.15755         6.90341        0.494934 
        6.17326         6.86628        0.491702 
        6.18898         6.82605        0.488498 
        6.20467         6.77586        0.485328 
        6.22036         6.73043        0.482187 
         6.2361         6.69425        0.479064 
         6.2518         6.64082        0.475975 
        6.26748         6.58971        0.472919 
        6.28319         6.55321        0.469882 
        6.29893         6.52287        0.466869 
        6.31463         6.48089        0.463887 
        6.33033         6.43695        0.460933 
        6.34604         6.39323        0.458002 
        6.36177         6.34224        0.455093 
        6.37747         6.32113        0.452216 
