# k  (h/Mpc)    Pcb(k)  (Mpc/h)^3    Pcb_linear(k) (Mpc/h)^3   ShotnoiseSubtracted = true
      0.0200456           20026         20369.7 
      0.0350414         15263.1         14808.1 
      0.0492313         10548.9         10759.3 
      0.0637834          8507.2         8944.08 
      0.0800726         6680.21         7098.69 
       0.096163         5348.53         5150.72 
       0.111083         4355.44         4108.35 
       0.126058         3602.33         3640.83 
       0.142273         3148.24         3084.58 
       0.158546         2584.61         2436.18 
        0.17375         2301.04         2052.48 
       0.188953         2173.01         1858.47 
       0.204907         1867.26         1644.37 
       0.220756         1685.39         1391.23 
        0.23588         1503.81         1210.25 
         0.2514         1357.86          1099.5 
       0.267535         1312.91         994.861 
       0.283568         1165.02         877.334 
       0.299022         1111.53         781.659 
       0.314451         1154.04         714.383 
       0.330372         1011.83         655.367 
       0.346141         930.044         594.845 
       0.361624         892.332         540.633 
       0.377134         852.903         497.467 
       0.392932         815.939         460.297 
       0.408854         780.283         424.305 
       0.424564         762.126         391.088 
       0.440253         703.099         362.584 
       0.455999         672.393         337.798 
       0.471626         684.833         315.021 
        0.48727         645.946         293.714 
       0.502856          613.84         274.572 
       0.518488         600.331         257.493 
       0.534347         571.807         241.616 
       0.550082         545.856         226.976 
       0.565732         539.465         213.583 
       0.581496         527.391         201.316 
       0.597222         514.254         190.066 
       0.612804         502.382         179.722 
       0.628434         481.468          170.08 
       0.644267         466.508         161.065 
       0.660051         460.744         152.757 
       0.675724         451.289         145.085 
       0.691403         440.108         137.934 
       0.707174         424.885         131.224 
       0.722871         418.664         124.988 
        0.73838         411.375         119.223 
       0.754018         398.799         113.779 
       0.769845          395.14         108.615 
        0.78569         386.721         103.768 
       0.801365         373.466         99.2643 
       0.817031         370.734         95.0323 
       0.832809         364.543         91.0213 
       0.848511         357.306         87.2609 
       0.864097         348.284         83.7399 
       0.879701         346.235         80.4107 
       0.895507         334.012          77.224 
       0.911279         328.084         74.2175 
        0.92691         325.125         71.3967 
       0.942635         321.719         68.7076 
       0.958396         310.903         66.1519 
       0.974128         307.836         63.7314 
       0.989692         296.929         61.4564 
        1.00528             296         59.2896 
        1.02113          291.23         57.1938 
        1.03692         285.667         55.2074 
        1.05264         280.944         53.3249 
        1.06832         277.569         51.5334 
        1.08405         273.026         49.8199 
        1.09979         268.704         48.1835 
        1.11537         262.119         46.6371 
        1.13105         258.509         45.1497 
        1.14679         255.246         43.7216 
        1.16256         253.119         42.3528 
        1.17828         248.967         41.0472 
        1.19395         242.417         39.8013 
         1.2097         242.332          38.601 
        1.22537         238.173         37.4561 
          1.241         232.137         36.3613 
        1.25666         230.464         35.3077 
        1.27241         226.608         34.2911 
        1.28819         222.729         33.3128 
        1.30392          221.25         32.3758 
        1.31957         214.947          31.479 
        1.33529         212.105          30.613 
        1.35108         211.079         29.7763 
        1.36674          205.28         28.9769 
         1.3824         204.093         28.2077 
        1.39811         202.194          27.464 
        1.41389         196.332         26.7443 
        1.42964         194.265         26.0517 
        1.44531         192.578          25.387 
        1.46101         189.082         24.7442 
        1.47667         186.907         24.1256 
        1.49229         184.132         23.5299 
        1.50793         181.227         22.9537 
        1.52367         179.062         22.3931 
        1.53953         175.039         21.8476 
        1.55526         174.146         21.3246 
        1.57092         172.683         20.8209 
        1.58662         168.275         20.3323 
        1.60235         166.724         19.8585 
        1.61809         164.167         19.3996 
        1.63369         161.223         18.9593 
        1.64941         159.538         18.5296 
        1.66519         157.517         18.1116 
        1.68085          154.82         17.7096 
        1.69652         153.069         17.3196 
        1.71228         150.612         16.9392 
        1.72806         149.236           16.57 
        1.74368         147.247         16.2155 
        1.75933         146.028         15.8707 
        1.77505         143.715         15.5343 
        1.79081         140.574          15.207 
         1.8065         139.112         14.8907 
        1.82218         136.669         14.5836 
        1.83797         135.835         14.2831 
        1.85367         133.948         13.9927 
        1.86928         132.125         13.7122 
        1.88497         130.785         13.4378 
        1.90073         129.373           13.17 
        1.91647         126.926         12.9097 
        1.93218         125.498          12.657 
        1.94787         123.493         12.4114 
        1.96363          122.89         12.1714 
        1.97935         121.224         11.9382 
        1.99499         119.731         11.7125 
        2.01064         117.162         11.4923 
         2.0264         116.333         11.2764 
        2.04216          114.63         11.0661 
        2.05781         113.127         10.8626 
        2.07353         111.697         10.6634 
        2.08928         110.315         10.4688 
        2.10499         109.207         10.2796 
        2.12065         107.981         10.0956 
        2.13633         106.996         9.91603 
        2.15211         105.134         9.73963 
        2.16785         103.796         9.56802 
        2.18349         102.355         9.40163 
        2.19916         101.451         9.23884 
        2.21489         100.435         9.07938 
        2.23063         98.5766         8.92358 
         2.2463         97.6561         8.77213 
        2.26194         96.6839         8.62459 
        2.27765         95.3258         8.47968 
        2.29341         94.4217         8.33773 
        2.30914         93.1565         8.19932 
        2.32486         91.4663         8.06414 
        2.34061         90.9402         7.93178 
        2.35635          89.783         7.80251 
        2.37203         88.2489         7.67658 
        2.38768         87.4818         7.55368 
        2.40339         86.7355         7.43304 
        2.41914         85.2207         7.31475 
        2.43483         84.5876         7.19945 
         2.4505         83.5112         7.08683 
        2.46622         82.5017         6.97624 
        2.48195         81.6621           6.868 
        2.49759         80.5336         6.76264 
        2.51328         79.8003         6.65921 
        2.52906         78.3245          6.5573 
        2.54479         77.6321          6.4579 
        2.56049         76.4815         6.36075 
        2.57618         75.5811         6.26569 
        2.59189         75.2012         6.17243 
        2.60758         73.6324         6.08121 
        2.62325         73.3616         5.99195 
        2.63898         72.4627         5.90417 
        2.65468         71.6117         5.81833 
        2.67044         70.5507         5.73384 
        2.68618         70.0203         5.65121 
        2.70184         69.0039         5.57055 
        2.71755         68.2945         5.49126 
        2.73329         67.2856         5.41339 
        2.74897         66.9327         5.33729 
        2.76462         66.0502         5.26282 
        2.78034          65.011         5.18946 
        2.79607         64.4159         5.11742 
        2.81179         63.9438         5.04684 
        2.82749         63.3581         4.97766 
        2.84321         62.5822         4.90971 
        2.85893         61.8515         4.84304 
        2.87462         61.1388         4.77773 
        2.89033         60.5895         4.71356 
        2.90605         60.0304         4.65052 
        2.92176         59.2057         4.58866 
        2.93747         58.6899         4.52795 
        2.95318         57.8554         4.46834 
        2.96891         57.3361         4.40976 
        2.98456         56.6894          4.3525 
        3.00023         56.1057         4.29617 
        3.01596         55.6205         4.24067 
        3.03164         54.9404          4.1863 
        3.04738          54.558         4.13273 
         3.0631         53.5845         4.08011 
        3.07883         53.0972         4.02841 
        3.09456         52.5331         3.97761 
        3.11026         51.9791         3.92776 
        3.12596         51.5553         3.87878 
        3.14163         50.8495         3.83074 
        3.15734         50.3258         3.78341 
        3.17308         49.8577         3.73676 
        3.18879         49.3234         3.69102 
        3.20447          48.949         3.64612 
         3.2202         48.2504         3.60182 
         3.2359         47.7307         3.55834 
        3.25157         47.3845         3.51568 
        3.26729         46.7892         3.47359 
        3.28304         46.4069         3.43211 
        3.29877         45.8618         3.39136 
        3.31446         45.5022         3.35136 
        3.33014          44.982         3.31204 
        3.34585         44.3988         3.27329 
        3.36158         44.0381          3.2351 
        3.37727         43.5974         3.19764 
        3.39294          43.262         3.16081 
        3.40867         42.8114         3.12442 
        3.42439         42.3714         3.08863 
        3.44008         41.8143         3.05347 
        3.45578         41.5072         3.01883 
        3.47153         41.0131         2.98465 
        3.48724         40.5833         2.95106 
        3.50292         40.2218         2.91806 
        3.51859          39.812         2.88559 
        3.53431         39.3207         2.85351 
        3.55007         39.0178         2.82184 
        3.56577         38.7501         2.79077 
        3.58146          38.254         2.76018 
        3.59719         37.8826         2.72998 
        3.61292         37.4748         2.70025 
        3.62859         37.2359         2.67107 
        3.64429         36.9009         2.64226 
        3.66003         36.5269         2.61379 
        3.67578         36.2216         2.58575 
        3.69146         35.9108         2.55823 
        3.70712         35.4774         2.53115 
        3.72284         35.1815         2.50437 
        3.73853         34.9173         2.47803 
        3.75422         34.5837         2.45205 
        3.76993          34.249         2.42642 
        3.78564          34.012         2.40117 
        3.80137         33.6197         2.37623 
        3.81707         33.3013         2.35171 
        3.83279          32.978         2.32751 
        3.84853          32.653         2.30361 
        3.86424         32.3329         2.28009 
        3.87992         32.1864         2.25693 
        3.89561         31.8699          2.2341 
        3.91134         31.6334         2.21153 
        3.92704         31.2594         2.18931 
        3.94273         30.9934         2.16741 
        3.95845         30.7398         2.14577 
        3.97418         30.4008         2.12442 
        3.98988         30.0909         2.10339 
        4.00554         29.8381          2.0827 
        4.02125         29.6651         2.06223 
        4.03698         29.2769           2.042 
        4.05268         29.0665         2.02209 
        4.06839         28.7363         2.00243 
         4.0841         28.5838         1.98304 
        4.09983         28.2768         1.96388 
        4.11555         27.9907         1.94498 
        4.13124         27.8078         1.92638 
        4.14693         27.5741           1.908 
        4.16266         27.2361         1.88983 
        4.17839          27.079          1.8719 
        4.19408         26.8226         1.85424 
        4.20977         26.5729         1.83681 
        4.22551         26.3574         1.81955 
        4.24123         26.1462         1.80254 
        4.25691         25.8987         1.78579 
        4.27259          25.755         1.76925 
        4.28831          25.441         1.75288 
        4.30404         25.2398          1.7367 
        4.31974          24.961         1.72077 
        4.33543         24.8222         1.70504 
        4.35116         24.5998         1.68947 
        4.36688         24.4058          1.6741 
        4.38255         24.2426         1.65898 
        4.39825         23.9421         1.64402 
        4.41398         23.7722         1.62921 
         4.4297         23.5547         1.61459 
        4.44541         23.4219         1.60016 
        4.46111          23.228         1.58592 
        4.47683         22.9749         1.57184 
        4.49251         22.8042         1.55795 
        4.50819         22.6368         1.54424 
         4.5239         22.4267         1.53068 
        4.53962         22.2723         1.51726 
        4.55535          22.032           1.504 
        4.57106         21.8697         1.49091 
        4.58678         21.6967         1.47797 
         4.6025         21.4688         1.46519 
        4.61821         21.3238         1.45256 
        4.63391         21.1238         1.44009 
         4.6496         20.9715         1.42778 
        4.66532         20.8333         1.41559 
        4.68103         20.5804         1.40355 
        4.69673         20.5164         1.39166 
        4.71241         20.3229         1.37991 
        4.72811         20.1491         1.36829 
        4.74384         19.9727         1.35678 
        4.75955         19.8488         1.34543 
        4.77525         19.6735         1.33421 
        4.79096         19.5154          1.3231 
        4.80669         19.3697         1.31212 
         4.8224         19.2241         1.30127 
        4.83809         19.0568         1.29056 
        4.85379         18.9095         1.27996 
         4.8695         18.7522         1.26947 
        4.88521         18.5947          1.2591 
        4.90093         18.4574         1.24885 
        4.91663         18.3222         1.23872 
        4.93234         18.1439         1.22869 
        4.94807         18.0332         1.21876 
        4.96377         17.9207         1.20897 
        4.97943         17.6995          1.1993 
        4.99514         17.5908         1.18971 
        5.01086         17.4421         1.18022 
        5.02654         17.3431         1.17086 
        5.04227         17.1669         1.16157 
          5.058         17.0469         1.15238 
        5.07371         16.9408         1.14331 
        5.08942         16.7822         1.13433 
        5.10513         16.6579         1.12545 
        5.12084         16.5591         1.11665 
        5.13656         16.3819         1.10796 
        5.15225         16.2699         1.09937 
        5.16796          16.163         1.09086 
        5.18369         16.0487         1.08243 
         5.1994         15.9415          1.0741 
        5.21509         15.8253         1.06587 
        5.23079         15.6913         1.05772 
        5.24649         15.6019         1.04966 
        5.26217           15.46         1.04168 
        5.27788         15.3213         1.03378 
        5.29359         15.2259         1.02596 
        5.30933         15.1088         1.01821 
        5.32504          14.966         1.01055 
        5.34073         14.9043         1.00298 
        5.35646         14.7833        0.995473 
        5.37218          14.638         0.98804 
        5.38789         14.5578        0.980695 
        5.40357         14.4533        0.973432 
        5.41929         14.3449        0.966227 
        5.43502         14.2278        0.959095 
         5.4507         14.1543        0.952051 
        5.46639         14.0453        0.945076 
        5.48212         13.9258        0.938156 
        5.49786          13.822        0.931296 
        5.51353         13.7211        0.924539 
        5.52921         13.6207        0.917842 
        5.54495         13.5036        0.911192 
        5.56066          13.435        0.904614 
        5.57637         13.3262        0.898103 
        5.59207         13.2227        0.891661 
        5.60778         13.1257        0.885281 
        5.62346         13.0664        0.878971 
        5.63916         12.9408        0.872717 
        5.65487         12.8516         0.86652 
         5.6706         12.7746        0.860376 
        5.68633         12.6931         0.85429 
        5.70203         12.5848        0.848275 
        5.71773         12.4967        0.842319 
        5.73344         12.4216        0.836416 
        5.74916         12.3281        0.830565 
        5.76486         12.2444        0.824778 
        5.78054          12.157        0.819055 
        5.79626         12.0493         0.81337 
          5.812         11.9903        0.807733 
         5.8277         11.9071        0.802166 
        5.84339         11.8081        0.796652 
        5.85911         11.7233        0.791178 
        5.87484         11.6615        0.785757 
        5.89053         11.5584        0.780398 
        5.90623         11.4688        0.775086 
        5.92195         11.3819        0.769814 
        5.93767         11.3076        0.764594 
        5.95336         11.2662        0.759432 
        5.96905           11.17        0.754318 
        5.98476         11.1191        0.749245 
        6.00048         11.0119        0.744216 
        6.01617         10.9321        0.739241 
        6.03185         10.8793        0.734316 
        6.04756         10.7935        0.729425 
        6.06331         10.7114        0.724568 
        6.07903         10.6414        0.719766 
        6.09473         10.5864        0.715011 
        6.11044         10.4954        0.710295 
        6.12616         10.4141        0.705622 
        6.14186         10.3491        0.700996 
        6.15755         10.2944        0.696412 
        6.17326         10.2108        0.691865 
        6.18898         10.1417        0.687356 
        6.20467         10.0851        0.682896 
        6.22036         10.0227        0.678475 
         6.2361          9.9455        0.674082 
         6.2518         9.90756        0.669735 
        6.26748         9.82481        0.665435 
        6.28319         9.76638        0.661162 
        6.29893         9.69482        0.656922 
        6.31463         9.63017        0.652727 
        6.33033         9.55734        0.648569 
        6.34604         9.49331        0.644445 
        6.36177         9.44846        0.640353 
        6.37747         9.37394        0.636303 
