# k  (h/Mpc)    Pcb(k)  (Mpc/h)^3    Pcb_linear(k) (Mpc/h)^3   ShotnoiseSubtracted = true
      0.0200456         5083.14         5166.12 
      0.0350414         3689.75         3755.59 
      0.0492313         2725.25         2728.74 
      0.0637834         2304.91         2268.38 
      0.0800726         1826.67         1800.36 
       0.096163         1290.75         1306.31 
       0.111083         1023.82         1041.95 
       0.126058         934.799          923.38 
       0.142273         803.484         782.306 
       0.158546         651.275         617.858 
        0.17375         529.537         520.545 
       0.188953         499.589         471.341 
       0.204907         465.146         417.041 
       0.220756         389.254         352.842 
        0.23588         340.088         306.942 
         0.2514         300.998         278.854 
       0.267535         283.374         252.315 
       0.283568         255.664         222.508 
       0.299022          234.42         198.243 
       0.314451         213.048          181.18 
       0.330372         197.801         166.213 
       0.346141         178.303         150.863 
       0.361624         168.353         137.114 
       0.377134          158.35         126.167 
       0.392932         143.217          116.74 
       0.408854         137.593         107.611 
       0.424564         131.575         99.1869 
       0.440253         122.667         91.9577 
       0.455999         115.459         85.6717 
       0.471626         106.907         79.8949 
        0.48727         103.473          74.491 
       0.502856         98.3944         69.6365 
       0.518488         94.9286         65.3049 
       0.534347         91.0467         61.2781 
       0.550082         83.8899         57.5652 
       0.565732         79.9456         54.1684 
       0.581496         77.2242         51.0574 
       0.597222         74.6925         48.2042 
       0.612804         70.5796         45.5806 
       0.628434         68.8526         43.1352 
       0.644267         66.7296          40.849 
       0.660051          64.396         38.7419 
       0.675724         61.5991         36.7962 
       0.691403         59.7557         34.9825 
       0.707174         57.8935         33.2809 
       0.722871         56.0287         31.6992 
        0.73838         54.5879         30.2372 
       0.754018         51.9633         28.8564 
       0.769845         50.8059         27.5468 
        0.78569         49.4095         26.3174 
       0.801365         47.6565         25.1752 
       0.817031         46.5056         24.1019 
       0.832809         45.7366         23.0846 
       0.848511         43.3162         22.1309 
       0.864097         42.4562         21.2379 
       0.879701         41.7318         20.3936 
       0.895507         41.0774         19.5854 
       0.911279         39.8368         18.8229 
        0.92691          38.865         18.1075 
       0.942635         37.4731         17.4255 
       0.958396         37.1793         16.7773 
       0.974128         36.0863         16.1634 
       0.989692         35.5748         15.5865 
        1.00528         34.7811         15.0369 
        1.02113         33.6137         14.5054 
        1.03692          32.966         14.0016 
        1.05264         32.4927         13.5241 
        1.06832          31.673         13.0698 
        1.08405         31.1243         12.6352 
        1.09979         30.5077         12.2202 
        1.11537          29.663          11.828 
        1.13105         29.5425         11.4508 
        1.14679         29.1101         11.0886 
        1.16256         28.1818         10.7414 
        1.17828         27.8448         10.4103 
        1.19395         27.2108         10.0943 
         1.2097         27.0116         9.78991 
        1.22537         26.4973         9.49955 
          1.241         25.9617         9.22189 
        1.25666         25.2983         8.95467 
        1.27241         25.0327         8.69683 
        1.28819         24.3978         8.44873 
        1.30392         24.2044         8.21107 
        1.31957         24.0025         7.98364 
        1.33529         23.7075         7.76401 
        1.35108         23.1469         7.55181 
        1.36674         22.7745         7.34907 
         1.3824         22.3317         7.15399 
        1.39811         22.1146         6.96536 
        1.41389         21.8871         6.78283 
        1.42964         21.4925         6.60717 
        1.44531         21.3761          6.4386 
        1.46101         20.8041         6.27558 
        1.47667         20.5761          6.1187 
        1.49229         20.3805         5.96761 
        1.50793         20.0991         5.82147 
        1.52367         19.8698          5.6793 
        1.53953         19.6414         5.54093 
        1.55526         19.2767         5.40829 
        1.57092         19.0068         5.28055 
        1.58662         18.8086         5.15664 
        1.60235         18.5707         5.03648 
        1.61809         18.3532         4.92009 
        1.63369         18.1302         4.80842 
        1.64941         17.7755         4.69943 
        1.66519         17.7115         4.59343 
        1.68085         17.4279         4.49147 
        1.69652          17.211         4.39257 
        1.71228         17.0462         4.29609 
        1.72806         16.8686         4.20245 
        1.74368         16.6289         4.11254 
        1.75933         16.4506         4.02508 
        1.77505         16.2558         3.93977 
        1.79081         16.0329         3.85678 
         1.8065         15.9623         3.77654 
        1.82218         15.6673         3.69866 
        1.83797         15.4725         3.62245 
        1.85367         15.3251          3.5488 
        1.86928         15.2416         3.47765 
        1.88497         14.9809         3.40807 
        1.90073         14.9638         3.34014 
        1.91647         14.7352         3.27412 
        1.93218         14.6008         3.21003 
        1.94787          14.467         3.14775 
        1.96363         14.3436         3.08688 
        1.97935         14.1618         3.02775 
        1.99499          13.964          2.9705 
        2.01064          13.843         2.91466 
         2.0264         13.6975         2.85989 
        2.04216         13.5558         2.80657 
        2.05781         13.3551         2.75494 
        2.07353         13.2687         2.70443 
        2.08928         13.1451         2.65508 
        2.10499         13.0242         2.60709 
        2.12065          12.828         2.56044 
        2.13633          12.819         2.51488 
        2.15211         12.6134         2.47014 
        2.16785          12.595         2.42662 
        2.18349         12.4846         2.38442 
        2.19916         12.2994         2.34314 
        2.21489         12.2138         2.30269 
        2.23063         12.0688         2.26318 
         2.2463         11.9434         2.22477 
        2.26194         11.8461         2.18735 
        2.27765         11.7946          2.1506 
        2.29341         11.6462          2.1146 
        2.30914           11.47          2.0795 
        2.32486          11.453         2.04521 
        2.34061         11.3291         2.01164 
        2.35635         11.2218         1.97886 
        2.37203         11.1609         1.94692 
        2.38768         10.9879         1.91575 
        2.40339         10.8797         1.88515 
        2.41914         10.7873         1.85515 
        2.43483          10.755         1.82591 
         2.4505         10.6505         1.79735 
        2.46622         10.5406          1.7693 
        2.48195         10.4793         1.74185 
        2.49759         10.3704         1.71513 
        2.51328         10.2549          1.6889 
        2.52906         10.1818         1.66305 
        2.54479         10.0853         1.63784 
        2.56049         10.0488          1.6132 
        2.57618         9.97134         1.58909 
        2.59189         9.82321         1.56544 
        2.60758         9.80717          1.5423 
        2.62325         9.73772         1.51967 
        2.63898         9.57548          1.4974 
        2.65468         9.49444         1.47563 
        2.67044         9.44486          1.4542 
        2.68618         9.34212         1.43325 
        2.70184         9.29351         1.41279 
        2.71755         9.19869         1.39268 
        2.73329         9.10189         1.37293 
        2.74897         9.05203         1.35363 
        2.76462         9.03366         1.33474 
        2.78034         8.87376         1.31614 
        2.79607         8.84028         1.29787 
        2.81179         8.76581         1.27997 
        2.82749         8.73286         1.26242 
        2.84321         8.64695         1.24519 
        2.85893         8.57686         1.22828 
        2.87462         8.50334         1.21172 
        2.89033         8.40885         1.19544 
        2.90605         8.35744         1.17945 
        2.92176         8.29929         1.16377 
        2.93747         8.23341         1.14837 
        2.95318          8.2087         1.13325 
        2.96891         8.11631          1.1184 
        2.98456         8.03325         1.10387 
        3.00023         7.97922         1.08959 
        3.01596         7.94065         1.07551 
        3.03164         7.88966         1.06172 
        3.04738         7.84233         1.04813 
         3.0631         7.73775         1.03479 
        3.07883         7.69613         1.02168 
        3.09456         7.64423         1.00879 
        3.11026         7.57233        0.996151 
        3.12596         7.53547        0.983728 
        3.14163         7.45522        0.971545 
        3.15734         7.41196         0.95954 
        3.17308         7.35803        0.947709 
        3.18879         7.28465        0.936109 
        3.20447         7.24823        0.924721 
         3.2202         7.17276        0.913487 
         3.2359         7.15092        0.902459 
        3.25157         7.09217         0.89164 
        3.26729         7.05325        0.880965 
        3.28304         6.97243        0.870444 
        3.29877         6.92032        0.860109 
        3.31446         6.88771        0.849964 
        3.33014         6.82715        0.839992 
        3.34585          6.8048        0.830164 
        3.36158         6.73988        0.820479 
        3.37727         6.70331        0.810979 
        3.39294         6.66329        0.801637 
        3.40867         6.57646         0.79241 
        3.42439         6.55399        0.783332 
        3.44008          6.4938        0.774415 
        3.45578          6.4545        0.765629 
        3.47153         6.41802        0.756961 
        3.48724         6.37375        0.748442 
        3.50292         6.33931        0.740074 
        3.51859         6.27871        0.731837 
        3.53431         6.22483        0.723701 
        3.55007         6.20341        0.715668 
        3.56577         6.16203        0.707789 
        3.58146         6.12351        0.700032 
        3.59719         6.06367        0.692373 
        3.61292         6.04266        0.684831 
        3.62859         5.98451         0.67743 
        3.64429         5.95235        0.670124 
        3.66003         5.89353        0.662904 
        3.67578         5.87282        0.655792 
        3.69146         5.80634        0.648812 
        3.70712         5.79939        0.641946 
        3.72284         5.73074        0.635154 
        3.73853         5.70681        0.628472 
        3.75422         5.66229        0.621883 
        3.76993          5.6413        0.615383 
        3.78564         5.58087        0.608979 
        3.80137         5.55804        0.602656 
        3.81707          5.5135        0.596435 
        3.83279         5.48603        0.590297 
        3.84853         5.42819        0.584236 
        3.86424         5.38851        0.578271 
        3.87992         5.36407        0.572399 
        3.89561         5.33274        0.566608 
        3.91134         5.28725        0.560885 
        3.92704         5.24742        0.555247 
        3.94273         5.21788        0.549693 
        3.95845         5.19144        0.544205 
        3.97418         5.15887         0.53879 
        3.98988         5.11704        0.533456 
        4.00554         5.08594        0.528209 
        4.02125         5.05638        0.523018 
        4.03698         5.01685        0.517888 
        4.05268         4.98321        0.512838 
        4.06839          4.9601        0.507852 
         4.0841         4.91483        0.502934 
        4.09983         4.87913        0.498075 
        4.11555         4.83297        0.493281 
        4.13124         4.80711        0.488563 
        4.14693         4.76599        0.483904 
        4.16266         4.73403        0.479294 
        4.17839         4.71098        0.474747 
        4.19408         4.66397        0.470269 
        4.20977          4.6405        0.465847 
        4.22551         4.60343        0.461471 
        4.24123         4.58339        0.457156 
        4.25691         4.55937        0.452908 
        4.27259         4.53204        0.448712 
        4.28831         4.49793        0.444561 
        4.30404         4.46034        0.440459 
        4.31974         4.43462        0.436417 
        4.33543         4.38911        0.432429 
        4.35116         4.37007         0.42848 
        4.36688         4.32705        0.424583 
        4.38255         4.30239        0.420748 
        4.39825         4.29481        0.416952 
        4.41398         4.26481        0.413196 
         4.4297         4.23475         0.40949 
        4.44541         4.20386         0.40583 
        4.46111         4.18426        0.402217 
        4.47683         4.13658        0.398646 
        4.49251         4.12569        0.395125 
        4.50819         4.09787        0.391648 
         4.5239         4.07418        0.388208 
        4.53962         4.05894        0.384804 
        4.55535         4.02664         0.38144 
        4.57106         4.00293        0.378121 
        4.58678          3.9735        0.374841 
         4.6025         3.95595        0.371598 
        4.61821         3.92529        0.368395 
        4.63391         3.90128        0.365233 
         4.6496         3.88437         0.36211 
        4.66532         3.85065        0.359019 
        4.68103          3.8178        0.355965 
        4.69673         3.80341        0.352949 
        4.71241         3.77215        0.349971 
        4.72811         3.75617        0.347023 
        4.74384         3.74368        0.344105 
        4.75955         3.70679        0.341225 
        4.77525         3.67992        0.338379 
        4.79096         3.65674        0.335562 
        4.80669         3.63708        0.332776 
         4.8224         3.62057        0.330025 
        4.83809         3.59647        0.327308 
        4.85379         3.57514         0.32462 
         4.8695         3.54879        0.321959 
        4.88521         3.52426         0.31933 
        4.90093         3.51811         0.31673 
        4.91663         3.48989         0.31416 
        4.93234         3.46959        0.311617 
        4.94807         3.45298          0.3091 
        4.96377          3.4168        0.306616 
        4.97943         3.40089        0.304164 
        4.99514         3.37715        0.301732 
        5.01086          3.3657        0.299325 
        5.02654          3.3402        0.296951 
        5.04227         3.32563        0.294595 
          5.058         3.31242        0.292264 
        5.07371         3.28422        0.289963 
        5.08942         3.27055        0.287686 
        5.10513         3.24765        0.285433 
        5.12084         3.22864        0.283203 
        5.13656          3.2122        0.280998 
        5.15225         3.19159        0.278819 
        5.16796         3.17325        0.276661 
        5.18369         3.15916        0.274523 
         5.1994         3.13622        0.272411 
        5.21509         3.11716        0.270324 
        5.23079         3.09949        0.268256 
        5.24649         3.08743        0.266212 
        5.26217         3.06593         0.26419 
        5.27788         3.04341        0.262186 
        5.29359         3.02872        0.260202 
        5.30933         3.01267        0.258236 
        5.32504         2.99201        0.256294 
        5.34073         2.97446        0.254374 
        5.35646         2.96611         0.25247 
        5.37218         2.94149        0.250585 
        5.38789         2.92563        0.248722 
        5.40357         2.91238         0.24688 
        5.41929          2.8902        0.245053 
        5.43502         2.88066        0.243244 
         5.4507         2.86315        0.241457 
        5.46639          2.8435        0.239688 
        5.48212         2.83044        0.237933 
        5.49786          2.8098        0.236193 
        5.51353           2.795         0.23448 
        5.52921         2.78918        0.232781 
        5.54495         2.76851        0.231095 
        5.56066         2.75182        0.229426 
        5.57637         2.73665        0.227775 
        5.59207         2.72363        0.226141 
        5.60778         2.71049        0.224523 
        5.62346         2.68846        0.222923 
        5.63916          2.6755        0.221337 
        5.65487         2.66486        0.219765 
         5.6706         2.64636        0.218207 
        5.68633         2.63439        0.216663 
        5.70203         2.61876        0.215138 
        5.71773         2.60138        0.213627 
        5.73344         2.58613         0.21213 
        5.74916         2.57538        0.210646 
        5.76486         2.56517        0.209178 
        5.78054         2.55009        0.207727 
        5.79626         2.54085        0.206285 
          5.812         2.52132        0.204856 
         5.8277         2.51144        0.203444 
        5.84339         2.49596        0.202045 
        5.85911         2.48567        0.200657 
        5.87484         2.47211        0.199282 
        5.89053         2.45682        0.197923 
        5.90623         2.44461        0.196576 
        5.92195         2.43234        0.195239 
        5.93767         2.41827        0.193915 
        5.95336         2.40412        0.192605 
        5.96905         2.39308        0.191309 
        5.98476         2.38047        0.190022 
        6.00048         2.36694        0.188747 
        6.01617         2.35706        0.187485 
        6.03185         2.34135        0.186236 
        6.04756         2.32788        0.184995 
        6.06331         2.31631        0.183764 
        6.07903         2.30359        0.182545 
        6.09473         2.29751         0.18134 
        6.11044         2.27841        0.180144 
        6.12616         2.26819        0.178958 
        6.14186           2.261        0.177785 
        6.15755         2.25144        0.176622 
        6.17326         2.23882        0.175469 
        6.18898         2.22966        0.174326 
        6.20467         2.21432        0.173195 
        6.22036          2.2025        0.172073 
         6.2361         2.19397        0.170959 
         6.2518         2.18468        0.169857 
        6.26748         2.16812        0.168766 
        6.28319         2.15923        0.167682 
        6.29893         2.15027        0.166607 
        6.31463         2.14054        0.165543 
        6.33033         2.12352        0.164489 
        6.34604         2.11876        0.163443 
        6.36177         2.10858        0.162405 
        6.37747         2.09866        0.161378 
