# k  (h/Mpc)    Pcb(k)  (Mpc/h)^3    Pcb_linear(k) (Mpc/h)^3   ShotnoiseSubtracted = true
      0.0200456         1034.79         1048.07 
      0.0350414         771.013         761.909 
      0.0492313         555.419         553.589 
      0.0637834         455.711         460.193 
      0.0800726         360.768         365.244 
       0.096163         269.098         265.016 
       0.111083         215.852         211.384 
       0.126058          186.38         187.329 
       0.142273         157.546         158.709 
       0.158546         126.369         125.347 
        0.17375         107.706         105.605 
       0.188953          96.737         95.6226 
       0.204907         83.4353         84.6065 
       0.220756         72.4961         71.5822 
        0.23588         63.2011         62.2703 
         0.2514         57.3306          56.572 
       0.267535         52.3835         51.1879 
       0.283568         46.1143         45.1409 
       0.299022         41.5193         40.2182 
       0.314451         38.7122         36.7567 
       0.330372         34.9417         33.7201 
       0.346141         31.8078         30.6062 
       0.361624         28.9553         27.8168 
       0.377134         26.5235         25.5959 
       0.392932         25.3872         23.6833 
       0.408854          22.955         21.8315 
       0.424564         21.7654         20.1224 
       0.440253         19.8841         18.6558 
       0.455999         18.2193         17.3805 
       0.471626          17.096         16.2085 
        0.48727         16.4261         15.1122 
       0.502856         15.3812         14.1274 
       0.518488         14.1862         13.2486 
       0.534347         13.2734         12.4317 
       0.550082          12.719         11.6784 
       0.565732         12.1536         10.9893 
       0.581496         11.4195         10.3582 
       0.597222         10.7492         9.77935 
       0.612804         10.1383         9.24709 
       0.628434         9.79056         8.75099 
       0.644267         9.29327         8.28717 
       0.660051         8.79685          7.8597 
       0.675724         8.31065         7.46497 
       0.691403         8.01878         7.09702 
       0.707174         7.62886          6.7518 
       0.722871         7.43104         6.43092 
        0.73838         6.94478         6.13432 
       0.754018         6.62854         5.85419 
       0.769845         6.31173         5.58851 
        0.78569          6.1477         5.33909 
       0.801365         5.87304         5.10738 
       0.817031         5.67076         4.88963 
       0.832809         5.38469         4.68326 
       0.848511         5.22913         4.48978 
       0.864097         5.03684         4.30861 
       0.879701         4.90029         4.13732 
       0.895507         4.68516         3.97336 
       0.911279         4.51568         3.81866 
        0.92691         4.38424         3.67352 
       0.942635         4.19366         3.53516 
       0.958396         4.05849         3.40367 
       0.974128         3.94804         3.27913 
       0.989692         3.77085         3.16208 
        1.00528         3.68653         3.05059 
        1.02113         3.57606         2.94275 
        1.03692         3.48066         2.84055 
        1.05264         3.33452         2.74369 
        1.06832         3.24875         2.65152 
        1.08405         3.14783         2.56335 
        1.09979         3.07112         2.47915 
        1.11537          2.9754         2.39959 
        1.13105          2.8726         2.32306 
        1.14679         2.80026         2.24958 
        1.16256         2.70963         2.17915 
        1.17828         2.67088         2.11198 
        1.19395         2.56974         2.04787 
         1.2097         2.49737         1.98611 
        1.22537         2.41584         1.92721 
          1.241          2.3672         1.87088 
        1.25666         2.32886         1.81666 
        1.27241          2.2696         1.76435 
        1.28819         2.18045         1.71402 
        1.30392         2.12889         1.66581 
        1.31957         2.09493         1.61967 
        1.33529          2.0114         1.57511 
        1.35108         1.97518         1.53206 
        1.36674         1.92228         1.49093 
         1.3824         1.89781         1.45135 
        1.39811         1.84275         1.41309 
        1.41389         1.79665         1.37606 
        1.42964         1.75573         1.34042 
        1.44531         1.72503         1.30622 
        1.46101          1.6783         1.27315 
        1.47667         1.64794         1.24132 
        1.49229         1.59126         1.21067 
        1.50793         1.55362         1.18102 
        1.52367           1.524         1.15218 
        1.53953         1.48634         1.12411 
        1.55526         1.47872          1.0972 
        1.57092          1.4448         1.07128 
        1.58662         1.42623         1.04614 
        1.60235         1.37541         1.02177 
        1.61809         1.35315        0.998155 
        1.63369         1.31771        0.975501 
        1.64941         1.29745        0.953389 
        1.66519         1.27768        0.931885 
        1.68085          1.2437        0.911199 
        1.69652         1.22104        0.891135 
        1.71228         1.19425        0.871563 
        1.72806         1.17471        0.852565 
        1.74368         1.15334        0.834324 
        1.75933         1.13485        0.816582 
        1.77505          1.1147        0.799274 
        1.79081         1.08245        0.782438 
         1.8065         1.07277        0.766159 
        1.82218         1.04564        0.750359 
        1.83797         1.02556        0.734898 
        1.85367         1.01124        0.719958 
        1.86928        0.992988        0.705523 
        1.88497        0.971066        0.691407 
        1.90073        0.963406        0.677625 
        1.91647         0.93658        0.664232 
        1.93218        0.924203         0.65123 
        1.94787        0.908556        0.638595 
        1.96363        0.895684        0.626246 
        1.97935         0.87734         0.61425 
        1.99499        0.864094        0.602636 
        2.01064        0.850095        0.591306 
         2.0264        0.830733        0.580196 
        2.04216        0.822334        0.569378 
        2.05781        0.806877        0.558904 
        2.07353        0.795846        0.548657 
        2.08928        0.781952        0.538645 
        2.10499        0.769012        0.528909 
        2.12065        0.755649        0.519444 
        2.13633        0.746074        0.510202 
        2.15211        0.729393        0.501126 
        2.16785         0.72278        0.492297 
        2.18349        0.710097        0.483735 
        2.19916        0.701189         0.47536 
        2.21489        0.689277        0.467155 
        2.23063        0.675912        0.459139 
         2.2463          0.6675        0.451347 
        2.26194        0.659406        0.443755 
        2.27765        0.648337        0.436299 
        2.29341        0.639114        0.428995 
        2.30914        0.626358        0.421874 
        2.32486        0.619938        0.414919 
        2.34061        0.609356        0.408108 
        2.35635         0.60104        0.401457 
        2.37203        0.594138        0.394978 
        2.38768        0.585595        0.388654 
        2.40339        0.578233        0.382447 
        2.41914        0.570505        0.376361 
        2.43483        0.561618        0.370428 
         2.4505        0.553698        0.364634 
        2.46622          0.5466        0.358944 
        2.48195        0.537743        0.353375 
        2.49759        0.532995        0.347953 
        2.51328        0.522797        0.342632 
        2.52906        0.516739        0.337388 
        2.54479        0.509062        0.332274 
        2.56049         0.50329        0.327275 
        2.57618        0.497274        0.322384 
        2.59189        0.489566        0.317586 
        2.60758        0.485376        0.312892 
        2.62325        0.477715          0.3083 
        2.63898        0.473571        0.303783 
        2.65468        0.464274        0.299367 
        2.67044        0.459978        0.295019 
        2.68618        0.455348        0.290768 
        2.70184         0.44804        0.286618 
        2.71755        0.442269        0.282538 
        2.73329        0.439211        0.278532 
        2.74897        0.431533        0.274616 
        2.76462         0.42647        0.270784 
        2.78034        0.421065         0.26701 
        2.79607        0.417505        0.263303 
        2.81179        0.410859        0.259672 
        2.82749        0.406859        0.256112 
        2.84321        0.401341        0.252616 
        2.85893        0.396479        0.249186 
        2.87462        0.391267        0.245825 
        2.89033        0.389551        0.242524 
        2.90605        0.384317         0.23928 
        2.92176        0.380755        0.236097 
        2.93747          0.3751        0.232974 
        2.95318        0.371329        0.229906 
        2.96891         0.36808        0.226893 
        2.98456        0.362517        0.223946 
        3.00023        0.359041        0.221048 
        3.01596        0.355021        0.218192 
        3.03164        0.351165        0.215395 
        3.04738        0.347708        0.212638 
         3.0631        0.343513        0.209931 
        3.07883        0.340111        0.207271 
        3.09456        0.337294        0.204657 
        3.11026        0.332992        0.202093 
        3.12596        0.328712        0.199572 
        3.14163        0.326984        0.197101 
        3.15734        0.323346        0.194665 
        3.17308        0.320104        0.192265 
        3.18879        0.316845        0.189912 
        3.20447        0.312829        0.187601 
         3.2202        0.310288        0.185322 
         3.2359        0.306741        0.183085 
        3.25157        0.302001         0.18089 
        3.26729        0.301739        0.178724 
        3.28304        0.298082         0.17659 
        3.29877        0.295395        0.174493 
        3.31446        0.293487        0.172435 
        3.33014        0.289422        0.170412 
        3.34585        0.286796        0.168418 
        3.36158        0.284598        0.166453 
        3.37727        0.282013        0.164526 
        3.39294        0.280015        0.162631 
        3.40867        0.275867        0.160759 
        3.42439        0.274442        0.158917 
        3.44008        0.271785        0.157108 
        3.45578         0.26913        0.155326 
        3.47153        0.267408        0.153567 
        3.48724         0.26489        0.151839 
        3.50292        0.262573        0.150141 
        3.51859        0.260352         0.14847 
        3.53431         0.25789         0.14682 
        3.55007         0.25598         0.14519 
        3.56577         0.25369        0.143591 
        3.58146        0.251464        0.142018 
        3.59719        0.249651        0.140464 
        3.61292        0.247713        0.138934 
        3.62859        0.245643        0.137433 
        3.64429        0.243296         0.13595 
        3.66003         0.24111        0.134486 
        3.67578        0.239674        0.133043 
        3.69146        0.236986        0.131627 
        3.70712         0.23602        0.130234 
        3.72284        0.234796        0.128856 
        3.73853        0.232892          0.1275 
        3.75422        0.230261        0.126164 
        3.76993        0.228634        0.124845 
        3.78564        0.226456        0.123546 
        3.80137        0.224815        0.122263 
        3.81707        0.223554        0.121001 
        3.83279        0.221654        0.119756 
        3.84853        0.219808        0.118526 
        3.86424        0.218429        0.117316 
        3.87992        0.216485        0.116124 
        3.89561        0.214984         0.11495 
        3.91134        0.213099        0.113789 
        3.92704        0.211353        0.112645 
        3.94273        0.210458        0.111518 
        3.95845        0.208221        0.110405 
        3.97418        0.206961        0.109306 
        3.98988         0.20483        0.108224 
        4.00554        0.202909         0.10716 
        4.02125        0.200927        0.106106 
        4.03698         0.19869        0.105066 
        4.05268         0.19662        0.104041 
        4.06839        0.194755         0.10303 
         4.0841        0.192656        0.102032 
        4.09983        0.190871        0.101046 
        4.11555        0.188598        0.100074 
        4.13124        0.186732       0.0991165 
        4.14693        0.184736       0.0981711 
        4.16266        0.182699       0.0972359 
        4.17839        0.181071       0.0963134 
        4.19408        0.178961        0.095405 
        4.20977        0.178039       0.0945079 
        4.22551        0.176219       0.0936202 
        4.24123        0.174096       0.0927448 
        4.25691        0.173214        0.091883 
        4.27259        0.171422       0.0910318 
        4.28831        0.170501       0.0901897 
        4.30404        0.168426       0.0893574 
        4.31974        0.167339       0.0885375 
        4.33543        0.166094       0.0877283 
        4.35116        0.165166       0.0869272 
        4.36688        0.163909       0.0861365 
        4.38255        0.162086       0.0853586 
        4.39825        0.161673       0.0845885 
        4.41398        0.160353       0.0838264 
         4.4297        0.159543       0.0830746 
        4.44541        0.158096        0.082332 
        4.46111        0.157446       0.0815991 
        4.47683        0.156691       0.0808746 
        4.49251        0.155475       0.0801604 
        4.50819        0.155171        0.079455 
         4.5239        0.154303        0.078757 
        4.53962         0.15327       0.0780665 
        4.55535        0.152836        0.077384 
        4.57106        0.152253       0.0767107 
        4.58678        0.151165       0.0760452 
         4.6025        0.151231       0.0753874 
        4.61821        0.150851       0.0747375 
        4.63391        0.150145       0.0740961 
         4.6496        0.149572       0.0734625 
        4.66532        0.149185       0.0728353 
        4.68103        0.148764       0.0722157 
        4.69673        0.148669       0.0716039 
        4.71241         0.14834       0.0709998 
        4.72811        0.148446       0.0704017 
        4.74384        0.147891       0.0698097 
        4.75955        0.147717       0.0692254 
        4.77525        0.147775       0.0686481 
        4.79096        0.147475       0.0680766 
        4.80669        0.147017       0.0675114 
         4.8224        0.147545       0.0669533 
        4.83809        0.147243       0.0664021 
        4.85379        0.147465       0.0658567 
         4.8695        0.147622        0.065317 
        4.88521        0.147599       0.0647835 
        4.90093        0.148089        0.064256 
        4.91663        0.147926       0.0637348 
        4.93234         0.14816       0.0632188 
        4.94807        0.148495       0.0627082 
        4.96377        0.149247       0.0622041 
        4.97943        0.149729       0.0617067 
        4.99514        0.148988       0.0612134 
        5.01086        0.150273       0.0607252 
        5.02654         0.15058       0.0602435 
        5.04227        0.151033       0.0597656 
          5.058        0.152197       0.0592926 
        5.07371        0.152135       0.0588257 
        5.08942        0.153269       0.0583638 
        5.10513        0.153748       0.0579068 
        5.12084        0.154294       0.0574544 
        5.13656        0.155001        0.057007 
        5.15225        0.155958        0.056565 
        5.16796        0.157218       0.0561271 
        5.18369        0.157743       0.0556934 
         5.1994        0.158866        0.055265 
        5.21509         0.15923       0.0548416 
        5.23079        0.160286        0.054422 
        5.24649        0.161371       0.0540072 
        5.26217        0.162854        0.053597 
        5.27788        0.163283       0.0531905 
        5.29359        0.164901       0.0527881 
        5.30933        0.166115       0.0523893 
        5.32504         0.16725       0.0519953 
        5.34073        0.168734       0.0516057 
        5.35646        0.169838       0.0512194 
        5.37218        0.171742        0.050837 
        5.38789        0.172027        0.050459 
        5.40357        0.173627       0.0500854 
        5.41929        0.174977       0.0497146 
        5.43502        0.177337       0.0493476 
         5.4507        0.178655       0.0489852 
        5.46639        0.180189       0.0486264 
        5.48212        0.181618       0.0482703 
        5.49786        0.183404       0.0479173 
        5.51353        0.186338       0.0475697 
        5.52921        0.186359       0.0472251 
        5.54495        0.188763       0.0468829 
        5.56066        0.190988       0.0465445 
        5.57637        0.192695       0.0462095 
        5.59207        0.194419       0.0458781 
        5.60778        0.196728       0.0455497 
        5.62346        0.199054       0.0452251 
        5.63916        0.200016       0.0449033 
        5.65487        0.202808       0.0445845 
         5.6706        0.203689       0.0442684 
        5.68633         0.20723       0.0439552 
        5.70203        0.210106       0.0436457 
        5.71773        0.211818       0.0433392 
        5.73344        0.214026       0.0430356 
        5.74916        0.215996       0.0427345 
        5.76486        0.219274       0.0424367 
        5.78054        0.220418       0.0421423 
        5.79626        0.223148       0.0418498 
          5.812        0.226235       0.0415597 
         5.8277        0.228286       0.0412733 
        5.84339        0.230872       0.0409896 
        5.85911        0.234177        0.040708 
        5.87484        0.236131        0.040429 
        5.89053        0.238977       0.0401533 
        5.90623        0.241254         0.03988 
        5.92195         0.24397       0.0396087 
        5.93767        0.246487       0.0393402 
        5.95336        0.248963       0.0390745 
        5.96905        0.252418       0.0388114 
        5.98476        0.254458       0.0385504 
        6.00048        0.257347       0.0382917 
        6.01617        0.261804       0.0380356 
        6.03185        0.264185       0.0377823 
        6.04756        0.265487       0.0375306 
        6.06331        0.268618       0.0372807 
        6.07903        0.274002       0.0370336 
        6.09473        0.275448        0.036789 
        6.11044        0.278497       0.0365463 
        6.12616        0.281373       0.0363059 
        6.14186        0.284733       0.0360679 
        6.15755        0.288716        0.035832 
        6.17326        0.290539        0.035598 
        6.18898        0.293265       0.0353661 
        6.20467        0.294628       0.0351366 
        6.22036         0.30051       0.0349091 
         6.2361        0.300905       0.0346831 
         6.2518        0.305223       0.0344594 
        6.26748        0.307945       0.0342382 
        6.28319        0.312408       0.0340183 
        6.29893        0.314657       0.0338002 
        6.31463         0.31749       0.0335843 
        6.33033        0.321667       0.0333704 
        6.34604        0.325272       0.0331582 
        6.36177        0.326319       0.0329476 
        6.37747        0.329908       0.0327393 
