# k  (h/Mpc)    Pcb(k)  (Mpc/h)^3    Pcb_linear(k) (Mpc/h)^3   ShotnoiseSubtracted = true
      0.0200456         11729.8         11905.6 
      0.0350414         8884.02         8654.95 
      0.0492313         6228.26         6288.52 
      0.0637834         5039.67         5227.59 
      0.0800726         3969.97         4149.01 
       0.096163         3113.83         3010.47 
       0.111083         2530.05         2401.23 
       0.126058         2109.05         2127.98 
       0.142273         1818.89         1802.86 
       0.158546         1493.24         1423.88 
        0.17375         1306.37         1199.62 
       0.188953         1210.16         1086.23 
       0.204907         1033.56         961.092 
       0.220756         926.333         813.142 
        0.23588         822.992         707.363 
         0.2514         736.979         642.632 
       0.267535          714.24         581.472 
       0.283568         624.137          512.78 
       0.299022          594.64          456.86 
       0.314451         600.151         417.539 
       0.330372         515.804         383.045 
       0.346141         477.854         347.672 
       0.361624         456.219         315.986 
       0.377134         426.431         290.757 
       0.392932         413.637         269.032 
       0.408854         393.182         247.996 
       0.424564         379.727         228.581 
       0.440253         343.428         211.921 
       0.455999         328.515         197.435 
       0.471626          329.13         184.122 
        0.48727         312.395         171.668 
       0.502856          286.58         160.481 
       0.518488         287.604         150.498 
       0.534347         267.171         141.218 
       0.550082         259.627         132.662 
       0.565732          257.97         124.834 
       0.581496         243.931         117.664 
       0.597222         237.536         111.089 
       0.612804         230.938         105.043 
       0.628434         222.639         99.4073 
       0.644267         212.694         94.1386 
       0.660051         208.811         89.2826 
       0.675724         206.457         84.7987 
       0.691403         200.881          80.619 
       0.707174         193.927         76.6974 
       0.722871         190.896         73.0523 
        0.73838         189.078         69.6831 
       0.754018         178.663          66.501 
       0.769845         178.526         63.4829 
        0.78569          173.86         60.6497 
       0.801365         168.911         58.0175 
       0.817031         164.839          55.544 
       0.832809         162.094         53.1997 
       0.848511         158.159         51.0019 
       0.864097         154.911         48.9439 
       0.879701         153.497          46.998 
       0.895507         149.508         45.1355 
       0.911279         145.389         43.3783 
        0.92691         142.992         41.7296 
       0.942635         140.725         40.1579 
       0.958396         138.472         38.6641 
       0.974128         135.585         37.2494 
       0.989692         132.063         35.9198 
        1.00528         130.837         34.6533 
        1.02113         127.525         33.4283 
        1.03692         126.455         32.2674 
        1.05264         124.817         31.1671 
        1.06832         121.899           30.12 
        1.08405         120.134         29.1185 
        1.09979         119.328         28.1621 
        1.11537         116.302         27.2583 
        1.13105          115.15         26.3889 
        1.14679         113.094         25.5542 
        1.16256         111.003         24.7541 
        1.17828         109.888         23.9911 
        1.19395         107.137         23.2629 
         1.2097          106.55         22.5613 
        1.22537         104.307         21.8922 
          1.241         103.597         21.2523 
        1.25666          100.58         20.6365 
        1.27241         99.1564         20.0423 
        1.28819         98.6931         19.4705 
        1.30392         96.8331         18.9228 
        1.31957         95.4673         18.3987 
        1.33529         94.2861         17.8926 
        1.35108         93.6542         17.4035 
        1.36674         91.7976         16.9363 
         1.3824         91.4258         16.4867 
        1.39811         89.0297          16.052 
        1.41389         88.0937         15.6314 
        1.42964         86.5303         15.2266 
        1.44531         85.8881         14.8381 
        1.46101         84.8515         14.4624 
        1.47667         83.9492         14.1008 
        1.49229         83.0483         13.7527 
        1.50793         81.6027         13.4159 
        1.52367           80.97         13.0882 
        1.53953         79.8334         12.7694 
        1.55526         78.4324         12.4637 
        1.57092          78.219         12.1693 
        1.58662         77.1021         11.8837 
        1.60235         75.8985         11.6068 
        1.61809         74.9478         11.3386 
        1.63369         73.8728         11.0813 
        1.64941         73.8506         10.8301 
        1.66519         72.0565         10.5858 
        1.68085         71.3785         10.3508 
        1.69652         70.0937         10.1229 
        1.71228         69.4231         9.90056 
        1.72806         69.0595         9.68475 
        1.74368         67.8979         9.47755 
        1.75933         67.2799           9.276 
        1.77505         66.6522         9.07939 
        1.79081          65.505         8.88814 
         1.8065          65.308         8.70323 
        1.82218         63.6233         8.52375 
        1.83797         63.3276         8.34811 
        1.85367         62.4889         8.17839 
        1.86928         61.9144         8.01443 
        1.88497         61.1423         7.85407 
        1.90073         60.3002         7.69752 
        1.91647         59.7499         7.54537 
        1.93218         59.1702         7.39768 
        1.94787         58.3284         7.25415 
        1.96363         57.5724         7.11388 
        1.97935         56.9585          6.9776 
        1.99499         56.4096         6.84567 
        2.01064         55.7902         6.71697 
         2.0264         55.2471         6.59077 
        2.04216         54.4668         6.46788 
        2.05781          53.803          6.3489 
        2.07353         53.0886          6.2325 
        2.08928         52.6378         6.11876 
        2.10499         52.1235         6.00817 
        2.12065          51.579         5.90065 
        2.13633         51.1449         5.79567 
        2.15211          50.386         5.69257 
        2.16785         49.6288         5.59227 
        2.18349          49.115         5.49502 
        2.19916         48.5871         5.39987 
        2.21489           48.34         5.30667 
        2.23063         47.5297         5.21561 
         2.2463         47.1287         5.12709 
        2.26194          46.805         5.04086 
        2.27765         46.0748         4.95616 
        2.29341         45.4087          4.8732 
        2.30914          44.986          4.7923 
        2.32486          44.412         4.71329 
        2.34061         44.1097         4.63593 
        2.35635         43.4423         4.56038 
        2.37203         43.0543         4.48677 
        2.38768         42.7709         4.41494 
        2.40339         42.2991         4.34442 
        2.41914         41.8845         4.27529 
        2.43483         41.0832          4.2079 
         2.4505          40.955         4.14208 
        2.46622         40.5021         4.07744 
        2.48195         40.0209         4.01418 
        2.49759         39.5555         3.95259 
        2.51328         39.2001         3.89215 
        2.52906         38.7883         3.83258 
        2.54479         38.4228         3.77448 
        2.56049         37.8744          3.7177 
        2.57618          37.606         3.66214 
        2.59189         37.1403         3.60763 
        2.60758         36.6612         3.55432 
        2.62325          36.606         3.50215 
        2.63898          36.045         3.45084 
        2.65468         35.6653         3.40067 
        2.67044         35.4076         3.35129 
        2.68618         35.0691         3.30299 
        2.70184         34.5473         3.25585 
        2.71755         34.3102         3.20951 
        2.73329         33.7742         3.16399 
        2.74897         33.5162         3.11951 
        2.76462         33.1039         3.07599 
        2.78034         32.8941         3.03311 
        2.79607          32.462         2.99101 
        2.81179         32.2078         2.94975 
        2.82749         31.8759         2.90932 
        2.84321         31.4978          2.8696 
        2.85893         31.2008         2.83064 
        2.87462         30.9442         2.79246 
        2.89033         30.6348         2.75496 
        2.90605         30.3876         2.71811 
        2.92176          30.172         2.68196 
        2.93747          29.795         2.64648 
        2.95318         29.4862         2.61163 
        2.96891          29.251          2.5774 
        2.98456         28.9164         2.54393 
        3.00023         28.5599         2.51101 
        3.01596         28.3398         2.47857 
        3.03164          28.011         2.44679 
        3.04738         27.8258         2.41548 
         3.0631         27.5833         2.38472 
        3.07883         27.1877          2.3545 
        3.09456         26.9011         2.32481 
        3.11026          26.643         2.29568 
        3.12596         26.3608         2.26705 
        3.14163         26.1268         2.23897 
        3.15734         25.9242         2.21131 
        3.17308         25.5923         2.18404 
        3.18879         25.4149         2.15731 
        3.20447         25.1615         2.13107 
         3.2202         24.8503         2.10518 
         3.2359         24.6467         2.07976 
        3.25157         24.4722         2.05483 
        3.26729         24.2642         2.03023 
        3.28304         23.9125         2.00598 
        3.29877         23.7039         1.98216 
        3.31446         23.5198         1.95878 
        3.33014         23.2917          1.9358 
        3.34585         23.1131         1.91315 
        3.36158         22.8568         1.89083 
        3.37727          22.626         1.86894 
        3.39294         22.4555         1.84741 
        3.40867         22.2529         1.82615 
        3.42439         22.0236         1.80523 
        3.44008          21.775         1.78468 
        3.45578         21.6613         1.76443 
        3.47153         21.3878         1.74445 
        3.48724         21.2663         1.72482 
        3.50292         21.0249         1.70554 
        3.51859         20.8606         1.68656 
        3.53431         20.6806          1.6678 
        3.55007           20.46         1.64929 
        3.56577         20.3068         1.63113 
        3.58146         20.0763         1.61326 
        3.59719         19.8807         1.59561 
        3.61292         19.7289         1.57823 
        3.62859         19.5007         1.56117 
        3.64429         19.2923         1.54433 
        3.66003         19.2544          1.5277 
        3.67578         19.0537         1.51131 
        3.69146         18.8053         1.49522 
        3.70712         18.6681          1.4794 
        3.72284         18.4994         1.46374 
        3.73853         18.3491         1.44834 
        3.75422         18.1872         1.43316 
        3.76993         18.0186         1.41818 
        3.78564         17.8773         1.40342 
        3.80137         17.7079         1.38885 
        3.81707         17.5467         1.37451 
        3.83279         17.3522         1.36037 
        3.84853         17.2119          1.3464 
        3.86424         17.0499         1.33265 
        3.87992         16.8993         1.31912 
        3.89561         16.7792         1.30578 
        3.91134         16.6171         1.29259 
        3.92704         16.4956          1.2796 
        3.94273         16.3659          1.2668 
        3.95845         16.1799         1.25415 
        3.97418         16.0261         1.24167 
        3.98988         15.9012         1.22938 
        4.00554         15.8247         1.21728 
        4.02125         15.5934         1.20532 
        4.03698         15.4447          1.1935 
        4.05268         15.3843         1.18186 
        4.06839          15.229         1.17037 
         4.0841         15.1094         1.15904 
        4.09983         14.9138         1.14784 
        4.11555         14.8591         1.13679 
        4.13124           14.74         1.12592 
        4.14693         14.6102         1.11518 
        4.16266         14.4951         1.10456 
        4.17839         14.3355         1.09408 
        4.19408         14.2022         1.08376 
        4.20977         14.1205         1.07357 
        4.22551         13.9853         1.06348 
        4.24123         13.8514         1.05354 
        4.25691         13.7297         1.04375 
        4.27259         13.6198         1.03408 
        4.28831         13.5594         1.02451 
        4.30404         13.4411         1.01506 
        4.31974         13.3107         1.00575 
        4.33543         13.1727        0.996554 
        4.35116          13.079        0.987454 
        4.36688         12.9527        0.978472 
        4.38255         12.8745        0.969635 
        4.39825         12.7588        0.960887 
        4.41398         12.6576         0.95223 
         4.4297          12.535         0.94369 
        4.44541         12.4435        0.935255 
        4.46111         12.3563        0.926929 
        4.47683         12.2339        0.918699 
        4.49251         12.1352        0.910586 
        4.50819         12.0354        0.902573 
         4.5239         11.9568        0.894644 
        4.53962         11.8634        0.886801 
        4.55535         11.7513        0.879048 
        4.57106         11.6751        0.871399 
        4.58678         11.5746        0.863839 
         4.6025         11.4786        0.856367 
        4.61821         11.3829        0.848984 
        4.63391         11.3039        0.841698 
         4.6496         11.2108        0.834501 
        4.66532         11.1335        0.827376 
        4.68103         11.0227        0.820338 
        4.69673         10.9234        0.813388 
        4.71241         10.8637        0.806526 
        4.72811         10.7853        0.799731 
        4.74384         10.6611        0.793006 
        4.75955         10.6106        0.786369 
        4.77525         10.5274        0.779811 
        4.79096         10.4615         0.77332 
        4.80669         10.3557          0.7669 
         4.8224         10.2798        0.760559 
        4.83809         10.1904        0.754297 
        4.85379           10.12        0.748102 
         4.8695         10.0288        0.741971 
        4.88521         9.95234        0.735912 
        4.90093         9.88605        0.729919 
        4.91663           9.782        0.723998 
        4.93234         9.73205        0.718137 
        4.94807         9.64352        0.712336 
        4.96377         9.58794        0.706611 
        4.97943         9.49921         0.70096 
        4.99514         9.40952        0.695357 
        5.01086          9.3872         0.68981 
        5.02654         9.30426        0.684339 
        5.04227         9.20453         0.67891 
          5.058         9.14246        0.673538 
        5.07371         9.06729        0.668234 
        5.08942         9.01732        0.662986 
        5.10513         8.93099        0.657795 
        5.12084         8.89787        0.652656 
        5.13656         8.80465        0.647574 
        5.15225         8.72576        0.642553 
        5.16796         8.67601        0.637578 
        5.18369         8.60194        0.632652 
         5.1994         8.55262        0.627786 
        5.21509         8.49362        0.622975 
        5.23079         8.41991         0.61821 
        5.24649         8.34152        0.613498 
        5.26217         8.29225        0.608838 
        5.27788         8.25127         0.60422 
        5.29359         8.17316        0.599649 
        5.30933         8.11827        0.595119 
        5.32504         8.07275        0.590643 
        5.34073         8.01176        0.586218 
        5.35646         7.93616        0.581829 
        5.37218         7.88368        0.577485 
        5.38789         7.80338        0.573192 
        5.40357         7.76909        0.568947 
        5.41929          7.7206        0.564736 
        5.43502         7.66148        0.560567 
         5.4507         7.60894         0.55645 
        5.46639         7.55165        0.552374 
        5.48212         7.49628        0.548329 
        5.49786         7.45634        0.544319 
        5.51353         7.39717         0.54037 
        5.52921         7.34632        0.536456 
        5.54495         7.28394        0.532569 
        5.56066         7.22533        0.528725 
        5.57637          7.1936        0.524919 
        5.59207         7.14417        0.521154 
        5.60778         7.07949        0.517424 
        5.62346           7.031        0.513737 
        5.63916         6.99568        0.510081 
        5.65487         6.95458        0.506459 
         5.6706         6.89328        0.502869 
        5.68633          6.8575        0.499311 
        5.70203         6.79781        0.495795 
        5.71773         6.76447        0.492314 
        5.73344         6.71276        0.488865 
        5.74916         6.65539        0.485445 
        5.76486         6.62382        0.482062 
        5.78054         6.56267        0.478717 
        5.79626         6.51821        0.475394 
          5.812         6.48636          0.4721 
         5.8277         6.43056        0.468846 
        5.84339         6.39524        0.465623 
        5.85911          6.3406        0.462424 
        5.87484         6.31249        0.459256 
        5.89053         6.26253        0.456123 
        5.90623         6.23407        0.453018 
        5.92195          6.1812        0.449937 
        5.93767         6.14074        0.446886 
        5.95336         6.09392        0.443869 
        5.96905         6.05826         0.44088 
        5.98476         6.02142        0.437915 
        6.00048          5.9807        0.434976 
        6.01617         5.94092        0.432068 
        6.03185         5.90173         0.42919 
        6.04756         5.86247        0.426331 
        6.06331         5.82796        0.423492 
        6.07903         5.77724        0.420685 
        6.09473         5.75003        0.417906 
        6.11044         5.70832         0.41515 
        6.12616         5.66188        0.412419 
        6.14186         5.63553        0.409715 
        6.15755         5.61047        0.407035 
        6.17326         5.56051        0.404378 
        6.18898         5.52906        0.401743 
        6.20467         5.48883        0.399136 
        6.22036         5.45904        0.396552 
         6.2361         5.42312        0.393984 
         6.2518         5.38125        0.391443 
        6.26748         5.35736         0.38893 
        6.28319         5.32045        0.386433 
        6.29893         5.28403        0.383955 
        6.31463         5.26815        0.381502 
        6.33033         5.21506        0.379073 
        6.34604         5.18519        0.376662 
        6.36177         5.15118         0.37427 
        6.37747         5.12303        0.371904 
