# k  (h/Mpc)    Pcb(k)  (Mpc/h)^3    Pcb_linear(k) (Mpc/h)^3   ShotnoiseSubtracted = true
      0.0200456         4086.54         4151.22 
      0.0350414         2972.34         3017.79 
      0.0492313         2192.49         2192.67 
      0.0637834         1849.94         1822.75 
      0.0800726         1466.36         1446.67 
       0.096163         1039.06         1049.68 
       0.111083          824.12         837.256 
       0.126058         750.265         741.979 
       0.142273         643.867         628.619 
       0.158546         519.169         496.478 
        0.17375         423.618         418.282 
       0.188953         397.434         378.745 
       0.204907         368.811         335.112 
       0.220756         308.031         283.525 
        0.23588         268.836         246.642 
         0.2514         238.658         224.072 
       0.267535         223.101         202.747 
       0.283568         200.787         178.795 
       0.299022         183.465         159.297 
       0.314451         165.725         145.587 
       0.330372         154.032          133.56 
       0.346141         139.089         121.226 
       0.361624         130.539         110.178 
       0.377134          122.86         101.381 
       0.392932         110.201         93.8057 
       0.408854         106.004         86.4707 
       0.424564         100.978         79.7013 
       0.440253         93.6109         73.8923 
       0.455999         88.1366         68.8412 
       0.471626         81.8646         64.1993 
        0.48727         78.9037          59.857 
       0.502856         74.6609         55.9562 
       0.518488         71.6973         52.4756 
       0.534347         68.8652         49.2398 
       0.550082         63.2469         46.2563 
       0.565732         59.8175         43.5268 
       0.581496         58.0453          41.027 
       0.597222         56.1504         38.7343 
       0.612804         52.7765         36.6262 
       0.628434         51.2586         34.6612 
       0.644267          49.824         32.8241 
       0.660051          47.733         31.1309 
       0.675724         45.4468         29.5675 
       0.691403          44.061         28.1101 
       0.707174         42.7407         26.7427 
       0.722871         41.1385         25.4718 
        0.73838         39.9032          24.297 
       0.754018         38.1018         23.1874 
       0.769845         37.1517         22.1351 
        0.78569         36.0443         21.1472 
       0.801365         34.7432         20.2295 
       0.817031         33.9513          19.367 
       0.832809          33.297         18.5496 
       0.848511         31.3764         17.7832 
       0.864097         30.8361         17.0657 
       0.879701         30.1938         16.3872 
       0.895507         29.5892         15.7378 
       0.911279         28.6295         15.1251 
        0.92691         27.9499         14.5502 
       0.942635         26.9036         14.0022 
       0.958396         26.5324         13.4813 
       0.974128         25.7227         12.9881 
       0.989692         25.4401         12.5244 
        1.00528         24.8413         12.0829 
        1.02113         23.8943         11.6557 
        1.03692         23.4236         11.2509 
        1.05264         23.0226         10.8673 
        1.06832         22.4608         10.5022 
        1.08405          21.938          10.153 
        1.09979         21.4986          9.8195 
        1.11537         21.0436         9.50436 
        1.13105          20.761         9.20123 
        1.14679         20.4671          8.9102 
        1.16256         19.7286         8.63123 
        1.17828           19.66         8.36517 
        1.19395         19.0421         8.11127 
         1.2097         18.8905         7.86665 
        1.22537         18.4272         7.63333 
          1.241         18.1209         7.41022 
        1.25666         17.6657          7.1955 
        1.27241           17.35         6.98831 
        1.28819         17.0041         6.78895 
        1.30392         16.8706         6.59798 
        1.31957         16.6544         6.41523 
        1.33529         16.3762         6.23875 
        1.35108         15.9891         6.06823 
        1.36674         15.8045         5.90532 
         1.3824         15.4498         5.74857 
        1.39811         15.2277         5.59699 
        1.41389         15.0687         5.45032 
        1.42964         14.8469         5.30917 
        1.44531         14.7059         5.17372 
        1.46101         14.2844         5.04272 
        1.47667         14.1361         4.91666 
        1.49229         13.9632         4.79526 
        1.50793         13.7643         4.67783 
        1.52367         13.5577         4.56358 
        1.53953         13.3829          4.4524 
        1.55526         13.1732         4.34581 
        1.57092         12.9736         4.24317 
        1.58662         12.8546          4.1436 
        1.60235         12.6441         4.04704 
        1.61809         12.4983         3.95352 
        1.63369         12.3257         3.86379 
        1.64941         12.1128         3.77621 
        1.66519         12.0409         3.69104 
        1.68085          11.848          3.6091 
        1.69652         11.6903         3.52963 
        1.71228         11.5319         3.45211 
        1.72806         11.4685         3.37686 
        1.74368         11.2654         3.30462 
        1.75933         11.1507         3.23434 
        1.77505         11.0135         3.16579 
        1.79081         10.8329          3.0991 
         1.8065         10.7693         3.03463 
        1.82218         10.5715         2.97205 
        1.83797         10.4947          2.9108 
        1.85367         10.3441         2.85163 
        1.86928          10.332         2.79446 
        1.88497         10.0958         2.73854 
        1.90073         10.0723         2.68396 
        1.91647         9.96504         2.63091 
        1.93218         9.86895         2.57941 
        1.94787         9.71614         2.52937 
        1.96363         9.65212         2.48045 
        1.97935         9.49336         2.43294 
        1.99499         9.37303         2.38694 
        2.01064         9.29423         2.34206 
         2.0264         9.21731         2.29806 
        2.04216         9.10754         2.25521 
        2.05781         8.97916         2.21372 
        2.07353         8.93203         2.17314 
        2.08928         8.83821         2.13348 
        2.10499         8.78971         2.09492 
        2.12065         8.64613         2.05743 
        2.13633         8.62544         2.02083 
        2.15211         8.48461         1.98488 
        2.16785         8.43113          1.9499 
        2.18349         8.36621         1.91599 
        2.19916         8.26966         1.88282 
        2.21489           8.174         1.85032 
        2.23063         8.10461         1.81857 
         2.2463         8.00595         1.78771 
        2.26194         7.92689         1.75764 
        2.27765         7.89774         1.72811 
        2.29341         7.80964         1.69918 
        2.30914         7.70084         1.67097 
        2.32486         7.63028         1.64342 
        2.34061         7.58179         1.61645 
        2.35635         7.54453          1.5901 
        2.37203         7.46111         1.56444 
        2.38768          7.3515         1.53939 
        2.40339         7.32372         1.51481 
        2.41914         7.21467          1.4907 
        2.43483         7.20332          1.4672 
         2.4505         7.13254         1.44425 
        2.46622         7.06522         1.42171 
        2.48195         6.98929         1.39966 
        2.49759          6.9614         1.37818 
        2.51328         6.87825         1.35711 
        2.52906         6.84976         1.33634 
        2.54479         6.77018         1.31608 
        2.56049         6.72836         1.29628 
        2.57618         6.67531         1.27691 
        2.59189          6.5825          1.2579 
        2.60758         6.57232         1.23931 
        2.62325         6.49482         1.22112 
        2.63898         6.41517         1.20323 
        2.65468         6.36142         1.18574 
        2.67044         6.33032         1.16852 
        2.68618         6.28949         1.15168 
        2.70184         6.22805         1.13524 
        2.71755         6.16737         1.11909 
        2.73329         6.13517         1.10322 
        2.74897         6.10056         1.08771 
        2.76462          6.0575         1.07253 
        2.78034         5.97914         1.05758 
        2.79607         5.94096          1.0429 
        2.81179         5.91291         1.02851 
        2.82749         5.84332         1.01442 
        2.84321         5.84973         1.00057 
        2.85893         5.78462        0.986983 
        2.87462         5.71264        0.973672 
        2.89033         5.67618        0.960595 
        2.90605         5.62963        0.947747 
        2.92176         5.57614         0.93514 
        2.93747         5.54209        0.922769 
        2.95318         5.52006        0.910619 
        2.96891         5.46305        0.898683 
        2.98456         5.42727        0.887013 
        3.00023         5.36803        0.875534 
        3.01596         5.33985        0.864222 
        3.03164         5.32093        0.853143 
        3.04738         5.28035        0.842225 
         3.0631         5.22723        0.831502 
        3.07883         5.18823        0.820965 
        3.09456         5.15476        0.810612 
        3.11026         5.13475        0.800454 
        3.12596         5.08958        0.790471 
        3.14163         5.03705        0.780682 
        3.15734          5.0047        0.771035 
        3.17308         4.97985        0.761528 
        3.18879         4.93239        0.752208 
        3.20447         4.92019        0.743056 
         3.2202         4.85649        0.734029 
         3.2359         4.84667        0.725168 
        3.25157         4.79334        0.716474 
        3.26729         4.78335        0.707897 
        3.28304         4.73711        0.699443 
        3.29877         4.69737        0.691138 
        3.31446         4.66282        0.682986 
        3.33014         4.64533        0.674973 
        3.34585         4.61182        0.667076 
        3.36158         4.58659        0.659293 
        3.37727         4.55085        0.651659 
        3.39294         4.53569        0.644153 
        3.40867         4.48219        0.636738 
        3.42439          4.4634        0.629444 
        3.44008         4.42672        0.622278 
        3.45578         4.39378        0.615219 
        3.47153         4.36896        0.608253 
        3.48724         4.34327        0.601408 
        3.50292         4.31842        0.594684 
        3.51859         4.28459        0.588065 
        3.53431         4.24313        0.581527 
        3.55007         4.23499        0.575073 
        3.56577         4.21338        0.568741 
        3.58146         4.18406        0.562508 
        3.59719         4.15621        0.556354 
        3.61292         4.13064        0.550294 
        3.62859         4.08944        0.544347 
        3.64429         4.06623        0.538476 
        3.66003         4.05032        0.532674 
        3.67578         4.02246         0.52696 
        3.69146         3.98188        0.521351 
        3.70712         3.96981        0.515834 
        3.72284         3.94121        0.510376 
        3.73853         3.92373        0.505006 
        3.75422          3.8931        0.499712 
        3.76993         3.86453        0.494489 
        3.78564         3.84554        0.489343 
        3.80137         3.82867        0.484262 
        3.81707         3.79406        0.479263 
        3.83279         3.77209        0.474331 
        3.84853         3.73698        0.469461 
        3.86424         3.72076        0.464668 
        3.87992         3.69743        0.459949 
        3.89561         3.68559        0.455296 
        3.91134         3.65105        0.450697 
        3.92704         3.62838        0.446167 
        3.94273           3.608        0.441704 
        3.95845         3.58992        0.437294 
        3.97418         3.56379        0.432943 
        3.98988         3.54473        0.428657 
        4.00554         3.51687        0.424441 
        4.02125         3.48458        0.420269 
        4.03698         3.46929        0.416147 
        4.05268         3.44138         0.41209 
        4.06839         3.43432        0.408083 
         4.0841         3.40163        0.404131 
        4.09983          3.3778        0.400226 
        4.11555         3.35874        0.396374 
        4.13124         3.33816        0.392584 
        4.14693         3.31369        0.388839 
        4.16266         3.29728        0.385135 
        4.17839         3.27695        0.381481 
        4.19408         3.24625        0.377883 
        4.20977         3.23173         0.37433 
        4.22551         3.20434        0.370814 
        4.24123         3.18795        0.367346 
        4.25691         3.16774        0.363933 
        4.27259         3.15872        0.360561 
        4.28831         3.13022        0.357226 
        4.30404          3.1098        0.353929 
        4.31974         3.09594        0.350682 
        4.33543           3.073        0.347477 
        4.35116         3.04961        0.344304 
        4.36688         3.04252        0.341172 
        4.38255         3.01687        0.338091 
        4.39825         3.00401        0.335041 
        4.41398         2.99114        0.332022 
         4.4297         2.96718        0.329044 
        4.44541         2.94969        0.326103 
        4.46111         2.93329          0.3232 
        4.47683         2.90455        0.320331 
        4.49251         2.89704        0.317502 
        4.50819         2.87874        0.314708 
         4.5239         2.86353        0.311943 
        4.53962         2.84814        0.309208 
        4.55535         2.83395        0.306505 
        4.57106          2.8179        0.303838 
        4.58678         2.79743        0.301202 
         4.6025         2.78175        0.298597 
        4.61821         2.76934        0.296022 
        4.63391         2.75401        0.293482 
         4.6496         2.73793        0.290972 
        4.66532         2.70886        0.288488 
        4.68103         2.70295        0.286034 
        4.69673         2.68568        0.283611 
        4.71241          2.6665        0.281218 
        4.72811         2.65751        0.278849 
        4.74384         2.64527        0.276504 
        4.75955         2.63186         0.27419 
        4.77525         2.61871        0.271903 
        4.79096         2.59616         0.26964 
        4.80669         2.58628        0.267401 
         4.8224         2.58027        0.265191 
        4.83809         2.55884        0.263007 
        4.85379         2.54722        0.260847 
         4.8695         2.53247        0.258709 
        4.88521         2.51641        0.256597 
        4.90093          2.4994        0.254507 
        4.91663         2.48666        0.252443 
        4.93234         2.47337        0.250399 
        4.94807         2.46192        0.248376 
        4.96377         2.44439         0.24638 
        4.97943         2.43585         0.24441 
        4.99514         2.41944        0.242456 
        5.01086         2.40154        0.240522 
        5.02654         2.39434        0.238614 
        5.04227         2.38591        0.236721 
          5.058         2.37289        0.234848 
        5.07371         2.35662        0.232999 
        5.08942         2.34724        0.231169 
        5.10513           2.333        0.229359 
        5.12084         2.32526        0.227567 
        5.13656         2.31084        0.225795 
        5.15225         2.29593        0.224044 
        5.16796         2.28005         0.22231 
        5.18369         2.27186        0.220592 
         5.1994         2.26451        0.218895 
        5.21509         2.24904        0.217218 
        5.23079         2.23944        0.215556 
        5.24649         2.22621        0.213913 
        5.26217         2.22008        0.212289 
        5.27788         2.19953        0.210678 
        5.29359         2.19515        0.209085 
        5.30933         2.18557        0.207505 
        5.32504         2.16986        0.205944 
        5.34073         2.16073        0.204402 
        5.35646         2.14851        0.202871 
        5.37218         2.13562        0.201357 
        5.38789          2.1338         0.19986 
        5.40357          2.1207         0.19838 
        5.41929         2.11081        0.196911 
        5.43502         2.10018        0.195458 
         5.4507         2.08977        0.194022 
        5.46639         2.08083        0.192601 
        5.48212         2.07019         0.19119 
        5.49786         2.06438        0.189792 
        5.51353         2.04645        0.188415 
        5.52921         2.03977        0.187051 
        5.54495         2.03118        0.185695 
        5.56066         2.02362        0.184355 
        5.57637         2.01212        0.183028 
        5.59207         2.00458        0.181715 
        5.60778         1.99653        0.180415 
        5.62346         1.98616        0.179129 
        5.63916         1.97147        0.177854 
        5.65487         1.96341        0.176591 
         5.6706         1.95849        0.175339 
        5.68633         1.94425        0.174099 
        5.70203         1.93727        0.172873 
        5.71773         1.93134        0.171659 
        5.73344         1.91961        0.170457 
        5.74916         1.90748        0.169264 
        5.76486         1.90457        0.168085 
        5.78054         1.89497        0.166918 
        5.79626         1.88315         0.16576 
          5.812         1.87676        0.164611 
         5.8277           1.866        0.163477 
        5.84339         1.86052        0.162353 
        5.85911         1.85097        0.161237 
        5.87484         1.84511        0.160133 
        5.89053         1.83435         0.15904 
        5.90623         1.82517        0.157958 
        5.92195          1.8179        0.156883 
        5.93767         1.81057         0.15582 
        5.95336         1.80057        0.154767 
        5.96905         1.79453        0.153725 
        5.98476         1.78379        0.152691 
        6.00048          1.7759        0.151667 
        6.01617          1.7717        0.150653 
        6.03185         1.76384        0.149649 
        6.04756          1.7544        0.148652 
        6.06331         1.74664        0.147663 
        6.07903         1.73979        0.146684 
        6.09473         1.73747        0.145715 
        6.11044         1.72484        0.144754 
        6.12616         1.71698        0.143801 
        6.14186         1.70984        0.142859 
        6.15755         1.70301        0.141924 
        6.17326         1.69611        0.140998 
        6.18898          1.6895        0.140079 
        6.20467         1.68266         0.13917 
        6.22036         1.67317        0.138269 
         6.2361         1.66747        0.137374 
         6.2518         1.66085        0.136488 
        6.26748          1.6525        0.135612 
        6.28319         1.64718        0.134741 
        6.29893         1.64364        0.133877 
        6.31463         1.63254        0.133022 
        6.33033         1.62474        0.132174 
        6.34604         1.61787        0.131334 
        6.36177         1.61413          0.1305 
        6.37747           1.607        0.129675 
