# k  (h/Mpc)    Pcb(k)  (Mpc/h)^3    Pcb_linear(k) (Mpc/h)^3   ShotnoiseSubtracted = true
      0.0200456         91.0623         92.2798 
      0.0350414         67.1732         67.0843 
      0.0492313         48.9575         48.7422 
      0.0637834         40.6157         40.5189 
      0.0800726         32.1904         32.1589 
       0.096163         23.4095         23.3341 
       0.111083         18.6426         18.6119 
       0.126058          16.496         16.4939 
       0.142273          13.981          13.974 
       0.158546         11.0919         11.0365 
        0.17375         9.30235         9.29824 
       0.188953         8.41588         8.41934 
       0.204907         7.50145          7.4494 
       0.220756         6.32998         6.30265 
        0.23588         5.50668         5.48276 
         0.2514         4.98084         4.98103 
       0.267535         4.50522         4.50697 
       0.283568          3.9831         3.97455 
       0.299022         3.55588         3.54112 
       0.314451          3.2239         3.23634 
       0.330372         2.96593         2.96898 
       0.346141         2.69395          2.6948 
       0.361624         2.45458          2.4492 
       0.377134         2.26307         2.25365 
       0.392932          2.0668         2.08526 
       0.408854          1.9276         1.92221 
       0.424564         1.76829         1.77173 
       0.440253         1.64184          1.6426 
       0.455999         1.53503         1.53031 
       0.471626          1.4339         1.42712 
        0.48727         1.32998          1.3306 
       0.502856         1.24076         1.24388 
       0.518488         1.17312         1.16651 
       0.534347          1.1051         1.09458 
       0.550082         1.02707         1.02826 
       0.565732        0.958634        0.967584 
       0.581496         0.91329        0.912013 
       0.597222        0.863443        0.861048 
       0.612804        0.813833        0.814185 
       0.628434        0.774527        0.770504 
       0.644267        0.730168        0.729666 
       0.660051        0.690842        0.692028 
       0.675724        0.658141        0.657273 
       0.691403        0.627226        0.624876 
       0.707174        0.594933         0.59448 
       0.722871        0.563804        0.566227 
        0.73838        0.541537        0.540112 
       0.754018        0.518601        0.515448 
       0.769845        0.494303        0.492055 
        0.78569        0.471158        0.470094 
       0.801365        0.449674        0.449693 
       0.817031        0.431104        0.430521 
       0.832809        0.412982         0.41235 
       0.848511        0.395068        0.395314 
       0.864097        0.377623        0.379363 
       0.879701        0.362134        0.364281 
       0.895507        0.350453        0.349845 
       0.911279         0.33641        0.336224 
        0.92691        0.322694        0.323445 
       0.942635        0.311031        0.311263 
       0.958396         0.29858        0.299685 
       0.974128        0.287546        0.288719 
       0.989692        0.277801        0.278413 
        1.00528        0.268676        0.268597 
        1.02113        0.257109        0.259102 
        1.03692        0.249159        0.250104 
        1.05264        0.240674        0.241575 
        1.06832        0.232723         0.23346 
        1.08405        0.224009        0.225697 
        1.09979        0.216502        0.218284 
        1.11537        0.211011        0.211278 
        1.13105        0.203865         0.20454 
        1.14679        0.198074         0.19807 
        1.16256          0.1902        0.191869 
        1.17828        0.184371        0.185954 
        1.19395        0.178431         0.18031 
         1.2097        0.172936        0.174872 
        1.22537        0.168873        0.169686 
          1.241        0.163429        0.164726 
        1.25666        0.159173        0.159953 
        1.27241        0.154008        0.155347 
        1.28819        0.149574        0.150916 
        1.30392        0.145165         0.14667 
        1.31957        0.141347        0.142608 
        1.33529        0.136987        0.138685 
        1.35108        0.133353        0.134894 
        1.36674        0.128861        0.131273 
         1.3824        0.126793        0.127788 
        1.39811        0.122756        0.124419 
        1.41389        0.119558        0.121158 
        1.42964        0.116895        0.118021 
        1.44531        0.113108         0.11501 
        1.46101         0.11053        0.112098 
        1.47667        0.107221        0.109295 
        1.49229        0.104863        0.106597 
        1.50793        0.101963        0.103986 
        1.52367       0.0996232        0.101447 
        1.53953       0.0974791        0.098975 
        1.55526       0.0950354       0.0966057 
        1.57092       0.0920857       0.0943239 
        1.58662       0.0903594       0.0921106 
        1.60235       0.0885019       0.0899641 
        1.61809       0.0857052       0.0878852 
        1.63369       0.0841722       0.0858905 
        1.64941       0.0823368       0.0839437 
        1.66519       0.0801911       0.0820503 
        1.68085       0.0782172       0.0802289 
        1.69652       0.0763642       0.0784623 
        1.71228       0.0750763       0.0767391 
        1.72806       0.0728714       0.0750663 
        1.74368       0.0716007       0.0734603 
        1.75933       0.0700576       0.0718981 
        1.77505       0.0684309       0.0703742 
        1.79081       0.0671617       0.0688918 
         1.8065       0.0653002       0.0674585 
        1.82218       0.0641692       0.0660674 
        1.83797       0.0627071        0.064706 
        1.85367       0.0613907       0.0633906 
        1.86928       0.0603053       0.0621197 
        1.88497       0.0591342       0.0608767 
        1.90073       0.0577924       0.0596633 
        1.91647       0.0564473        0.058484 
        1.93218       0.0553123       0.0573392 
        1.94787       0.0541502       0.0562268 
        1.96363       0.0532382       0.0551395 
        1.97935       0.0519989       0.0540832 
        1.99499       0.0510706       0.0530607 
        2.01064       0.0502191       0.0520631 
         2.0264       0.0492559       0.0510849 
        2.04216       0.0481705       0.0501324 
        2.05781       0.0473256       0.0492102 
        2.07353       0.0461655        0.048308 
        2.08928       0.0454327       0.0474264 
        2.10499       0.0443913       0.0465692 
        2.12065       0.0438089       0.0457358 
        2.13633       0.0427971       0.0449221 
        2.15211       0.0422846        0.044123 
        2.16785       0.0414508       0.0433456 
        2.18349       0.0404332       0.0425918 
        2.19916       0.0400528       0.0418543 
        2.21489       0.0393732       0.0411319 
        2.23063       0.0385302       0.0404261 
         2.2463       0.0376913         0.03974 
        2.26194       0.0370497       0.0390716 
        2.27765       0.0364066       0.0384151 
        2.29341        0.035944        0.037772 
        2.30914       0.0351629        0.037145 
        2.32486       0.0345664       0.0365326 
        2.34061       0.0340372        0.035933 
        2.35635        0.033383       0.0353474 
        2.37203       0.0328439       0.0347769 
        2.38768       0.0322401       0.0342201 
        2.40339       0.0316855       0.0336735 
        2.41914       0.0312806       0.0331377 
        2.43483       0.0305769       0.0326153 
         2.4505       0.0301232       0.0321052 
        2.46622       0.0296537       0.0316041 
        2.48195       0.0290932       0.0311138 
        2.49759       0.0287219       0.0306365 
        2.51328       0.0283496       0.0301679 
        2.52906       0.0278356       0.0297062 
        2.54479       0.0273889       0.0292559 
        2.56049        0.026949       0.0288158 
        2.57618       0.0265199       0.0283852 
        2.59189       0.0260909       0.0279627 
        2.60758        0.025737       0.0275494 
        2.62325       0.0252954       0.0271451 
        2.63898       0.0248765       0.0267474 
        2.65468       0.0244798       0.0263585 
        2.67044       0.0242037       0.0259757 
        2.68618       0.0237893       0.0256014 
        2.70184       0.0234173        0.025236 
        2.71755       0.0229763       0.0248768 
        2.73329       0.0226622        0.024524 
        2.74897       0.0224137       0.0241793 
        2.76462       0.0220077       0.0238419 
        2.78034        0.021696       0.0235096 
        2.79607       0.0214238       0.0231832 
        2.81179       0.0210695       0.0228635 
        2.82749       0.0207539       0.0225501 
        2.84321       0.0204731       0.0222422 
        2.85893       0.0201471       0.0219402 
        2.87462       0.0199093       0.0216443 
        2.89033       0.0196473       0.0213536 
        2.90605       0.0192867        0.021068 
        2.92176       0.0191104       0.0207878 
        2.93747       0.0187922       0.0205128 
        2.95318       0.0184905       0.0202427 
        2.96891       0.0182937       0.0199774 
        2.98456       0.0180905       0.0197179 
        3.00023       0.0177502       0.0194628 
        3.01596       0.0174781       0.0192113 
        3.03164       0.0173451        0.018965 
        3.04738       0.0170634       0.0187223 
         3.0631       0.0167627       0.0184839 
        3.07883       0.0165558       0.0182497 
        3.09456       0.0164285       0.0180196 
        3.11026        0.016155       0.0177938 
        3.12596       0.0160002       0.0175719 
        3.14163       0.0157439       0.0173542 
        3.15734       0.0155564       0.0171398 
        3.17308       0.0153214       0.0169285 
        3.18879       0.0151508       0.0167213 
        3.20447       0.0149786       0.0165178 
         3.2202       0.0147755       0.0163172 
         3.2359       0.0146057       0.0161202 
        3.25157       0.0143876       0.0159269 
        3.26729       0.0142562       0.0157363 
        3.28304       0.0140361       0.0155483 
        3.29877       0.0138919       0.0153637 
        3.31446       0.0137068       0.0151825 
        3.33014       0.0135085       0.0150044 
        3.34585       0.0133506       0.0148288 
        3.36158       0.0131838       0.0146558 
        3.37727       0.0130571       0.0144861 
        3.39294       0.0129035       0.0143193 
        3.40867       0.0127688       0.0141544 
        3.42439       0.0126266       0.0139923 
        3.44008       0.0124714        0.013833 
        3.45578        0.012334       0.0136761 
        3.47153       0.0121664       0.0135212 
        3.48724       0.0120934       0.0133691 
        3.50292       0.0118635       0.0132196 
        3.51859       0.0117363       0.0130725 
        3.53431       0.0116581       0.0129271 
        3.55007       0.0115412       0.0127836 
        3.56577       0.0114301       0.0126429 
        3.58146       0.0112207       0.0125043 
        3.59719       0.0111328       0.0123675 
        3.61292       0.0109871       0.0122328 
        3.62859       0.0108894       0.0121006 
        3.64429       0.0107959       0.0119701 
        3.66003       0.0106761       0.0118411 
        3.67578        0.010562       0.0117141 
        3.69146        0.010479       0.0115894 
        3.70712       0.0103733       0.0114668 
        3.72284       0.0102398       0.0113454 
        3.73853       0.0101138       0.0112261 
        3.75422       0.0100679       0.0111084 
        3.76993      0.00993358       0.0109923 
        3.78564      0.00988848       0.0108779 
        3.80137      0.00976946       0.0107649 
        3.81707      0.00964126       0.0106538 
        3.83279      0.00955532       0.0105442 
        3.84853      0.00948535       0.0104359 
        3.86424       0.0093629       0.0103294 
        3.87992      0.00928472       0.0102245 
        3.89561       0.0092216        0.010121 
        3.91134      0.00914925       0.0100188 
        3.92704      0.00901562      0.00991812 
        3.94273      0.00896901       0.0098189 
        3.95845      0.00885963      0.00972087 
        3.97418      0.00877789      0.00962414 
        3.98988      0.00871288      0.00952887 
        4.00554      0.00859625      0.00943514 
        4.02125      0.00850173      0.00934241 
        4.03698      0.00842532      0.00925078 
        4.05268      0.00830803      0.00916058 
        4.06839      0.00818574      0.00907152 
         4.0841      0.00810711      0.00898368 
        4.09983      0.00799469      0.00889687 
        4.11555      0.00791127      0.00881124 
        4.13124      0.00781058      0.00872697 
        4.14693      0.00772731      0.00864374 
        4.16266      0.00762118      0.00856139 
        4.17839      0.00755897      0.00848017 
        4.19408      0.00747504      0.00840019 
        4.20977      0.00740343       0.0083212 
        4.22551      0.00732968      0.00824304 
        4.24123      0.00724459      0.00816596 
        4.25691      0.00717966      0.00809008 
        4.27259      0.00711387      0.00801513 
        4.28831      0.00707947      0.00794099 
        4.30404      0.00699912      0.00786771 
        4.31974      0.00694041      0.00779552 
        4.33543      0.00688117      0.00772427 
        4.35116      0.00682818      0.00765374 
        4.36688      0.00677057      0.00758412 
        4.38255      0.00673741      0.00751562 
        4.39825      0.00671605      0.00744782 
        4.41398      0.00668305      0.00738072 
         4.4297      0.00664923      0.00731452 
        4.44541       0.0066027      0.00724914 
        4.46111      0.00656192      0.00718461 
        4.47683      0.00655501      0.00712082 
        4.49251      0.00650785      0.00705793 
        4.50819      0.00650366      0.00699582 
         4.5239      0.00649715      0.00693437 
        4.53962      0.00647467      0.00687358 
        4.55535      0.00645734      0.00681348 
        4.57106      0.00647712      0.00675419 
        4.58678      0.00644512       0.0066956 
         4.6025      0.00646884      0.00663768 
        4.61821      0.00647178      0.00658046 
        4.63391      0.00645306      0.00652399 
         4.6496      0.00646817       0.0064682 
        4.66532      0.00647144      0.00641298 
        4.68103      0.00649152      0.00635842 
        4.69673      0.00648945      0.00630456 
        4.71241      0.00652235      0.00625137 
        4.72811       0.0065242       0.0061987 
        4.74384      0.00656835      0.00614658 
        4.75955        0.006578      0.00609513 
        4.77525      0.00662199       0.0060443 
        4.79096      0.00665958      0.00599399 
        4.80669      0.00666708      0.00594422 
         4.8224      0.00672222      0.00589508 
        4.83809      0.00674575      0.00584654 
        4.85379       0.0068096      0.00579852 
         4.8695      0.00685595        0.005751 
        4.88521      0.00690771      0.00570404 
        4.90093      0.00696455      0.00565759 
        4.91663      0.00704762       0.0056117 
        4.93234       0.0070785      0.00556626 
        4.94807      0.00715348      0.00552131 
        4.96377      0.00720959      0.00547693 
        4.97943      0.00727514      0.00543313 
        4.99514      0.00735539       0.0053897 
        5.01086       0.0074428      0.00534671 
        5.02654      0.00752056      0.00530429 
        5.04227      0.00761978      0.00526222 
          5.058      0.00769515      0.00522058 
        5.07371      0.00779937      0.00517947 
        5.08942      0.00791651      0.00513879 
        5.10513      0.00796573      0.00509855 
        5.12084      0.00806996      0.00505872 
        5.13656      0.00818125      0.00501933 
        5.15225      0.00827726      0.00498042 
        5.16796       0.0084132      0.00494186 
        5.18369       0.0085595      0.00490367 
         5.1994      0.00866146      0.00486595 
        5.21509      0.00884872      0.00482867 
        5.23079      0.00890844      0.00479173 
        5.24649        0.009099      0.00475521 
        5.26217      0.00920138      0.00471909 
        5.27788      0.00940194       0.0046833 
        5.29359      0.00951911      0.00464787 
        5.30933      0.00971775      0.00461275 
        5.32504      0.00984322      0.00457806 
        5.34073       0.0100605      0.00454376 
        5.35646        0.010183      0.00450975 
        5.37218       0.0103675      0.00447607 
        5.38789       0.0105622       0.0044428 
        5.40357       0.0107023       0.0044099 
        5.41929       0.0109108      0.00437726 
        5.43502       0.0111417      0.00434494 
         5.4507       0.0113831      0.00431303 
        5.46639       0.0116394      0.00428144 
        5.48212       0.0117072      0.00425009 
        5.49786       0.0120403      0.00421901 
        5.51353       0.0122816       0.0041884 
        5.52921       0.0125247      0.00415806 
        5.54495       0.0127931      0.00412793 
        5.56066       0.0130081      0.00409813 
        5.57637          0.0133      0.00406864 
        5.59207       0.0135127      0.00403945 
        5.60778       0.0137984      0.00401055 
        5.62346       0.0141562      0.00398196 
        5.63916       0.0143901      0.00395363 
        5.65487       0.0147427      0.00392556 
         5.6706       0.0149536      0.00389772 
        5.68633       0.0153727      0.00387015 
        5.70203        0.015694       0.0038429 
        5.71773       0.0160413      0.00381592 
        5.73344       0.0163269      0.00378918 
        5.74916       0.0167719      0.00376267 
        5.76486       0.0171287      0.00373645 
        5.78054       0.0174761      0.00371053 
        5.79626       0.0177989      0.00368477 
          5.812       0.0183254      0.00365924 
         5.8277       0.0186635      0.00363402 
        5.84339       0.0191026      0.00360903 
        5.85911       0.0196799      0.00358424 
        5.87484       0.0200991      0.00355968 
        5.89053       0.0205644       0.0035354 
        5.90623       0.0211905      0.00351134 
        5.92195       0.0216233      0.00348745 
        5.93767       0.0221004      0.00346381 
        5.95336        0.022576      0.00344042 
        5.96905       0.0232952      0.00341725 
        5.98476       0.0236106      0.00339427 
        6.00048       0.0242349      0.00337149 
        6.01617       0.0248662      0.00334895 
        6.03185       0.0254038      0.00332664 
        6.04756       0.0261311      0.00330448 
        6.06331       0.0266495      0.00328248 
        6.07903       0.0274967      0.00326072 
        6.09473       0.0279373      0.00323918 
        6.11044       0.0289492      0.00321782 
        6.12616       0.0297212      0.00319665 
        6.14186       0.0301911      0.00317569 
        6.15755       0.0310423      0.00315492 
        6.17326       0.0317026      0.00313432 
        6.18898       0.0328773       0.0031139 
        6.20467       0.0337879      0.00309369 
        6.22036       0.0345239      0.00307367 
         6.2361       0.0354206      0.00305376 
         6.2518       0.0364173      0.00303407 
        6.26748       0.0370531      0.00301459 
        6.28319       0.0383393      0.00299523 
        6.29893       0.0392784      0.00297602 
        6.31463       0.0404856      0.00295702 
        6.33033       0.0414538      0.00293818 
        6.34604       0.0426116       0.0029195 
        6.36177       0.0439212      0.00290096 
        6.37747       0.0450785      0.00288262 
