# k  (h/Mpc)    Pcb(k)  (Mpc/h)^3    Pcb_linear(k) (Mpc/h)^3   ShotnoiseSubtracted = true
      0.0200456         17436.5         17819.4 
      0.0350414         12435.8         12954.1 
      0.0492313          9257.6         9412.22 
      0.0637834          7979.1         7824.29 
      0.0800726         6302.37         6209.95 
       0.096163         4378.87         4505.86 
       0.111083         3503.68         3593.99 
       0.126058         3230.34            3185 
       0.142273         2795.29          2698.4 
       0.158546         2406.55         2131.17 
        0.17375         1923.48         1795.51 
       0.188953         1874.28         1625.79 
       0.204907         1761.74          1438.5 
       0.220756         1517.45         1217.05 
        0.23588         1347.86         1058.73 
         0.2514         1172.01         961.847 
       0.267535         1163.84         870.306 
       0.283568         1054.95         767.493 
       0.299022         993.486         683.797 
       0.314451         945.087         624.944 
       0.330372         869.275         573.316 
       0.346141         812.958         520.371 
       0.361624         781.424         472.946 
       0.377134         725.579         435.185 
       0.392932         697.843         402.668 
       0.408854         677.489         371.183 
       0.424564         632.127         342.124 
       0.440253          620.91         317.189 
       0.455999         589.562         295.506 
       0.471626         562.781         275.581 
        0.48727         541.284         256.941 
       0.502856         526.454         240.196 
       0.518488         520.464         225.256 
       0.534347         486.187         211.366 
       0.550082         468.126         198.559 
       0.565732         467.527         186.843 
       0.581496         439.396         176.112 
       0.597222         432.699          166.27 
       0.612804         421.386         157.221 
       0.628434         406.773         148.786 
       0.644267         395.796           140.9 
       0.660051         384.256         133.632 
       0.675724           380.1         126.921 
       0.691403         367.874         120.665 
       0.707174          355.16         114.795 
       0.722871         350.809          109.34 
        0.73838         345.738         104.297 
       0.754018         335.789          99.534 
       0.769845         326.631         95.0168 
        0.78569          324.76         90.7762 
       0.801365         314.328         86.8366 
       0.817031          304.29         83.1344 
       0.832809         302.491         79.6256 
       0.848511         294.251          76.336 
       0.864097         288.758         73.2558 
       0.879701         284.781         70.3434 
       0.895507         279.342         67.5557 
       0.911279         270.093         64.9256 
        0.92691         268.702         62.4579 
       0.942635         262.195         60.1055 
       0.958396         257.714         57.8698 
       0.974128         253.061         55.7523 
       0.989692         248.936         53.7622 
        1.00528         244.902         51.8667 
        1.02113          242.47         50.0332 
        1.03692         236.498         48.2955 
        1.05264         232.922         46.6487 
        1.06832         228.113         45.0815 
        1.08405          224.03         43.5825 
        1.09979          220.49          42.151 
        1.11537         216.935         40.7982 
        1.13105         211.776          39.497 
        1.14679         211.405         38.2477 
        1.16256         207.272         37.0503 
        1.17828         203.684         35.9082 
        1.19395         200.034         34.8183 
         1.2097         199.781         33.7682 
        1.22537         194.881         32.7667 
          1.241          193.48          31.809 
        1.25666         189.262         30.8873 
        1.27241         186.537         29.9979 
        1.28819         184.263         29.1421 
        1.30392         180.206         28.3224 
        1.31957         180.381         27.5379 
        1.33529         175.736         26.7803 
        1.35108         172.758         26.0484 
        1.36674         171.871         25.3491 
         1.3824          169.37         24.6762 
        1.39811         168.288         24.0255 
        1.41389         164.545         23.3959 
        1.42964         162.111           22.79 
        1.44531         159.753         22.2086 
        1.46101         158.142         21.6463 
        1.47667         154.984         21.1052 
        1.49229         153.081          20.584 
        1.50793         151.173         20.0799 
        1.52367         149.916         19.5895 
        1.53953         146.817         19.1123 
        1.55526         144.666         18.6548 
        1.57092         143.311         18.2141 
        1.58662         141.124         17.7867 
        1.60235         139.284         17.3723 
        1.61809         137.915         16.9708 
        1.63369         135.488         16.5856 
        1.64941         133.383         16.2097 
        1.66519         131.862         15.8441 
        1.68085          130.72         15.4924 
        1.69652         128.371         15.1512 
        1.71228          126.68         14.8185 
        1.72806         125.177         14.4955 
        1.74368         124.211         14.1853 
        1.75933         122.071         13.8837 
        1.77505         120.488         13.5894 
        1.79081         119.591         13.3031 
         1.8065         117.947         13.0264 
        1.82218         115.618         12.7577 
        1.83797         114.175         12.4949 
        1.85367         113.167         12.2408 
        1.86928         111.433         11.9954 
        1.88497         109.367         11.7554 
        1.90073         108.523         11.5211 
        1.91647         107.165         11.2934 
        1.93218         105.863         11.0723 
        1.94787         104.491         10.8575 
        1.96363         103.243         10.6476 
        1.97935         101.383         10.4436 
        1.99499         100.523         10.2461 
        2.01064         99.3269         10.0535 
         2.0264         97.8532          9.8646 
        2.04216         97.0987         9.68067 
        2.05781         95.8237         9.50259 
        2.07353          94.663         9.32837 
        2.08928         93.1181         9.15813 
        2.10499         91.6367         8.99261 
        2.12065         91.1638         8.83168 
        2.13633         90.2455         8.67455 
        2.15211         88.9392         8.52024 
        2.16785         87.4182         8.37012 
        2.18349         86.4048         8.22456 
        2.19916         85.5818         8.08215 
        2.21489         84.5357         7.94266 
        2.23063         83.2193         7.80636 
         2.2463         82.3591         7.67388 
        2.26194         82.1223          7.5448 
        2.27765          80.433         7.41804 
        2.29341         79.6444         7.29386 
        2.30914          78.569         7.17278 
        2.32486         77.8962         7.05452 
        2.34061         76.8993         6.93873 
        2.35635         75.4351         6.82565 
        2.37203         74.6079         6.71548 
        2.38768         73.9148         6.60797 
        2.40339         73.0933         6.50243 
        2.41914         72.0185         6.39895 
        2.43483         71.5899         6.29809 
         2.4505         70.5668         6.19957 
        2.46622         69.7691         6.10283 
        2.48195         68.9615         6.00814 
        2.49759         68.2029         5.91597 
        2.51328         67.4684         5.82549 
        2.52906         66.7074         5.73634 
        2.54479         66.0635         5.64938 
        2.56049         65.0432          5.5644 
        2.57618         64.4474         5.48123 
        2.59189          63.453         5.39965 
        2.60758         62.7522         5.31985 
        2.62325         62.1328         5.24177 
        2.63898         61.4314         5.16498 
        2.65468         60.7896         5.08989 
        2.67044         59.9574         5.01597 
        2.68618         59.5043         4.94369 
        2.70184         59.1381         4.87313 
        2.71755         58.3657         4.80376 
        2.73329         57.4996         4.73564 
        2.74897         57.0353         4.66907 
        2.76462          56.265         4.60392 
        2.78034         55.4928         4.53975 
        2.79607         54.9564         4.47673 
        2.81179         54.4381         4.41498 
        2.82749         53.8287         4.35447 
        2.84321         53.3214         4.29502 
        2.85893         52.6117          4.2367 
        2.87462          52.093         4.17957 
        2.89033         51.4906         4.12343 
        2.90605         50.8003         4.06828 
        2.92176         50.4615         4.01416 
        2.93747         49.9623         3.96106 
        2.95318         49.2589         3.90891 
        2.96891         48.5638         3.85767 
        2.98456         48.2537         3.80758 
        3.00023         47.4784          3.7583 
        3.01596         47.1352         3.70974 
        3.03164         46.6017         3.66218 
        3.04738         46.1361         3.61532 
         3.0631         45.6938         3.56929 
        3.07883         45.2004         3.52406 
        3.09456         44.8292         3.47962 
        3.11026         44.2218         3.43601 
        3.12596         43.8349         3.39316 
        3.14163         43.2543         3.35114 
        3.15734         42.9205         3.30973 
        3.17308         42.5367         3.26892 
        3.18879         42.1132         3.22891 
        3.20447         41.3675         3.18963 
         3.2202         41.2474         3.15088 
         3.2359         40.7415         3.11284 
        3.25157         40.4495         3.07552 
        3.26729         39.9129          3.0387 
        3.28304         39.4115         3.00241 
        3.29877         39.0528         2.96677 
        3.31446         38.6456         2.93177 
        3.33014         38.3084         2.89737 
        3.34585         38.0933         2.86348 
        3.36158         37.6666         2.83007 
        3.37727         37.1446          2.7973 
        3.39294         36.8214         2.76508 
        3.40867         36.3777         2.73325 
        3.42439         36.0762         2.70194 
        3.44008          35.707         2.67118 
        3.45578         35.3115         2.64088 
        3.47153          35.029         2.61098 
        3.48724         34.6983         2.58159 
        3.50292          34.391         2.55273 
        3.51859         33.8534         2.52432 
        3.53431         33.6085         2.49625 
        3.55007         33.3139         2.46855 
        3.56577         33.0465         2.44137 
        3.58146         32.6704         2.41461 
        3.59719         32.3498         2.38819 
        3.61292         32.1022         2.36218 
        3.62859         31.7614         2.33665 
        3.64429          31.456         2.31145 
        3.66003         31.1336         2.28655 
        3.67578         30.8243         2.26202 
        3.69146         30.6374         2.23794 
        3.70712         30.2472         2.21426 
        3.72284         30.0361         2.19083 
        3.73853         29.7807         2.16778 
        3.75422         29.4972         2.14505 
        3.76993         29.2015         2.12264 
        3.78564         28.9529         2.10055 
        3.80137          28.602         2.07873 
        3.81707         28.3378         2.05728 
        3.83279         28.1218         2.03611 
        3.84853         27.9412          2.0152 
        3.86424         27.5989         1.99462 
        3.87992         27.4245         1.97437 
        3.89561         27.1358         1.95439 
        3.91134         26.8627         1.93465 
        3.92704          26.649         1.91521 
        3.94273         26.4234         1.89605 
        3.95845         26.0165         1.87712 
        3.97418         25.9302         1.85844 
        3.98988         25.6896         1.84004 
        4.00554         25.4149         1.82195 
        4.02125         25.2844         1.80404 
        4.03698         24.8933         1.78634 
        4.05268         24.8397         1.76893 
        4.06839          24.555         1.75173 
         4.0841         24.3358         1.73477 
        4.09983         24.1046           1.718 
        4.11555         23.9338         1.70147 
        4.13124         23.6664          1.6852 
        4.14693         23.5174         1.66912 
        4.16266         23.2429         1.65322 
        4.17839         22.9939         1.63754 
        4.19408         22.8651         1.62209 
        4.20977         22.6596         1.60684 
        4.22551         22.4896         1.59175 
        4.24123         22.2314         1.57686 
        4.25691         22.1206         1.56221 
        4.27259         21.8839         1.54774 
        4.28831         21.6873         1.53342 
        4.30404         21.4646         1.51927 
        4.31974         21.3639         1.50533 
        4.33543         21.0921         1.49157 
        4.35116         20.9524         1.47795 
        4.36688         20.7715         1.46451 
        4.38255         20.6192         1.45128 
        4.39825         20.4101         1.43819 
        4.41398         20.2489         1.42523 
         4.4297         20.1099         1.41245 
        4.44541         19.9371         1.39982 
        4.46111         19.7809         1.38736 
        4.47683         19.5593         1.37505 
        4.49251          19.452          1.3629 
        4.50819         19.2556         1.35091 
         4.5239         19.1011         1.33904 
        4.53962         18.9818          1.3273 
        4.55535         18.8158          1.3157 
        4.57106         18.6739         1.30425 
        4.58678         18.4995         1.29293 
         4.6025         18.3616         1.28175 
        4.61821         18.2062          1.2707 
        4.63391         18.0448          1.2598 
         4.6496         17.8926         1.24902 
        4.66532         17.7513         1.23836 
        4.68103         17.5956         1.22782 
        4.69673         17.4528         1.21742 
        4.71241         17.3091         1.20715 
        4.72811         17.1802         1.19698 
        4.74384         17.0284         1.18692 
        4.75955         16.9209         1.17698 
        4.77525         16.7841         1.16717 
        4.79096         16.6492         1.15745 
        4.80669          16.522         1.14784 
         4.8224         16.3652         1.13835 
        4.83809         16.2565         1.12898 
        4.85379         16.1295         1.11971 
         4.8695         16.0116         1.11053 
        4.88521         15.8815         1.10146 
        4.90093          15.749         1.09249 
        4.91663         15.6146         1.08363 
        4.93234         15.4872         1.07486 
        4.94807         15.3494         1.06618 
        4.96377         15.2931         1.05761 
        4.97943         15.1546         1.04915 
        4.99514         15.0403         1.04076 
        5.01086         14.9025         1.03246 
        5.02654         14.8052         1.02427 
        5.04227          14.666         1.01614 
          5.058         14.5856          1.0081 
        5.07371          14.471         1.00017 
        5.08942         14.3837        0.992312 
        5.10513         14.2374        0.984541 
        5.12084         14.1376         0.97685 
        5.13656         14.0239        0.969243 
        5.15225         13.9303        0.961729 
        5.16796         13.7866        0.954283 
        5.18369          13.706        0.946909 
         5.1994         13.5753        0.939626 
        5.21509         13.4764        0.932426 
        5.23079         13.3992        0.925293 
        5.24649         13.2762        0.918241 
        5.26217         13.2196        0.911266 
        5.27788         13.0845        0.904354 
        5.29359         12.9812        0.897513 
        5.30933          12.897        0.890732 
        5.32504         12.8121        0.884033 
        5.34073         12.7126         0.87741 
        5.35646         12.6313        0.870842 
        5.37218         12.5057        0.864339 
        5.38789         12.4226        0.857913 
        5.40357         12.3319         0.85156 
        5.41929         12.2442        0.845257 
        5.43502         12.1514        0.839017 
         5.4507         12.0554        0.832855 
        5.46639          11.984        0.826754 
        5.48212         11.9002          0.8207 
        5.49786          11.815        0.814699 
        5.51353         11.7022        0.808788 
        5.52921         11.6488         0.80293 
        5.54495         11.5587        0.797112 
        5.56066         11.4555        0.791358 
        5.57637         11.3712        0.785662 
        5.59207         11.2907        0.780027 
        5.60778         11.2189        0.774445 
        5.62346         11.1414        0.768925 
        5.63916         11.0773        0.763454 
        5.65487         10.9866        0.758033 
         5.6706          10.919        0.752659 
        5.68633         10.8306        0.747334 
        5.70203         10.7437        0.742072 
        5.71773         10.6657        0.736862 
        5.73344         10.6044        0.731698 
        5.74916         10.5509         0.72658 
        5.76486         10.4542        0.721517 
        5.78054         10.3889         0.71651 
        5.79626          10.303        0.711537 
          5.812         10.2343        0.706606 
         5.8277         10.1779        0.701736 
        5.84339         10.0854        0.696912 
        5.85911         10.0225        0.692124 
        5.87484         9.96647        0.687382 
        5.89053         9.88596        0.682693 
        5.90623          9.8267        0.678046 
        5.92195         9.75538        0.673435 
        5.93767         9.67603        0.668868 
        5.95336         9.61127        0.664352 
        5.96905          9.5624        0.659879 
        5.98476          9.4977        0.655441 
        6.00048         9.42076        0.651042 
        6.01617         9.35314        0.646689 
        6.03185         9.26897        0.642381 
        6.04756         9.21897        0.638102 
        6.06331         9.15354        0.633854 
        6.07903         9.09962        0.629652 
        6.09473         9.03458        0.625493 
        6.11044         8.98735        0.621367 
        6.12616         8.92682        0.617279 
        6.14186         8.86539        0.613232 
        6.15755         8.82149        0.609222 
        6.17326         8.74632        0.605244 
        6.18898         8.67956          0.6013 
        6.20467         8.62137        0.597398 
        6.22036          8.5698        0.593531 
         6.2361         8.50762        0.589688 
         6.2518          8.4433        0.585885 
        6.26748         8.40182        0.582124 
        6.28319         8.32413        0.578385 
        6.29893         8.27956        0.574676 
        6.31463          8.2338        0.571006 
        6.33033         8.18047        0.567369 
        6.34604         8.11218        0.563761 
        6.36177         8.07484        0.560182 
        6.37747         8.02747        0.556639 
