# k  (h/Mpc)    Pcb(k)  (Mpc/h)^3    Pcb_linear(k) (Mpc/h)^3   ShotnoiseSubtracted = true
      0.0200456         516.897         524.024 
      0.0350414         380.031         380.948 
      0.0492313         277.873         276.789 
      0.0637834         231.424         230.093 
      0.0800726         183.445         182.619 
       0.096163         132.448         132.506 
       0.111083         105.296          105.69 
       0.126058         93.8771         93.6629 
       0.142273          79.764         79.3531 
       0.158546          63.288         62.6723 
        0.17375         52.7362         52.8014 
       0.188953         48.0324         47.8104 
       0.204907         43.3055         42.3025 
       0.220756         36.2931         35.7905 
        0.23588         31.5762         31.1346 
         0.2514         28.4561         28.2855 
       0.267535          25.835         25.5935 
       0.283568         22.8972           22.57 
       0.299022         20.5287         20.1087 
       0.314451         18.4585          18.378 
       0.330372         17.0634         16.8598 
       0.346141         15.5027         15.3028 
       0.361624          14.179         13.9082 
       0.377134         13.1491         12.7977 
       0.392932         11.8208         11.8415 
       0.408854         11.1955         10.9155 
       0.424564         10.2836          10.061 
       0.440253         9.52353         9.32772 
       0.455999         8.94276          8.6901 
       0.471626         8.38525         8.10413 
        0.48727         7.78285         7.55599 
       0.502856         7.24659         7.06356 
       0.518488         6.90105          6.6242 
       0.534347         6.54368         6.21574 
       0.550082         6.00968         5.83912 
       0.565732         5.56125         5.49457 
       0.581496         5.38673           5.179 
       0.597222         5.12283         4.88959 
       0.612804         4.79213         4.62346 
       0.628434         4.60028         4.37542 
       0.644267         4.34703         4.14351 
       0.660051         4.10101         3.92978 
       0.675724         3.90534         3.73242 
       0.691403         3.74799         3.54845 
       0.707174          3.5445         3.37584 
       0.722871         3.37372          3.2154 
        0.73838         3.24318         3.06711 
       0.754018         3.12809         2.92704 
       0.769845         2.96129          2.7942 
        0.78569         2.84241          2.6695 
       0.801365         2.71256         2.55364 
       0.817031         2.61218         2.44477 
       0.832809         2.50438         2.34159 
       0.848511          2.3792         2.24485 
       0.864097         2.27751         2.15427 
       0.879701         2.19301         2.06862 
       0.895507         2.11376         1.98664 
       0.911279         2.05775          1.9093 
        0.92691         1.97334         1.83673 
       0.942635         1.89229         1.76755 
       0.958396         1.81677          1.7018 
       0.974128         1.75661         1.63953 
       0.989692         1.70986         1.58101 
        1.00528         1.63925         1.52527 
        1.02113         1.57238         1.47135 
        1.03692         1.53931         1.42025 
        1.05264         1.48143         1.37182 
        1.06832         1.43902         1.32573 
        1.08405         1.37085         1.28165 
        1.09979         1.33555         1.23955 
        1.11537         1.30088         1.19977 
        1.13105         1.26382         1.16151 
        1.14679         1.22961         1.12477 
        1.16256         1.17898         1.08955 
        1.17828         1.14803         1.05597 
        1.19395          1.1129         1.02392 
         1.2097         1.06694        0.993038 
        1.22537         1.04745        0.963586 
          1.241         1.01884        0.935421 
        1.25666         1.00339        0.908316 
        1.27241        0.957616        0.882161 
        1.28819        0.932264        0.856996 
        1.30392        0.913328        0.832889 
        1.31957        0.889002        0.809819 
        1.33529        0.861091        0.787542 
        1.35108        0.838175        0.766017 
        1.36674        0.807817        0.745452 
         1.3824        0.796296        0.725664 
        1.39811        0.772699         0.70653 
        1.41389        0.755932        0.688016 
        1.42964        0.738624        0.670197 
        1.44531        0.714979        0.653099 
        1.46101        0.702548        0.636562 
        1.47667        0.674452        0.620649 
        1.49229        0.667675        0.605324 
        1.50793        0.647063          0.5905 
        1.52367        0.634629        0.576079 
        1.53953        0.615449        0.562044 
        1.55526        0.603164        0.548589 
        1.57092        0.587095        0.535632 
        1.58662        0.576359        0.523063 
        1.60235        0.563077        0.510874 
        1.61809        0.545675        0.499069 
        1.63369        0.542604        0.487742 
        1.64941        0.524656        0.476686 
        1.66519        0.513325        0.465934 
        1.68085        0.498808        0.455591 
        1.69652        0.489316         0.44556 
        1.71228        0.481378        0.435774 
        1.72806        0.466844        0.426275 
        1.74368        0.461818        0.417155 
        1.75933        0.449269        0.408284 
        1.77505        0.440191         0.39963 
        1.79081        0.431725        0.391212 
         1.8065        0.418622        0.383073 
        1.82218        0.413632        0.375173 
        1.83797        0.403956        0.367442 
        1.85367        0.399448        0.359972 
        1.86928         0.38978        0.352755 
        1.88497         0.38123        0.345697 
        1.90073        0.372819        0.338806 
        1.91647        0.367568         0.33211 
        1.93218        0.358251        0.325609 
        1.94787        0.352072        0.319292 
        1.96363        0.344838        0.313118 
        1.97935        0.337196        0.307119 
        1.99499        0.331696        0.301313 
        2.01064        0.325388        0.295648 
         2.0264        0.317926        0.290093 
        2.04216        0.315032        0.284684 
        2.05781        0.307913        0.279447 
        2.07353        0.300447        0.274324 
        2.08928        0.294449        0.269318 
        2.10499        0.290771         0.26445 
        2.12065        0.286956        0.259717 
        2.13633        0.280921        0.255097 
        2.15211        0.275854        0.250559 
        2.16785        0.270164        0.246144 
        2.18349        0.264431        0.241863 
        2.19916        0.261686        0.237676 
        2.21489        0.256144        0.233573 
        2.23063        0.252597        0.229565 
         2.2463        0.248014        0.225669 
        2.26194        0.241757        0.221874 
        2.27765        0.238775        0.218146 
        2.29341        0.235271        0.214494 
        2.30914        0.231637        0.210933 
        2.32486        0.226975        0.207456 
        2.34061        0.223358        0.204051 
        2.35635        0.218977        0.200725 
        2.37203         0.21562        0.197485 
        2.38768        0.212154        0.194324 
        2.40339        0.209305         0.19122 
        2.41914        0.206058        0.188177 
        2.43483        0.202513        0.185211 
         2.4505        0.198084        0.182314 
        2.46622        0.195134        0.179469 
        2.48195         0.19268        0.176684 
        2.49759        0.190252        0.173974 
        2.51328        0.186788        0.171313 
        2.52906        0.184249        0.168691 
        2.54479        0.180488        0.166134 
        2.56049         0.17728        0.163635 
        2.57618        0.174721        0.161189 
        2.59189        0.172867         0.15879 
        2.60758         0.17062        0.156443 
        2.62325        0.167151        0.154147 
        2.63898        0.165033        0.151889 
        2.65468        0.161901        0.149681 
        2.67044        0.160069        0.147507 
        2.68618        0.157584        0.145381 
        2.70184        0.155139        0.143306 
        2.71755        0.152306        0.141267 
        2.73329        0.150734        0.139263 
        2.74897        0.148788        0.137305 
        2.76462        0.146351         0.13539 
        2.78034        0.144239        0.133502 
        2.79607        0.141872        0.131649 
        2.81179         0.14067        0.129833 
        2.82749        0.138108        0.128054 
        2.84321        0.136297        0.126306 
        2.85893        0.134694        0.124591 
        2.87462        0.132698         0.12291 
        2.89033        0.130781         0.12126 
        2.90605        0.128748        0.119638 
        2.92176        0.127323        0.118046 
        2.93747        0.125144        0.116485 
        2.95318        0.123949        0.114951 
        2.96891        0.121994        0.113444 
        2.98456        0.120366        0.111971 
        3.00023        0.118959        0.110522 
        3.01596        0.117367        0.109094 
        3.03164        0.116213        0.107696 
        3.04738        0.113951        0.106317 
         3.0631         0.11304        0.104964 
        3.07883        0.111254        0.103634 
        3.09456         0.10986        0.102327 
        3.11026        0.108453        0.101044 
        3.12596        0.106972       0.0997843 
        3.14163        0.105704       0.0985485 
        3.15734        0.104686       0.0973308 
        3.17308        0.103594       0.0961307 
        3.18879        0.102108       0.0949541 
        3.20447        0.100359       0.0937989 
         3.2202       0.0999674       0.0926594 
         3.2359       0.0983461       0.0915408 
        3.25157       0.0972713       0.0904434 
        3.26729       0.0957448       0.0893606 
        3.28304       0.0952948       0.0882934 
        3.29877        0.093839       0.0872451 
        3.31446       0.0927905        0.086216 
        3.33014         0.09209       0.0852045 
        3.34585       0.0910004       0.0842076 
        3.36158       0.0899429       0.0832252 
        3.37727       0.0891233       0.0822615 
        3.39294       0.0878409        0.081314 
        3.40867       0.0867301        0.080378 
        3.42439       0.0859404       0.0794572 
        3.44008       0.0846954       0.0785526 
        3.45578       0.0841125       0.0776615 
        3.47153       0.0832895       0.0767822 
        3.48724        0.082437       0.0759181 
        3.50292       0.0815161       0.0750693 
        3.51859       0.0804155       0.0742338 
        3.53431       0.0795407       0.0734085 
        3.55007       0.0791162       0.0725937 
        3.56577       0.0781753       0.0717945 
        3.58146       0.0775515       0.0710076 
        3.59719       0.0769214       0.0702307 
        3.61292       0.0761151       0.0694658 
        3.62859       0.0751927        0.068715 
        3.64429       0.0744586        0.067974 
        3.66003       0.0739117       0.0672416 
        3.67578       0.0730369       0.0665202 
        3.69146       0.0722952       0.0658122 
        3.70712       0.0719022       0.0651157 
        3.72284       0.0712861       0.0644267 
        3.73853       0.0704923       0.0637489 
        3.75422       0.0700296       0.0630806 
        3.76993       0.0691151       0.0624213 
        3.78564       0.0686442       0.0617717 
        3.80137       0.0678982       0.0611303 
        3.81707       0.0674092       0.0604993 
        3.83279       0.0669708       0.0598767 
        3.84853       0.0662375       0.0592619 
        3.86424       0.0656167       0.0586569 
        3.87992       0.0649703       0.0580612 
        3.89561       0.0644848       0.0574738 
        3.91134       0.0640665       0.0568933 
        3.92704       0.0633441       0.0563214 
        3.94273       0.0627431        0.055758 
        3.95845        0.062221       0.0552013 
        3.97418       0.0618727       0.0546521 
        3.98988       0.0609634       0.0541111 
        4.00554       0.0606693       0.0535788 
        4.02125       0.0598031       0.0530522 
        4.03698       0.0589309       0.0525319 
        4.05268       0.0581214       0.0520197 
        4.06839       0.0574576       0.0515139 
         4.0841       0.0566155       0.0510151 
        4.09983       0.0558759       0.0505221 
        4.11555       0.0549824       0.0500359 
        4.13124       0.0542719       0.0495574 
        4.14693       0.0535312       0.0490847 
        4.16266       0.0528295       0.0486171 
        4.17839       0.0522369       0.0481559 
        4.19408       0.0516007       0.0477017 
        4.20977       0.0510173       0.0472531 
        4.22551       0.0503485       0.0468093 
        4.24123       0.0497216       0.0463716 
        4.25691       0.0490985       0.0459407 
        4.27259       0.0486787       0.0455151 
        4.28831       0.0480969        0.045094 
        4.30404       0.0477796       0.0446779 
        4.31974       0.0473527       0.0442679 
        4.33543       0.0468473       0.0438634 
        4.35116       0.0464596       0.0434628 
        4.36688        0.045889       0.0430675 
        4.38255       0.0455046       0.0426785 
        4.39825       0.0451943       0.0422935 
        4.41398       0.0450103       0.0419125 
         4.4297        0.044658       0.0415365 
        4.44541       0.0443718       0.0411653 
        4.46111       0.0441068       0.0407988 
        4.47683       0.0438071       0.0404366 
        4.49251        0.043516       0.0400795 
        4.50819       0.0433087       0.0397268 
         4.5239       0.0430691       0.0393778 
        4.53962       0.0428623       0.0390326 
        4.55535       0.0427452       0.0386913 
        4.57106       0.0426455       0.0383547 
        4.58678       0.0423419       0.0380219 
         4.6025       0.0423876        0.037693 
        4.61821       0.0423188       0.0373681 
        4.63391       0.0423001       0.0370474 
         4.6496       0.0421122       0.0367306 
        4.66532       0.0421456        0.036417 
        4.68103        0.042053       0.0361072 
        4.69673       0.0420303       0.0358013 
        4.71241       0.0421044       0.0354993 
        4.72811       0.0420963       0.0352002 
        4.74384       0.0421873       0.0349042 
        4.75955       0.0423088       0.0346121 
        4.77525        0.042456       0.0343234 
        4.79096       0.0424551       0.0340377 
        4.80669       0.0424765       0.0337551 
         4.8224       0.0427878       0.0334761 
        4.83809        0.042935       0.0332004 
        4.85379       0.0430281       0.0329277 
         4.8695       0.0432227       0.0326579 
        4.88521       0.0434401       0.0323912 
        4.90093       0.0437182       0.0321274 
        4.91663       0.0438851       0.0318668 
        4.93234       0.0440832       0.0316088 
        4.94807       0.0444337       0.0313535 
        4.96377       0.0448136       0.0311015 
        4.97943       0.0452587       0.0308528 
        4.99514       0.0454574       0.0306062 
        5.01086       0.0458959        0.030362 
        5.02654       0.0461185       0.0301212 
        5.04227       0.0465849       0.0298822 
          5.058       0.0471053       0.0296458 
        5.07371       0.0475663       0.0294123 
        5.08942       0.0477733       0.0291814 
        5.10513       0.0485203       0.0289529 
        5.12084       0.0490284       0.0287267 
        5.13656        0.049435        0.028503 
        5.15225        0.050194        0.028282 
        5.16796       0.0507627        0.028063 
        5.18369       0.0513116       0.0278462 
         5.1994       0.0519628        0.027632 
        5.21509       0.0525687       0.0274203 
        5.23079       0.0531586       0.0272105 
        5.24649       0.0539456       0.0270031 
        5.26217       0.0547799        0.026798 
        5.27788       0.0555576       0.0265948 
        5.29359       0.0563953       0.0263936 
        5.30933       0.0570375       0.0261942 
        5.32504       0.0579175       0.0259972 
        5.34073       0.0588192       0.0258024 
        5.35646        0.059719       0.0256092 
        5.37218       0.0608477        0.025418 
        5.38789       0.0618074       0.0252291 
        5.40357       0.0623363       0.0250422 
        5.41929       0.0637001       0.0248569 
        5.43502       0.0645055       0.0246734 
         5.4507       0.0657401       0.0244922 
        5.46639       0.0670099       0.0243128 
        5.48212       0.0679365       0.0241347 
        5.49786       0.0691966       0.0239582 
        5.51353       0.0708195       0.0237844 
        5.52921       0.0714438       0.0236121 
        5.54495       0.0729619        0.023441 
        5.56066       0.0741618       0.0232718 
        5.57637       0.0757886       0.0231043 
        5.59207       0.0773044       0.0229386 
        5.60778       0.0788692       0.0227745 
        5.62346       0.0801049       0.0226121 
        5.63916       0.0818785       0.0224512 
        5.65487        0.083273       0.0222918 
         5.6706       0.0846566       0.0221338 
        5.68633       0.0864178       0.0219772 
        5.70203       0.0875645       0.0218225 
        5.71773       0.0902607       0.0216692 
        5.73344         0.09172       0.0215174 
        5.74916       0.0939995       0.0213669 
        5.76486       0.0955439        0.021218 
        5.78054       0.0971951       0.0210708 
        5.79626        0.098847       0.0209245 
          5.812        0.101447       0.0207795 
         5.8277        0.103228       0.0206363 
        5.84339        0.105111       0.0204944 
        5.85911        0.107951       0.0203536 
        5.87484        0.109547       0.0202142 
        5.89053        0.112552       0.0200763 
        5.90623        0.114796       0.0199396 
        5.92195        0.117405        0.019804 
        5.93767        0.119908       0.0196697 
        5.95336        0.121966       0.0195369 
        5.96905        0.125019       0.0194054 
        5.98476        0.127522       0.0192748 
        6.00048        0.129851       0.0191455 
        6.01617        0.132524       0.0190175 
        6.03185        0.136012       0.0188908 
        6.04756        0.138625        0.018765 
        6.06331        0.141164         0.01864 
        6.07903        0.144924       0.0185165 
        6.09473        0.148199       0.0183942 
        6.11044        0.151045       0.0182728 
        6.12616        0.153814       0.0181526 
        6.14186        0.157439       0.0180336 
        6.15755        0.160274       0.0179157 
        6.17326        0.164758       0.0177987 
        6.18898        0.166545       0.0176827 
        6.20467        0.172118        0.017568 
        6.22036        0.174642       0.0174542 
         6.2361        0.178108       0.0173412 
         6.2518        0.182531       0.0172294 
        6.26748        0.185482       0.0171188 
        6.28319        0.189468       0.0170088 
        6.29893        0.194205       0.0168998 
        6.31463        0.197992       0.0167918 
        6.33033          0.2031       0.0166849 
        6.34604        0.206626       0.0165788 
        6.36177        0.209969       0.0164735 
        6.37747        0.215379       0.0163694 
