# k  (h/Mpc)    Pcb(k)  (Mpc/h)^3    Pcb_linear(k) (Mpc/h)^3   ShotnoiseSubtracted = true
      0.0200456         703.095         712.122 
      0.0350414         523.177         517.689 
      0.0492313         377.523         376.143 
      0.0637834          310.17         312.684 
      0.0800726         245.597          248.17 
       0.096163         182.521         180.069 
       0.111083         146.243         143.627 
       0.126058         126.682         127.283 
       0.142273         107.053         107.837 
       0.158546         85.6793         85.1685 
        0.17375         72.8876         71.7544 
       0.188953         65.4397          64.972 
       0.204907         56.6418          57.487 
       0.220756         49.0135         48.6374 
        0.23588         42.6986         42.3104 
         0.2514         38.7502         38.4385 
       0.267535         35.2802         34.7803 
       0.283568         31.0824         30.6715 
       0.299022         27.8808         27.3267 
       0.314451         25.9041         24.9748 
       0.330372         23.4524         22.9116 
       0.346141         21.3256         20.7957 
       0.361624         19.3772         18.9005 
       0.377134         17.7598         17.3914 
       0.392932         16.9181         16.0919 
       0.408854          15.289         14.8337 
       0.424564         14.4377         13.6724 
       0.440253         13.2121         12.6759 
       0.455999         12.1343         11.8094 
       0.471626         11.3578         11.0131 
        0.48727         10.8575         10.2682 
       0.502856         10.1691         9.59903 
       0.518488         9.36863         9.00195 
       0.534347         8.75514         8.44687 
       0.550082         8.37691         7.93507 
       0.565732         7.99092         7.46684 
       0.581496         7.49322         7.03799 
       0.597222         7.05672          6.6447 
       0.612804         6.65011         6.28305 
       0.628434         6.37653         5.94597 
       0.644267         6.06101         5.63083 
       0.660051         5.74065         5.34037 
       0.675724         5.41385         5.07217 
       0.691403         5.19634         4.82216 
       0.707174         4.94042          4.5876 
       0.722871         4.81493         4.36957 
        0.73838          4.4905         4.16804 
       0.754018         4.28933          3.9777 
       0.769845         4.06555         3.79718 
        0.78569          3.9556         3.62771 
       0.801365         3.78233         3.47027 
       0.817031         3.64582         3.32232 
       0.832809         3.45506          3.1821 
       0.848511         3.34722         3.05064 
       0.864097         3.22572         2.92754 
       0.879701         3.12896         2.81115 
       0.895507         2.97842         2.69975 
       0.911279         2.88034         2.59464 
        0.92691         2.79562         2.49602 
       0.942635         2.65804         2.40201 
       0.958396         2.57359         2.31266 
       0.974128         2.49576         2.22804 
       0.989692         2.39251         2.14851 
        1.00528         2.31994         2.07276 
        1.02113         2.25662         1.99949 
        1.03692         2.19402         1.93005 
        1.05264         2.09446         1.86423 
        1.06832         2.03887         1.80161 
        1.08405         1.96582          1.7417 
        1.09979         1.91885         1.68449 
        1.11537         1.85322         1.63043 
        1.13105         1.78328         1.57843 
        1.14679         1.74077          1.5285 
        1.16256         1.68449         1.48065 
        1.17828         1.65329         1.43501 
        1.19395         1.59304         1.39145 
         1.2097         1.54553         1.34949 
        1.22537         1.49342         1.30946 
          1.241         1.46072         1.27119 
        1.25666         1.43276         1.23436 
        1.27241         1.39042         1.19881 
        1.28819         1.33934         1.16461 
        1.30392         1.30722         1.13185 
        1.31957         1.28022          1.1005 
        1.33529         1.23061         1.07023 
        1.35108         1.20584         1.04098 
        1.36674         1.17137         1.01303 
         1.3824         1.15531        0.986141 
        1.39811         1.11971        0.960139 
        1.41389         1.09159        0.934978 
        1.42964         1.06387        0.910764 
        1.44531         1.04169        0.887528 
        1.46101         1.01004        0.865056 
        1.47667        0.992268        0.843431 
        1.49229        0.958339        0.822605 
        1.50793        0.938532         0.80246 
        1.52367        0.914655        0.782862 
        1.53953        0.892788        0.763789 
        1.55526        0.880637        0.745505 
        1.57092        0.865709        0.727896 
        1.58662        0.849598        0.710816 
        1.60235        0.821793        0.694252 
        1.61809        0.804572        0.678209 
        1.63369        0.781253        0.662816 
        1.64941        0.769729        0.647793 
        1.66519        0.756407        0.633181 
        1.68085        0.735333        0.619125 
        1.69652        0.720678        0.605493 
        1.71228        0.704043        0.592195 
        1.72806        0.690846        0.579286 
        1.74368        0.677477        0.566892 
        1.75933         0.66517        0.554837 
        1.77505        0.653605        0.543077 
        1.79081        0.632347        0.531637 
         1.8065        0.627345        0.520577 
        1.82218        0.609809        0.509841 
        1.83797        0.594714        0.499335 
        1.85367        0.589012        0.489184 
        1.86928        0.576639        0.479377 
        1.88497        0.561955        0.469785 
        1.90073        0.556336        0.460421 
        1.91647        0.541846        0.451321 
        1.93218        0.533322        0.442486 
        1.94787        0.523226        0.433901 
        1.96363        0.514573        0.425511 
        1.97935        0.503444         0.41736 
        1.99499        0.495331        0.409469 
        2.01064        0.486618         0.40177 
         2.0264          0.4743        0.394222 
        2.04216        0.467499        0.386871 
        2.05781        0.460612        0.379755 
        2.07353          0.4515        0.372792 
        2.08928        0.444587        0.365989 
        2.10499        0.435535        0.359374 
        2.12065        0.428295        0.352943 
        2.13633         0.42172        0.346664 
        2.15211        0.412617        0.340497 
        2.16785        0.407371        0.334497 
        2.18349        0.400719         0.32868 
        2.19916        0.393317        0.322989 
        2.21489        0.385747        0.317414 
        2.23063         0.37905        0.311968 
         2.2463        0.373914        0.306673 
        2.26194        0.368686        0.301515 
        2.27765        0.361571        0.296449 
        2.29341        0.355951        0.291486 
        2.30914        0.348423        0.286648 
        2.32486        0.343702        0.281922 
        2.34061        0.337228        0.277294 
        2.35635        0.332717        0.272775 
        2.37203        0.329691        0.268373 
        2.38768        0.323326        0.264076 
        2.40339        0.318053        0.259858 
        2.41914        0.313721        0.255723 
        2.43483        0.308108        0.251692 
         2.4505        0.303603        0.247755 
        2.46622        0.299319        0.243889 
        2.48195        0.293433        0.240105 
        2.49759        0.292393        0.236421 
        2.51328        0.285199        0.232806 
        2.52906        0.280713        0.229243 
        2.54479        0.276988        0.225768 
        2.56049        0.272226        0.222371 
        2.57618         0.26999        0.219048 
        2.59189        0.264389        0.215788 
        2.60758        0.262428        0.212599 
        2.62325        0.258238        0.209478 
        2.63898        0.255403        0.206409 
        2.65468        0.249431        0.203408 
        2.67044        0.246864        0.200455 
        2.68618         0.24353        0.197566 
        2.70184        0.240081        0.194746 
        2.71755        0.236026        0.191974 
        2.73329         0.23489        0.189252 
        2.74897        0.229543        0.186591 
        2.76462        0.227551        0.183988 
        2.78034         0.22371        0.181423 
        2.79607        0.221676        0.178905 
        2.81179        0.216861        0.176437 
        2.82749         0.21536        0.174019 
        2.84321        0.212646        0.171643 
        2.85893         0.20934        0.169312 
        2.87462        0.206258        0.167029 
        2.89033        0.203872        0.164786 
        2.90605        0.201489        0.162582 
        2.92176        0.199872        0.160419 
        2.93747        0.196131        0.158297 
        2.95318        0.193965        0.156213 
        2.96891        0.191734        0.154165 
        2.98456        0.189883        0.152163 
        3.00023         0.18683        0.150194 
        3.01596        0.184399        0.148253 
        3.03164        0.182027        0.146353 
        3.04738        0.180444         0.14448 
         3.0631        0.178258         0.14264 
        3.07883        0.175917        0.140833 
        3.09456        0.173863        0.139057 
        3.11026        0.171235        0.137314 
        3.12596         0.16895        0.135602 
        3.14163        0.167627        0.133922 
        3.15734        0.165953        0.132268 
        3.17308        0.163758        0.130637 
        3.18879        0.161768        0.129038 
        3.20447        0.159578        0.127468 
         3.2202        0.158493        0.125919 
         3.2359        0.156209        0.124399 
        3.25157        0.154062        0.122908 
        3.26729        0.153009        0.121437 
        3.28304        0.151361        0.119986 
        3.29877         0.14923        0.118562 
        3.31446        0.148263        0.117163 
        3.33014        0.146444        0.115789 
        3.34585        0.144216        0.114434 
        3.36158        0.143012        0.113099 
        3.37727        0.141996        0.111789 
        3.39294        0.140471        0.110502 
        3.40867        0.138515         0.10923 
        3.42439         0.13753        0.107978 
        3.44008        0.136252        0.106749 
        3.45578        0.134589        0.105538 
        3.47153        0.133547        0.104343 
        3.48724        0.132155        0.103169 
        3.50292        0.131164        0.102015 
        3.51859        0.129534         0.10088 
        3.53431        0.128096       0.0997584 
        3.55007        0.127055       0.0986512 
        3.56577        0.126278       0.0975651 
        3.58146        0.124721       0.0964957 
        3.59719        0.123483         0.09544 
        3.61292        0.122462       0.0944004 
        3.62859        0.121519       0.0933803 
        3.64429        0.119811       0.0923732 
        3.66003        0.119339       0.0913779 
        3.67578        0.118037       0.0903976 
        3.69146         0.11704       0.0894354 
        3.70712        0.115984        0.088489 
        3.72284        0.115292       0.0875527 
        3.73853        0.114313       0.0866316 
        3.75422        0.113009       0.0857234 
        3.76993        0.112082       0.0848274 
        3.78564         0.11126       0.0839446 
        3.80137        0.110635        0.083073 
        3.81707        0.108982       0.0822155 
        3.83279         0.10838       0.0813694 
        3.84853        0.107471       0.0805339 
        3.86424        0.106513       0.0797117 
        3.87992        0.105642       0.0789022 
        3.89561        0.104851       0.0781039 
        3.91134        0.103841       0.0773151 
        3.92704        0.102908        0.076538 
        3.94273        0.102037       0.0757724 
        3.95845        0.100925       0.0750158 
        3.97418        0.100359       0.0742694 
        3.98988       0.0988946       0.0735342 
        4.00554       0.0983896       0.0728109 
        4.02125        0.097243       0.0720953 
        4.03698       0.0957872       0.0713882 
        4.05268       0.0950984       0.0706921 
        4.06839        0.093638       0.0700048 
         4.0841       0.0924177       0.0693269 
        4.09983       0.0913637        0.068657 
        4.11555       0.0900963       0.0679962 
        4.13124       0.0890384       0.0673459 
        4.14693       0.0879707       0.0667036 
        4.16266       0.0868521       0.0660682 
        4.17839       0.0858901       0.0654414 
        4.19408       0.0847367       0.0648241 
        4.20977       0.0839655       0.0642146 
        4.22551       0.0831626       0.0636114 
        4.24123       0.0820758       0.0630166 
        4.25691       0.0813149        0.062431 
        4.27259       0.0805037       0.0618527 
        4.28831       0.0800262       0.0612805 
        4.30404       0.0786898        0.060715 
        4.31974       0.0782391       0.0601579 
        4.33543        0.077534       0.0596081 
        4.35116       0.0770286       0.0590638 
        4.36688       0.0762107       0.0585265 
        4.38255       0.0756607       0.0579979 
        4.39825       0.0752543       0.0574747 
        4.41398       0.0745468       0.0569569 
         4.4297       0.0741524       0.0564461 
        4.44541       0.0735759       0.0559415 
        4.46111       0.0730278       0.0554436 
        4.47683         0.07257       0.0549513 
        4.49251       0.0722217        0.054466 
        4.50819       0.0720122       0.0539867 
         4.5239       0.0714592       0.0535124 
        4.53962        0.071109       0.0530433 
        4.55535       0.0710364       0.0525796 
        4.57106       0.0706068        0.052122 
        4.58678       0.0704271       0.0516698 
         4.6025       0.0702246       0.0512229 
        4.61821       0.0700991       0.0507813 
        4.63391        0.069894       0.0503455 
         4.6496       0.0697185        0.049915 
        4.66532        0.069632       0.0494889 
        4.68103       0.0695882       0.0490679 
        4.69673       0.0694351       0.0486522 
        4.71241       0.0697393       0.0482417 
        4.72811       0.0694541       0.0478353 
        4.74384       0.0692829       0.0474331 
        4.75955       0.0693783       0.0470361 
        4.77525       0.0696059       0.0466438 
        4.79096       0.0696419       0.0462555 
        4.80669       0.0694575       0.0458715 
         4.8224       0.0698579       0.0454923 
        4.83809       0.0699409       0.0451177 
        4.85379       0.0700954       0.0447471 
         4.8695        0.070367       0.0443804 
        4.88521       0.0705807        0.044018 
        4.90093       0.0710693       0.0436595 
        4.91663       0.0711761       0.0433054 
        4.93234       0.0713615       0.0429548 
        4.94807       0.0717256       0.0426079 
        4.96377       0.0721375       0.0422654 
        4.97943       0.0728664       0.0419274 
        4.99514       0.0730011       0.0415922 
        5.01086       0.0732228       0.0412605 
        5.02654       0.0740724       0.0409332 
        5.04227       0.0744736       0.0406085 
          5.058       0.0747907       0.0402871 
        5.07371       0.0754459       0.0399699 
        5.08942       0.0762918        0.039656 
        5.10513       0.0769067       0.0393455 
        5.12084       0.0774474       0.0390381 
        5.13656       0.0780049       0.0387341 
        5.15225       0.0789614       0.0384338 
        5.16796       0.0796852       0.0381363 
        5.18369       0.0803457       0.0378416 
         5.1994       0.0811078       0.0375505 
        5.21509       0.0820633       0.0372628 
        5.23079       0.0828119       0.0369777 
        5.24649         0.08379       0.0366959 
        5.26217       0.0847621       0.0364172 
        5.27788        0.085758       0.0361409 
        5.29359        0.086764       0.0358675 
        5.30933       0.0877188       0.0355966 
        5.32504       0.0888736       0.0353288 
        5.34073       0.0896345       0.0350642 
        5.35646       0.0910858       0.0348017 
        5.37218       0.0922793       0.0345418 
        5.38789       0.0935195        0.034285 
        5.40357       0.0944311       0.0340311 
        5.41929       0.0957014       0.0337792 
        5.43502       0.0974759       0.0335299 
         5.4507        0.098867       0.0332836 
        5.46639        0.100011       0.0330398 
        5.48212        0.101342       0.0327979 
        5.49786        0.103103        0.032558 
        5.51353         0.10528       0.0323218 
        5.52921        0.105775       0.0320877 
        5.54495         0.10833       0.0318552 
        5.56066        0.109661       0.0316253 
        5.57637        0.111248       0.0313976 
        5.59207        0.112446       0.0311724 
        5.60778        0.114706       0.0309493 
        5.62346        0.116301       0.0307288 
        5.63916        0.118267       0.0305101 
        5.65487        0.120723       0.0302935 
         5.6706         0.12184       0.0300787 
        5.68633        0.124462       0.0298659 
        5.70203        0.126531       0.0296556 
        5.71773         0.12876       0.0294474 
        5.73344        0.131195       0.0292411 
        5.74916         0.13363       0.0290365 
        5.76486        0.135598       0.0288342 
        5.78054        0.137541       0.0286341 
        5.79626        0.140543       0.0284353 
          5.812        0.142349       0.0282383 
         5.8277        0.144867       0.0280437 
        5.84339        0.147623       0.0278509 
        5.85911        0.149792       0.0276595 
        5.87484        0.152492         0.02747 
        5.89053        0.154723       0.0272827 
        5.90623        0.159222       0.0270969 
        5.92195         0.16064       0.0269126 
        5.93767        0.163532       0.0267302 
        5.95336         0.16664       0.0265497 
        5.96905        0.169898       0.0263709 
        5.98476        0.171923       0.0261935 
        6.00048        0.175706       0.0260177 
        6.01617        0.178568       0.0258438 
        6.03185        0.181608       0.0256717 
        6.04756        0.184387       0.0255007 
        6.06331        0.188989       0.0253309 
        6.07903        0.192389        0.025163 
        6.09473        0.194408       0.0249967 
        6.11044        0.200051       0.0248319 
        6.12616        0.200569       0.0246685 
        6.14186        0.205139       0.0245068 
        6.15755        0.209222       0.0243465 
        6.17326        0.213242       0.0241875 
        6.18898        0.215969       0.0240299 
        6.20467        0.219643        0.023874 
        6.22036        0.222884       0.0237194 
         6.2361        0.225217       0.0235659 
         6.2518        0.230495       0.0234139 
        6.26748        0.235171       0.0232636 
        6.28319        0.239683       0.0231142 
        6.29893        0.243793       0.0229659 
        6.31463        0.247513       0.0228193 
        6.33033        0.250151       0.0226739 
        6.34604        0.255546       0.0225297 
        6.36177        0.259108       0.0223867 
        6.37747        0.263101       0.0222451 
