# k  (h/Mpc)    Pcb(k)  (Mpc/h)^3    Pcb_linear(k) (Mpc/h)^3   ShotnoiseSubtracted = true
      0.0200456          9987.2         10132.4 
      0.0350414         7551.65          7365.9 
      0.0492313         5312.17         5351.92 
      0.0637834         4303.27            4449 
      0.0800726         3392.36         3531.06 
       0.096163         2646.65         2562.09 
       0.111083         2148.42         2043.59 
       0.126058         1795.97         1811.04 
       0.142273         1543.96         1534.35 
       0.158546          1266.3         1211.81 
        0.17375         1103.85         1020.95 
       0.188953         1017.79         924.449 
       0.204907         867.982         817.949 
       0.220756         776.686         692.034 
        0.23588         688.768          602.01 
         0.2514         616.741          546.92 
       0.267535         596.001         494.868 
       0.283568         519.844         436.408 
       0.299022         493.827         388.816 
       0.314451         493.558         355.352 
       0.330372         424.535         325.995 
       0.346141         393.415         295.891 
       0.361624          374.49         268.924 
       0.377134         347.612         247.453 
       0.392932         338.005         228.963 
       0.408854         320.673          211.06 
       0.424564         308.638         194.537 
       0.440253         278.544         180.358 
       0.455999         265.431         168.029 
       0.471626         263.679         156.699 
        0.48727         251.282           146.1 
       0.502856         229.616         136.579 
       0.518488         229.917         128.084 
       0.534347         213.614         120.186 
       0.550082         208.457         112.904 
       0.565732         206.319         106.241 
       0.581496         192.747          100.14 
       0.597222          188.27         94.5436 
       0.612804         182.557          89.398 
       0.628434         176.639         84.6018 
       0.644267         168.259         80.1178 
       0.660051         164.311         75.9851 
       0.675724         162.556          72.169 
       0.691403         158.283         68.6118 
       0.707174          152.82         65.2743 
       0.722871         150.369         62.1721 
        0.73838          148.32         59.3047 
       0.754018         139.402         56.5964 
       0.769845          139.18         54.0279 
        0.78569         135.463         51.6166 
       0.801365          131.35         49.3765 
       0.817031          127.69         47.2714 
       0.832809         125.526         45.2762 
       0.848511         122.543         43.4057 
       0.864097         120.393         41.6543 
       0.879701         118.683         39.9983 
       0.895507          114.94         38.4131 
       0.911279         112.435         36.9176 
        0.92691          109.94         35.5145 
       0.942635         107.714         34.1768 
       0.958396          106.68         32.9056 
       0.974128          104.32         31.7016 
       0.989692         101.957         30.5699 
        1.00528         100.489         29.4921 
        1.02113         97.8499         28.4496 
        1.03692          97.589         27.4615 
        1.05264         96.2498         26.5251 
        1.06832         93.1017          25.634 
        1.08405         92.3506         24.7816 
        1.09979         91.5689         23.9677 
        1.11537         89.0571         23.1985 
        1.13105         87.9292         22.4586 
        1.14679         86.4931         21.7482 
        1.16256         84.7416         21.0673 
        1.17828         84.0193         20.4179 
        1.19395         81.7319         19.7982 
         1.2097         81.7104         19.2011 
        1.22537         79.7392         18.6316 
          1.241         79.5311          18.087 
        1.25666         76.7208         17.5629 
        1.27241         76.3496         17.0572 
        1.28819         75.7675         16.5706 
        1.30392         74.2221         16.1045 
        1.31957         73.6148         15.6584 
        1.33529         72.5444         15.2277 
        1.35108         71.9675         14.8115 
        1.36674         70.7556         14.4138 
         1.3824         70.0426         14.0312 
        1.39811         68.4207         13.6613 
        1.41389         67.4492         13.3033 
        1.42964         66.7508         12.9587 
        1.44531         66.1066         12.6281 
        1.46101          65.447         12.3084 
        1.47667         64.4118         12.0007 
        1.49229         63.6274         11.7044 
        1.50793         62.8797         11.4177 
        1.52367         62.3803         11.1389 
        1.53953         61.3371         10.8675 
        1.55526         60.3453         10.6074 
        1.57092         60.1932         10.3568 
        1.58662          59.286         10.1138 
        1.60235         58.4856         9.87812 
        1.61809         57.4724         9.64985 
        1.63369         56.8348         9.43083 
        1.64941         56.5488         9.21707 
        1.66519         55.2167         9.00917 
        1.68085         54.9677         8.80918 
        1.69652         53.8101         8.61521 
        1.71228         53.5844         8.42599 
        1.72806         52.9599         8.24232 
        1.74368         52.2208         8.06598 
        1.75933         51.8487         7.89446 
        1.77505         51.3091         7.72712 
        1.79081         50.5806         7.56436 
         1.8065          50.136         7.40698 
        1.82218         48.7977         7.25424 
        1.83797         48.5189         7.10476 
        1.85367         48.1757         6.96032 
        1.86928          47.804         6.82077 
        1.88497         46.9099          6.6843 
        1.90073         46.3239         6.55106 
        1.91647         46.1785         6.42158 
        1.93218         45.8807         6.29588 
        1.94787          45.074         6.17373 
        1.96363         44.3719         6.05435 
        1.97935         44.0459         5.93837 
        1.99499         43.5145         5.82609 
        2.01064         42.9501         5.71656 
         2.0264         42.8037         5.60915 
        2.04216          42.133         5.50457 
        2.05781         41.6426         5.40331 
        2.07353         40.9844         5.30424 
        2.08928         40.9442         5.20745 
        2.10499         40.5171         5.11333 
        2.12065         39.9544         5.02182 
        2.13633         39.7397         4.93248 
        2.15211         39.0759         4.84473 
        2.16785          38.491         4.75937 
        2.18349         38.1671          4.6766 
        2.19916         37.7968         4.59563 
        2.21489         37.5656         4.51631 
        2.23063         37.0607         4.43881 
         2.2463          36.813         4.36348 
        2.26194         36.2816         4.29008 
        2.27765          35.875           4.218 
        2.29341         35.4719         4.14739 
        2.30914         35.1453         4.07855 
        2.32486         34.6141          4.0113 
        2.34061         34.4241         3.94546 
        2.35635         34.0929         3.88116 
        2.37203         33.7823         3.81852 
        2.38768         33.4919         3.75739 
        2.40339         33.2225         3.69738 
        2.41914         32.8438         3.63853 
        2.43483         32.5073         3.58118 
         2.4505         32.1828         3.52517 
        2.46622         31.7839         3.47015 
        2.48195         31.6084         3.41631 
        2.49759         31.1064          3.3639 
        2.51328         30.8167         3.31246 
        2.52906         30.6412         3.26176 
        2.54479         30.2897         3.21232 
        2.56049         30.1332         3.16399 
        2.57618         29.7197         3.11671 
        2.59189         29.3975         3.07032 
        2.60758         29.1143         3.02494 
        2.62325         28.8791         2.98054 
        2.63898         28.6926         2.93688 
        2.65468         28.2529         2.89418 
        2.67044         28.0652         2.85215 
        2.68618         27.8106         2.81105 
        2.70184         27.4744         2.77093 
        2.71755         27.2384         2.73149 
        2.73329         26.9579         2.69275 
        2.74897         26.6907          2.6549 
        2.76462         26.4975         2.61786 
        2.78034         26.1569         2.58137 
        2.79607          25.942         2.54553 
        2.81179         25.7123         2.51042 
        2.82749         25.4478         2.47601 
        2.84321         25.2035         2.44221 
        2.85893         25.0224         2.40905 
        2.87462         24.7896         2.37656 
        2.89033         24.5391         2.34464 
        2.90605         24.2803         2.31328 
        2.92176          24.044         2.28251 
        2.93747         23.8404         2.25232 
        2.95318         23.7333         2.22266 
        2.96891         23.4043         2.19353 
        2.98456         23.2187         2.16504 
        3.00023         22.9012         2.13702 
        3.01596         22.6113         2.10941 
        3.03164         22.4956         2.08237 
        3.04738         22.3525         2.05572 
         3.0631         22.1251         2.02955 
        3.07883          21.859         2.00383 
        3.09456          21.662         1.97856 
        3.11026         21.4249         1.95377 
        3.12596         21.1999          1.9294 
        3.14163         21.0524         1.90551 
        3.15734         20.9026         1.88196 
        3.17308         20.6559         1.85875 
        3.18879         20.4847         1.83601 
        3.20447         20.3682         1.81367 
         3.2202         20.0953         1.79164 
         3.2359         19.8957         1.77001 
        3.25157         19.7203         1.74879 
        3.26729         19.5981         1.72785 
        3.28304         19.4175         1.70722 
        3.29877         19.2541         1.68694 
        3.31446         19.0675         1.66705 
        3.33014         18.8357         1.64749 
        3.34585         18.7783         1.62821 
        3.36158         18.5002         1.60922 
        3.37727         18.3936         1.59058 
        3.39294          18.246         1.57226 
        3.40867         18.0675         1.55416 
        3.42439          17.861         1.53636 
        3.44008         17.7063         1.51887 
        3.45578         17.5511         1.50164 
        3.47153         17.4213         1.48464 
        3.48724         17.2813         1.46793 
        3.50292         17.1157         1.45152 
        3.51859         16.9759         1.43536 
        3.53431         16.8091          1.4194 
        3.55007         16.6421         1.40365 
        3.56577         16.5541          1.3882 
        3.58146         16.3609         1.37298 
        3.59719         16.2356         1.35796 
        3.61292         16.1016         1.34317 
        3.62859         15.8982         1.32865 
        3.64429         15.7895         1.31432 
        3.66003          15.705         1.30016 
        3.67578         15.6099         1.28622 
        3.69146         15.4109         1.27252 
        3.70712         15.2826         1.25906 
        3.72284         15.1357         1.24574 
        3.73853          15.061         1.23263 
        3.75422         14.8332         1.21971 
        3.76993         14.7556         1.20696 
        3.78564         14.6248          1.1944 
        3.80137         14.4884           1.182 
        3.81707         14.3371          1.1698 
        3.83279         14.2901         1.15776 
        3.84853          14.126         1.14587 
        3.86424         13.9736         1.13417 
        3.87992         13.9177         1.12265 
        3.89561         13.7693          1.1113 
        3.91134         13.6807         1.10007 
        3.92704         13.5507         1.08901 
        3.94273         13.4365         1.07812 
        3.95845         13.3269         1.06736 
        3.97418         13.1843         1.05674 
        3.98988         13.1037         1.04628 
        4.00554         12.9761         1.03598 
        4.02125         12.8755          1.0258 
        4.03698         12.8026         1.01574 
        4.05268         12.6662         1.00584 
        4.06839         12.5353        0.996059 
         4.0841         12.4633        0.986413 
        4.09983         12.3215        0.976881 
        4.11555         12.2402        0.967479 
        4.13124         12.1285        0.958227 
        4.14693         12.0476        0.949087 
        4.16266         11.9338        0.940046 
        4.17839         11.8265        0.931128 
        4.19408         11.7642        0.922345 
        4.20977         11.6508        0.913672 
        4.22551         11.5615         0.90509 
        4.24123         11.4797        0.896627 
        4.25691         11.3587        0.888295 
        4.27259         11.2632        0.880066 
        4.28831         11.2094        0.871925 
        4.30404         11.0916        0.863879 
        4.31974         11.0164        0.855952 
        4.33543         10.8829        0.848129 
        4.35116         10.8475        0.840385 
        4.36688          10.726         0.83274 
        4.38255          10.626        0.825219 
        4.39825         10.5672        0.817775 
        4.41398         10.4935        0.810407 
         4.4297         10.3876        0.803138 
        4.44541         10.3282         0.79596 
        4.46111         10.2282        0.788874 
        4.47683         10.1333         0.78187 
        4.49251         10.0583        0.774965 
        4.50819         9.98277        0.768145 
         4.5239         9.92475        0.761398 
        4.53962         9.82487        0.754723 
        4.55535         9.75378        0.748124 
        4.57106         9.70248        0.741614 
        4.58678         9.61332         0.73518 
         4.6025          9.5474        0.728821 
        4.61821         9.47902        0.722538 
        4.63391         9.37643        0.716338 
         4.6496         9.29952        0.710212 
        4.66532         9.25465        0.704149 
        4.68103           9.149        0.698159 
        4.69673         9.09212        0.692244 
        4.71241         9.02666        0.686404 
        4.72811          8.9522        0.680621 
        4.74384         8.90868        0.674898 
        4.75955         8.81976        0.669249 
        4.77525         8.75221        0.663668 
        4.79096          8.6965        0.658143 
        4.80669         8.61309        0.652679 
         4.8224         8.55995        0.647283 
        4.83809         8.49128        0.641954 
        4.85379         8.44284        0.636681 
         4.8695         8.36845        0.631464 
        4.88521          8.2884        0.626307 
        4.90093         8.25935        0.621206 
        4.91663         8.17278        0.616168 
        4.93234         8.12319        0.611179 
        4.94807          8.0647        0.606243 
        4.96377         8.00179         0.60137 
        4.97943         7.93812        0.596561 
        4.99514         7.88511        0.591792 
        5.01086         7.83256        0.587071 
        5.02654         7.76185        0.582415 
        5.04227         7.69774        0.577794 
          5.058         7.65543        0.573222 
        5.07371         7.61529        0.568709 
        5.08942         7.52279        0.564243 
        5.10513         7.47044        0.559824 
        5.12084         7.41772        0.555451 
        5.13656         7.37566        0.551125 
        5.15225         7.31821        0.546853 
        5.16796         7.26072        0.542619 
        5.18369         7.21745        0.538426 
         5.1994         7.17468        0.534285 
        5.21509         7.11412        0.530191 
        5.23079         7.03956        0.526135 
        5.24649          7.0155        0.522125 
        5.26217         6.96475        0.518159 
        5.27788         6.91093        0.514229 
        5.29359         6.86119        0.510339 
        5.30933         6.79216        0.506483 
        5.32504         6.76568        0.502674 
        5.34073         6.71047        0.498908 
        5.35646          6.6771        0.495173 
        5.37218         6.62866        0.491475 
        5.38789         6.57425        0.487822 
        5.40357          6.5246        0.484209 
        5.41929         6.49687        0.480625 
        5.43502         6.43796        0.477077 
         5.4507         6.39316        0.473573 
        5.46639         6.34498        0.470104 
        5.48212         6.29888        0.466662 
        5.49786         6.26007         0.46325 
        5.51353         6.22704        0.459889 
        5.52921           6.174        0.456557 
        5.54495         6.13151        0.453249 
        5.56066         6.09563        0.449978 
        5.57637         6.04812        0.446739 
        5.59207         5.99204        0.443534 
        5.60778         5.97809         0.44036 
        5.62346         5.92662        0.437222 
        5.63916         5.88867        0.434111 
        5.65487         5.83845        0.431028 
         5.6706         5.80902        0.427972 
        5.68633         5.76988        0.424945 
        5.70203          5.7326        0.421953 
        5.71773         5.68937         0.41899 
        5.73344         5.66136        0.416054 
        5.74916         5.61483        0.413144 
        5.76486         5.58404        0.410265 
        5.78054         5.53435        0.407418 
        5.79626         5.50799         0.40459 
          5.812         5.46632        0.401786 
         5.8277         5.42786        0.399017 
        5.84339         5.39362        0.396274 
        5.85911         5.35597        0.393552 
        5.87484         5.32753        0.390855 
        5.89053         5.28082        0.388189 
        5.90623         5.25958        0.385547 
        5.92195         5.22828        0.382925 
        5.93767         5.18252        0.380328 
        5.95336         5.15049         0.37776 
        5.96905          5.1112        0.375216 
        5.98476          5.0894        0.372693 
        6.00048         5.05162        0.370191 
        6.01617         5.02123        0.367716 
        6.03185         4.99736        0.365267 
        6.04756         4.96825        0.362834 
        6.06331         4.91826        0.360418 
        6.07903         4.88704        0.358029 
        6.09473         4.85821        0.355664 
        6.11044         4.82186        0.353318 
        6.12616         4.79587        0.350994 
        6.14186         4.76498        0.348693 
        6.15755         4.73669        0.346412 
        6.17326         4.71031        0.344151 
        6.18898          4.6855        0.341908 
        6.20467         4.64987        0.339689 
        6.22036         4.62171         0.33749 
         6.2361         4.58934        0.335305 
         6.2518          4.5622        0.333143 
        6.26748         4.53989        0.331004 
        6.28319         4.50923        0.328878 
        6.29893         4.47468        0.326769 
        6.31463         4.45523        0.324682 
        6.33033         4.42382        0.322614 
        6.34604          4.3963        0.320563 
        6.36177         4.36971        0.318527 
        6.37747         4.34658        0.316513 
