# k  (h/Mpc)    Pcb(k)  (Mpc/h)^3    Pcb_linear(k) (Mpc/h)^3   ShotnoiseSubtracted = true
      0.0200456         17077.5         17449.9 
      0.0350414         12184.7         12685.5 
      0.0492313         9069.55         9217.04 
      0.0637834         7813.78         7662.04 
      0.0800726          6172.4         6081.17 
       0.096163         4289.66         4412.42 
       0.111083         3430.99         3519.46 
       0.126058         3163.52         3118.96 
       0.142273         2737.27         2642.44 
       0.158546         2352.99         2086.98 
        0.17375         1880.76         1758.28 
       0.188953         1831.91         1592.08 
       0.204907         1721.93         1408.67 
       0.220756         1482.23         1191.82 
        0.23588         1315.88         1036.78 
         0.2514         1144.25         941.901 
       0.267535         1135.36         852.259 
       0.283568         1029.15         751.578 
       0.299022         968.754         669.617 
       0.314451         921.255         611.984 
       0.330372         847.504         561.427 
       0.346141         791.043          509.58 
       0.361624         760.403         463.139 
       0.377134         705.967         426.161 
       0.392932         678.906         394.318 
       0.408854         658.505         363.485 
       0.424564         614.997          335.03 
       0.440253          603.88         310.611 
       0.455999         572.818         289.379 
       0.471626         546.177         269.866 
        0.48727         525.589         251.613 
       0.502856         511.082         235.215 
       0.518488         505.356         220.584 
       0.534347         472.014         206.983 
       0.550082         453.915         194.442 
       0.565732         453.295         182.968 
       0.581496         425.996          172.46 
       0.597222          419.55         162.822 
       0.612804         408.328          153.96 
       0.628434         393.928         145.701 
       0.644267          383.24         137.978 
       0.660051         372.377         130.861 
       0.675724         368.173         124.289 
       0.691403         356.407         118.163 
       0.707174         344.034         112.415 
       0.722871         339.754         107.072 
        0.73838         334.891         102.134 
       0.754018          325.24           97.47 
       0.769845         316.031         93.0465 
        0.78569         314.549         88.8938 
       0.801365         304.234         85.0359 
       0.817031         294.547         81.4105 
       0.832809         292.747         77.9744 
       0.848511         284.698          74.753 
       0.864097         279.648         71.7367 
       0.879701         275.735         68.8847 
       0.895507         270.197         66.1548 
       0.911279         261.244         63.5792 
        0.92691         260.163         61.1627 
       0.942635          253.79         58.8591 
       0.958396         249.735         56.6697 
       0.974128         245.143         54.5962 
       0.989692         240.867         52.6473 
        1.00528         237.178         50.7911 
        1.02113         234.774         48.9957 
        1.03692         229.035          47.294 
        1.05264         225.335         45.6814 
        1.06832         220.843         44.1467 
        1.08405         216.867         42.6787 
        1.09979         213.639         41.2769 
        1.11537          210.03         39.9522 
        1.13105         205.124          38.678 
        1.14679         204.997         37.4546 
        1.16256         200.978          36.282 
        1.17828         197.334         35.1636 
        1.19395         193.934         34.0963 
         1.2097         193.659          33.068 
        1.22537         188.923         32.0872 
          1.241         187.497         31.1493 
        1.25666         183.461         30.2467 
        1.27241         180.734         29.3758 
        1.28819         178.576         28.5378 
        1.30392          174.76          27.735 
        1.31957         174.823         26.9668 
        1.33529           170.2          26.225 
        1.35108         167.635         25.5082 
        1.36674         166.663         24.8234 
         1.3824         164.101         24.1645 
        1.39811         163.216         23.5273 
        1.41389         159.563         22.9108 
        1.42964         157.056         22.3174 
        1.44531         154.776         21.7481 
        1.46101         153.201         21.1974 
        1.47667         150.208         20.6675 
        1.49229         148.312         20.1572 
        1.50793         146.656         19.6635 
        1.52367         145.361         19.1833 
        1.53953         142.279         18.7159 
        1.55526         140.343         18.2679 
        1.57092         138.919         17.8364 
        1.58662         136.783         17.4179 
        1.60235         135.133          17.012 
        1.61809         133.614         16.6189 
        1.63369         131.419         16.2417 
        1.64941         129.493         15.8736 
        1.66519         127.844         15.5155 
        1.68085         126.777         15.1711 
        1.69652         124.369          14.837 
        1.71228         122.989         14.5112 
        1.72806         121.499         14.1949 
        1.74368         120.503         13.8912 
        1.75933         118.478         13.5958 
        1.77505         116.934         13.3076 
        1.79081         115.999         13.0273 
         1.8065         114.387         12.7563 
        1.82218         112.189         12.4932 
        1.83797         110.675         12.2358 
        1.85367         109.763          11.987 
        1.86928         108.157         11.7467 
        1.88497         106.099         11.5117 
        1.90073         105.356         11.2822 
        1.91647         104.022         11.0592 
        1.93218         102.784         10.8427 
        1.94787         101.474         10.6324 
        1.96363         100.254         10.4268 
        1.97935          98.448          10.227 
        1.99499         97.6788         10.0337 
        2.01064         96.5045         9.84501 
         2.0264         95.0476         9.66004 
        2.04216         94.3237         9.47992 
        2.05781           93.02         9.30554 
        2.07353         91.8137         9.13493 
        2.08928         90.4564         8.96822 
        2.10499          88.989         8.80613 
        2.12065         88.6046         8.64854 
        2.13633         87.6583         8.49467 
        2.15211         86.4574         8.34356 
        2.16785         84.9084         8.19655 
        2.18349         83.8951           8.054 
        2.19916         83.1285         7.91456 
        2.21489         82.1002         7.77795 
        2.23063         80.8271         7.64448 
         2.2463         80.0397         7.51474 
        2.26194         79.8365         7.38835 
        2.27765         78.1643         7.26421 
        2.29341         77.3482         7.14261 
        2.30914          76.305         7.02404 
        2.32486         75.6337         6.90823 
        2.34061         74.7233         6.79485 
        2.35635          73.345         6.68411 
        2.37203         72.4865         6.57622 
        2.38768         71.8105         6.47094 
        2.40339         71.0236         6.36759 
        2.41914         70.0252         6.26626 
        2.43483         69.6625         6.16749 
         2.4505         68.5919         6.07101 
        2.46622         67.8561         5.97627 
        2.48195         67.0389         5.88355 
        2.49759         66.2819         5.79329 
        2.51328         65.5565         5.70469 
        2.52906         64.8841         5.61738 
        2.54479         64.2075         5.53223 
        2.56049         63.1871         5.44901 
        2.57618         62.6199         5.36757 
        2.59189         61.6322         5.28768 
        2.60758         61.0052         5.20954 
        2.62325          60.407         5.13307 
        2.63898         59.7175         5.05787 
        2.65468         59.1465         4.98434 
        2.67044         58.2882         4.91195 
        2.68618         57.8933         4.84117 
        2.70184         57.4671         4.77207 
        2.71755         56.7634         4.70415 
        2.73329         55.8767         4.63744 
        2.74897         55.4419         4.57225 
        2.76462         54.6854         4.50845 
        2.78034          53.973         4.44561 
        2.79607         53.4697          4.3839 
        2.81179         52.8873         4.32343 
        2.82749         52.3414         4.26417 
        2.84321         51.8319         4.20596 
        2.85893         51.1627         4.14885 
        2.87462         50.6137         4.09289 
        2.89033         50.0433         4.03792 
        2.90605         49.4007         3.98391 
        2.92176         49.0025         3.93092 
        2.93747         48.5401         3.87892 
        2.95318         47.8345         3.82785 
        2.96891         47.1759         3.77767 
        2.98456         46.8981         3.72862 
        3.00023         46.1619         3.68037 
        3.01596         45.8369         3.63282 
        3.03164         45.3019         3.58624 
        3.04738          44.895         3.54035 
         3.0631          44.447         3.49527 
        3.07883          43.973         3.45098 
        3.09456         43.5734         3.40746 
        3.11026         43.0237         3.36476 
        3.12596         42.6472          3.3228 
        3.14163         42.0595         3.28165 
        3.15734         41.6739          3.2411 
        3.17308         41.3842         3.20113 
        3.18879         40.9504         3.16195 
        3.20447         40.2724         3.12349 
         3.2202         40.0896         3.08554 
         3.2359         39.6074         3.04829 
        3.25157         39.3411         3.01175 
        3.26729         38.7968         2.97569 
        3.28304         38.3124         2.94015 
        3.29877         37.9781         2.90524 
        3.31446         37.6249         2.87098 
        3.33014         37.2426         2.83729 
        3.34585         37.0255          2.8041 
        3.36158          36.619         2.77138 
        3.37727          36.111         2.73929 
        3.39294         35.7929         2.70774 
        3.40867         35.3899         2.67657 
        3.42439         35.0905         2.64591 
        3.44008         34.7507         2.61579 
        3.45578         34.3516         2.58611 
        3.47153         34.0543         2.55683 
        3.48724         33.7281         2.52806 
        3.50292         33.4439         2.49979 
        3.51859         32.9476         2.47197 
        3.53431         32.7043         2.44449 
        3.55007         32.4105         2.41736 
        3.56577         32.1647         2.39074 
        3.58146         31.7889         2.36454 
        3.59719         31.4891         2.33867 
        3.61292         31.2308          2.3132 
        3.62859         30.8914          2.2882 
        3.64429         30.5976         2.26352 
        3.66003          30.308         2.23913 
        3.67578         29.9823         2.21511 
        3.69146         29.7868         2.19153 
        3.70712         29.4358         2.16834 
        3.72284         29.2541          2.1454 
        3.73853         28.9699         2.12283 
        3.75422         28.6929         2.10057 
        3.76993         28.4147         2.07862 
        3.78564         28.1702         2.05699 
        3.80137         27.8387         2.03563 
        3.81707         27.5889         2.01462 
        3.83279         27.3665         1.99388 
        3.84853         27.1893         1.97341 
        3.86424         26.8753         1.95326 
        3.87992         26.6865         1.93343 
        3.89561         26.4118         1.91387 
        3.91134         26.1348         1.89453 
        3.92704          25.927         1.87549 
        3.94273         25.7362         1.85673 
        3.95845         25.3052         1.83819 
        3.97418         25.2329          1.8199 
        3.98988         25.0119         1.80189 
        4.00554          24.736         1.78416 
        4.02125         24.6018         1.76663 
        4.03698         24.2223          1.7493 
        4.05268         24.1617         1.73225 
        4.06839         23.8965          1.7154 
         4.0841         23.6918         1.69879 
        4.09983         23.4838         1.68238 
        4.11555         23.2898         1.66619 
        4.13124          23.036         1.65025 
        4.14693         22.8837         1.63451 
        4.16266         22.5958         1.61894 
        4.17839         22.3906         1.60358 
        4.19408         22.2612         1.58846 
        4.20977         22.0511         1.57352 
        4.22551          21.887         1.55874 
        4.24123         21.6236         1.54416 
        4.25691          21.512         1.52982 
        4.27259         21.2907         1.51564 
        4.28831         21.1073         1.50162 
        4.30404         20.8795         1.48777 
        4.31974         20.7906         1.47411 
        4.33543         20.5282         1.46064 
        4.35116         20.3889          1.4473 
        4.36688         20.2089         1.43414 
        4.38255         20.0791         1.42119 
        4.39825         19.8781         1.40837 
        4.41398          19.734         1.39568 
         4.4297         19.5868         1.38316 
        4.44541          19.416          1.3708 
        4.46111         19.2705         1.35859 
        4.47683         19.0423         1.34653 
        4.49251         18.9506         1.33464 
        4.50819         18.7737         1.32289 
         4.5239         18.6013         1.31127 
        4.53962          18.489         1.29978 
        4.55535         18.3188         1.28841 
        4.57106         18.1959          1.2772 
        4.58678         18.0129         1.26612 
         4.6025         17.8717         1.25517 
        4.61821         17.7204         1.24435 
        4.63391         17.5755         1.23367 
         4.6496           17.41         1.22312 
        4.66532         17.2761         1.21268 
        4.68103         17.1296         1.20236 
        4.69673         16.9987         1.19218 
        4.71241         16.8782         1.18212 
        4.72811         16.7385         1.17216 
        4.74384         16.5905          1.1623 
        4.75955         16.4769         1.15258 
        4.77525         16.3505         1.14296 
        4.79096         16.2212         1.13345 
        4.80669         16.0997         1.12404 
         4.8224         15.9537         1.11475 
        4.83809         15.8171         1.10557 
        4.85379         15.7138         1.09649 
         4.8695         15.5963          1.0875 
        4.88521         15.4788         1.07862 
        4.90093         15.3438         1.06984 
        4.91663         15.2156         1.06116 
        4.93234            15.1         1.05257 
        4.94807         14.9592         1.04407 
        4.96377         14.9056         1.03567 
        4.97943         14.7668         1.02739 
        4.99514          14.667         1.01918 
        5.01086         14.5261         1.01105 
        5.02654          14.416         1.00303 
        5.04227         14.2968        0.995073 
          5.058         14.2068        0.987199 
        5.07371         14.0988        0.979425 
        5.08942         14.0054        0.971734 
        5.10513         13.8662        0.964125 
        5.12084         13.7698        0.956593 
        5.13656         13.6755        0.949144 
        5.15225          13.568        0.941786 
        5.16796         13.4143        0.934494 
        5.18369         13.3458        0.927273 
         5.1994         13.2292        0.920141 
        5.21509         13.1342         0.91309 
        5.23079         13.0604        0.906106 
        5.24649          12.933        0.899199 
        5.26217         12.8689        0.892369 
        5.27788         12.7505        0.885601 
        5.29359         12.6597        0.878901 
        5.30933         12.5583        0.872261 
        5.32504         12.4901        0.865701 
        5.34073         12.3832        0.859215 
        5.35646         12.3224        0.852783 
        5.37218         12.1866        0.846415 
        5.38789         12.1183        0.840123 
        5.40357         12.0267        0.833901 
        5.41929         11.9343        0.827729 
        5.43502         11.8419        0.821619 
         5.4507         11.7524        0.815585 
        5.46639         11.6772         0.80961 
        5.48212         11.6018        0.803681 
        5.49786         11.5126        0.797805 
        5.51353         11.4166        0.792016 
        5.52921         11.3561        0.786279 
        5.54495         11.2636        0.780582 
        5.56066         11.1839        0.774948 
        5.57637         11.0954         0.76937 
        5.59207         11.0092        0.763852 
        5.60778         10.9327        0.758385 
        5.62346         10.8693         0.75298 
        5.63916         10.8096        0.747622 
        5.65487         10.7085        0.742314 
         5.6706         10.6501        0.737051 
        5.68633         10.5656        0.731837 
        5.70203         10.4807        0.726684 
        5.71773         10.3986        0.721581 
        5.73344         10.3439        0.716525 
        5.74916          10.296        0.711513 
        5.76486         10.2009        0.706555 
        5.78054         10.1276        0.701652 
        5.79626         10.0523        0.696782 
          5.812         9.97803        0.691953 
         5.8277         9.92226        0.687184 
        5.84339         9.83298         0.68246 
        5.85911         9.77135        0.677771 
        5.87484         9.71661        0.673128 
        5.89053         9.63524        0.668536 
        5.90623         9.58611        0.663986 
        5.92195         9.51681         0.65947 
        5.93767         9.42534        0.654998 
        5.95336         9.36396        0.650575 
        5.96905         9.32559        0.646195 
        5.98476         9.25052        0.641849 
        6.00048         9.17926        0.637541 
        6.01617         9.12006        0.633279 
        6.03185          9.0371         0.62906 
        6.04756         8.98924         0.62487 
        6.06331         8.92189        0.620709 
        6.07903         8.86489        0.616595 
        6.09473         8.80946        0.612522 
        6.11044         8.75762        0.608482 
        6.12616         8.70352        0.604479 
        6.14186         8.63842        0.600516 
        6.15755         8.60397        0.596589 
        6.17326          8.5197        0.592693 
        6.18898         8.46176        0.588831 
        6.20467         8.40808         0.58501 
        6.22036         8.34832        0.581223 
         6.2361         8.29343         0.57746 
         6.2518         8.22459        0.573736 
        6.26748         8.19268        0.570052 
        6.28319          8.1143        0.566391 
        6.29893         8.06882        0.562759 
        6.31463         8.02679        0.559165 
        6.33033         7.97615        0.555604 
        6.34604         7.90455        0.552071 
        6.36177         7.87021        0.548565 
        6.37747         7.82055        0.545096 
