# k  (h/Mpc)    Pcb(k)  (Mpc/h)^3    Pcb_linear(k) (Mpc/h)^3   ShotnoiseSubtracted = true
      0.0200456          5618.1         5711.29 
      0.0350414         4073.95         4151.92 
      0.0492313         3010.88          3016.7 
      0.0637834         2549.46         2507.76 
      0.0800726         2020.28         1990.35 
       0.096163         1425.65         1444.17 
       0.111083         1130.93         1151.91 
       0.126058         1033.97         1020.82 
       0.142273          889.36         864.862 
       0.158546         722.929          683.06 
        0.17375         586.806         575.477 
       0.188953         555.121         521.082 
       0.204907         517.587         461.051 
       0.220756         433.661         390.077 
        0.23588         379.112         339.333 
         0.2514         335.032         308.281 
       0.267535         316.558         278.941 
       0.283568           285.9         245.989 
       0.299022         262.605         219.163 
       0.314451         239.472           200.3 
       0.330372         222.186         183.753 
       0.346141         200.156         166.784 
       0.361624         189.533         151.584 
       0.377134         178.148         139.481 
       0.392932         161.888         129.059 
       0.408854         155.436         118.967 
       0.424564         148.807         109.654 
       0.440253         139.183         101.662 
       0.455999         130.998         94.7125 
       0.471626         121.174         88.3261 
        0.48727         117.447          82.352 
       0.502856         111.947         76.9851 
       0.518488         108.299         72.1965 
       0.534347         103.733         67.7447 
       0.550082         95.7372           63.64 
       0.565732         91.5879         59.8847 
       0.581496         88.2726         56.4454 
       0.597222         85.3799         53.2911 
       0.612804         80.8925         50.3907 
       0.628434         79.0373         47.6872 
       0.644267         76.4942         45.1598 
       0.660051         74.0877         42.8303 
       0.675724          71.074         40.6793 
       0.691403         68.9502         38.6742 
       0.707174         66.7012          36.793 
       0.722871         64.7922         35.0444 
        0.73838         63.2444         33.4281 
       0.754018         60.1538         31.9016 
       0.769845         58.8804         30.4538 
        0.78569         57.3197         29.0946 
       0.801365         55.3222         27.8319 
       0.817031         53.8752         26.6453 
       0.832809         53.0867         25.5207 
       0.848511         50.4392         24.4664 
       0.864097         49.3569         23.4792 
       0.879701         48.5932         22.5457 
       0.895507         47.8387         21.6522 
       0.911279         46.5353         20.8093 
        0.92691         45.3685         20.0183 
       0.942635         43.7745         19.2644 
       0.958396         43.5259         18.5478 
       0.974128         42.2989         17.8691 
       0.989692         41.6205         17.2313 
        1.00528         40.7176         16.6237 
        1.02113         39.4537         16.0361 
        1.03692         38.6708         15.4792 
        1.05264         38.1931         14.9513 
        1.06832         37.2151          14.449 
        1.08405         36.6647         13.9686 
        1.09979         35.9822         13.5098 
        1.11537          34.838         13.0762 
        1.13105         34.8588         12.6592 
        1.14679         34.2979         12.2588 
        1.16256         33.3226          11.875 
        1.17828         32.7675         11.5089 
        1.19395         32.1529         11.1596 
         1.2097         31.8673          10.823 
        1.22537          31.384          10.502 
          1.241         30.6809         10.1951 
        1.25666         29.9369         9.89965 
        1.27241         29.6931         9.61459 
        1.28819         28.8823         9.34032 
        1.30392         28.6304         9.07758 
        1.31957         28.4226         8.82614 
        1.33529         28.1264         8.58334 
        1.35108          27.493         8.34874 
        1.36674         27.0142         8.12461 
         1.3824         26.4733         7.90894 
        1.39811         26.3126         7.70041 
        1.41389         25.9818         7.49862 
        1.42964         25.5004         7.30442 
        1.44531         25.3581         7.11806 
        1.46101         24.7122         6.93783 
        1.47667         24.4965          6.7644 
        1.49229         24.2759         6.59737 
        1.50793         23.9227         6.43581 
        1.52367           23.67         6.27863 
        1.53953         23.4156         6.12566 
        1.55526         22.9612         5.97902 
        1.57092         22.6741          5.8378 
        1.58662         22.4099         5.70081 
        1.60235         22.1544         5.56797 
        1.61809         21.8914          5.4393 
        1.63369         21.6395         5.31585 
        1.64941         21.2235         5.19536 
        1.66519         21.1457         5.07817 
        1.68085         20.8019         4.96545 
        1.69652         20.5651         4.85611 
        1.71228         20.3853         4.74946 
        1.72806          20.121         4.64593 
        1.74368         19.8512         4.54653 
        1.75933         19.6487         4.44985 
        1.77505         19.4527         4.35553 
        1.79081         19.1781         4.26378 
         1.8065          19.089         4.17507 
        1.82218         18.7733         4.08898 
        1.83797          18.509         4.00472 
        1.85367         18.3489          3.9233 
        1.86928         18.2029         3.84465 
        1.88497         17.9175         3.76772 
        1.90073         17.9232         3.69262 
        1.91647         17.6192         3.61964 
        1.93218         17.4574         3.54878 
        1.94787         17.3324         3.47993 
        1.96363         17.1733         3.41264 
        1.97935         16.9808         3.34727 
        1.99499         16.7477         3.28398 
        2.01064          16.612         3.22224 
         2.0264          16.393          3.1617 
        2.04216          16.253         3.10274 
        2.05781         16.0265         3.04567 
        2.07353          15.894         2.98983 
        2.08928         15.7807         2.93527 
        2.10499         15.5829         2.88221 
        2.12065         15.3552         2.83064 
        2.13633         15.3495         2.78027 
        2.15211         15.0967         2.73082 
        2.16785         15.0749          2.6827 
        2.18349         14.9245         2.63605 
        2.19916         14.7229          2.5904 
        2.21489         14.6136         2.54569 
        2.23063         14.4492         2.50201 
         2.2463         14.3035         2.45955 
        2.26194         14.2015         2.41818 
        2.27765          14.092         2.37755 
        2.29341          13.927         2.33775 
        2.30914         13.7517         2.29894 
        2.32486         13.7271         2.26104 
        2.34061         13.5617         2.22393 
        2.35635         13.4078         2.18768 
        2.37203         13.3519         2.15237 
        2.38768         13.1895         2.11792 
        2.40339         13.0111         2.08409 
        2.41914         12.9243         2.05092 
        2.43483          12.862          2.0186 
         2.4505         12.7215         1.98702 
        2.46622         12.6177         1.95601 
        2.48195         12.5195         1.92566 
        2.49759         12.4125         1.89612 
        2.51328         12.2682         1.86712 
        2.52906         12.1681         1.83855 
        2.54479         12.0684         1.81068 
        2.56049          12.015         1.78344 
        2.57618         11.9199         1.75679 
        2.59189         11.7431         1.73064 
        2.60758         11.7104         1.70506 
        2.62325         11.6434         1.68003 
        2.63898         11.4501         1.65542 
        2.65468         11.3864         1.63136 
        2.67044         11.2824         1.60766 
        2.68618         11.1732          1.5845 
        2.70184         11.0957         1.56188 
        2.71755         10.9892         1.53965 
        2.73329         10.8757         1.51782 
        2.74897         10.8086         1.49648 
        2.76462         10.7903          1.4756 
        2.78034         10.5904         1.45503 
        2.79607         10.5426         1.43483 
        2.81179         10.4405         1.41504 
        2.82749         10.4087         1.39565 
        2.84321         10.2757         1.37659 
        2.85893         10.2125          1.3579 
        2.87462          10.151         1.33959 
        2.89033         10.0093          1.3216 
        2.90605         9.94384         1.30392 
        2.92176          9.8961         1.28658 
        2.93747         9.79549         1.26956 
        2.95318         9.74293         1.25284 
        2.96891         9.65214         1.23642 
        2.98456         9.56244         1.22036 
        3.00023         9.50665         1.20457 
        3.01596          9.4271         1.18901 
        3.03164         9.38336         1.17376 
        3.04738         9.29092         1.15874 
         3.0631         9.18446         1.14399 
        3.07883         9.13806         1.12949 
        3.09456         9.08622         1.11525 
        3.11026         8.96964         1.10127 
        3.12596         8.95144         1.08754 
        3.14163         8.84997         1.07407 
        3.15734         8.78746          1.0608 
        3.17308         8.74092         1.04772 
        3.18879         8.65527          1.0349 
        3.20447         8.58006         1.02231 
         3.2202         8.51489         1.00989 
         3.2359         8.47454        0.997695 
        3.25157         8.40676        0.985734 
        3.26729         8.34872        0.973933 
        3.28304         8.25451        0.962302 
        3.29877         8.19283        0.950876 
        3.31446         8.16095         0.93966 
        3.33014         8.06212        0.928635 
        3.34585         8.04485         0.91777 
        3.36158         7.97258        0.907063 
        3.37727         7.91881         0.89656 
        3.39294         7.87248        0.886233 
        3.40867          7.7547        0.876032 
        3.42439         7.73971        0.865997 
        3.44008         7.66978        0.856138 
        3.45578         7.61978        0.846425 
        3.47153         7.58026        0.836842 
        3.48724         7.51117        0.827424 
        3.50292          7.4719        0.818173 
        3.51859         7.40201        0.809067 
        3.53431         7.34357        0.800072 
        3.55007         7.31344        0.791192 
        3.56577         7.25906        0.782481 
        3.58146         7.19797        0.773905 
        3.59719         7.13558        0.765438 
        3.61292         7.09894        0.757101 
        3.62859         7.03738        0.748919 
        3.64429         6.98775        0.740842 
        3.66003         6.91765        0.732859 
        3.67578         6.89464        0.724998 
        3.69146         6.83449        0.717281 
        3.70712          6.8191         0.70969 
        3.72284         6.71867        0.702181 
        3.73853         6.70177        0.694794 
        3.75422         6.64185         0.68751 
        3.76993         6.61525        0.680324 
        3.78564         6.55267        0.673244 
        3.80137         6.51812        0.666253 
        3.81707         6.45378        0.659376 
        3.83279         6.45175        0.652591 
        3.84853         6.37154        0.645889 
        3.86424         6.31244        0.639296 
        3.87992         6.28455        0.632803 
        3.89561         6.23716        0.626401 
        3.91134         6.19035        0.620074 
        3.92704         6.15357        0.613842 
        3.94273         6.10539        0.607702 
        3.95845         6.06937        0.601634 
        3.97418         6.04227        0.595648 
        3.98988         5.98336        0.589751 
        4.00554         5.94403         0.58395 
        4.02125         5.89048        0.578211 
        4.03698         5.86317         0.57254 
        4.05268         5.82935        0.566958 
        4.06839         5.79075        0.561446 
         4.0841         5.74679        0.556009 
        4.09983         5.70321        0.550636 
        4.11555         5.66135        0.545336 
        4.13124         5.62585        0.540121 
        4.14693         5.56377        0.534969 
        4.16266         5.52347        0.529873 
        4.17839         5.49266        0.524846 
        4.19408         5.44836        0.519896 
        4.20977         5.41554        0.515007 
        4.22551         5.36961         0.51017 
        4.24123         5.33677        0.505399 
        4.25691         5.30945        0.500703 
        4.27259         5.27037        0.496064 
        4.28831         5.23182        0.491476 
        4.30404         5.18947         0.48694 
        4.31974         5.16498        0.482472 
        4.33543         5.12279        0.478063 
        4.35116         5.08919        0.473697 
        4.36688         5.03855        0.469388 
        4.38255         5.00313        0.465149 
        4.39825         4.99053        0.460953 
        4.41398         4.94842          0.4568 
         4.4297         4.92354        0.452703 
        4.44541         4.88002        0.448656 
        4.46111         4.86238        0.444663 
        4.47683         4.80104        0.440715 
        4.49251         4.78584        0.436822 
        4.50819         4.74898        0.432978 
         4.5239         4.71965        0.429175 
        4.53962         4.69918        0.425412 
        4.55535         4.66133        0.421693 
        4.57106         4.63537        0.418024 
        4.58678         4.60164        0.414397 
         4.6025         4.57099        0.410813 
        4.61821          4.5379        0.407271 
        4.63391         4.51643        0.403776 
         4.6496         4.47947        0.400323 
        4.66532           4.459        0.396905 
        4.68103         4.41463        0.393529 
        4.69673         4.39448        0.390195 
        4.71241         4.36038        0.386903 
        4.72811         4.34373        0.383644 
        4.74384         4.32096        0.380418 
        4.75955          4.2793        0.377234 
        4.77525         4.24662        0.374088 
        4.79096         4.22335        0.370974 
        4.80669         4.18848        0.367894 
         4.8224         4.17456        0.364852 
        4.83809         4.14481        0.361848 
        4.85379          4.1149        0.358876 
         4.8695         4.08899        0.355935 
        4.88521         4.06649        0.353029 
        4.90093         4.05025        0.350154 
        4.91663         4.01253        0.347313 
        4.93234         3.99165        0.344502 
        4.94807         3.97214        0.341719 
        4.96377          3.9298        0.338972 
        4.97943         3.91163        0.336262 
        4.99514         3.88765        0.333574 
        5.01086         3.86601        0.330913 
        5.02654          3.8398        0.328288 
        5.04227          3.8153        0.325684 
          5.058         3.79406        0.323107 
        5.07371         3.76835        0.320562 
        5.08942         3.74825        0.318045 
        5.10513         3.72525        0.315555 
        5.12084         3.70155        0.313089 
        5.13656         3.68576        0.310651 
        5.15225          3.6642        0.308243 
        5.16796          3.6334        0.305856 
        5.18369         3.61055        0.303493 
         5.1994         3.58753        0.301159 
        5.21509         3.57211        0.298851 
        5.23079         3.54445        0.296565 
        5.24649         3.52417        0.294305 
        5.26217          3.5062        0.292069 
        5.27788         3.47658        0.289854 
        5.29359         3.45359        0.287661 
        5.30933         3.44342        0.285488 
        5.32504         3.42145        0.283341 
        5.34073         3.39492        0.281218 
        5.35646         3.38274        0.279113 
        5.37218         3.35762        0.277029 
        5.38789         3.34133        0.274969 
        5.40357         3.32191        0.272933 
        5.41929         3.29483        0.270913 
        5.43502         3.28101        0.268913 
         5.4507         3.26376        0.266938 
        5.46639         3.23674        0.264982 
        5.48212         3.22472        0.263042 
        5.49786         3.20447        0.261119 
        5.51353         3.18285        0.259224 
        5.52921         3.16379        0.257346 
        5.54495         3.14553        0.255482 
        5.56066         3.12746        0.253638 
        5.57637         3.11609        0.251812 
        5.59207         3.09741        0.250006 
        5.60778          3.0797        0.248217 
        5.62346         3.05682        0.246448 
        5.63916         3.03976        0.244694 
        5.65487         3.02407        0.242957 
         5.6706         3.00383        0.241234 
        5.68633         2.98576        0.239527 
        5.70203         2.97574        0.237841 
        5.71773         2.95395        0.236171 
        5.73344         2.93551        0.234516 
        5.74916         2.91906        0.232875 
        5.76486         2.90632        0.231253 
        5.78054         2.88182        0.229648 
        5.79626         2.87224        0.228054 
          5.812         2.85964        0.226474 
         5.8277         2.84336        0.224913 
        5.84339          2.8237        0.223367 
        5.85911         2.81055        0.221832 
        5.87484          2.7997        0.220312 
        5.89053         2.77402        0.218809 
        5.90623         2.76081         0.21732 
        5.92195         2.74884        0.215842 
        5.93767         2.73249        0.214378 
        5.95336         2.71692        0.212931 
        5.96905         2.70226        0.211497 
        5.98476         2.69094        0.210075 
        6.00048         2.67734        0.208665 
        6.01617          2.6563         0.20727 
        6.03185         2.64466        0.205889 
        6.04756         2.62824        0.204518 
        6.06331         2.61273        0.203156 
        6.07903         2.59835        0.201809 
        6.09473         2.59085        0.200476 
        6.11044          2.5703        0.199154 
        6.12616         2.55984        0.197844 
        6.14186         2.54281        0.196547 
        6.15755         2.53051        0.195261 
        6.17326         2.51897        0.193986 
        6.18898         2.50432        0.192722 
        6.20467         2.49366        0.191472 
        6.22036         2.47845        0.190232 
         6.2361         2.46423           0.189 
         6.2518         2.45492        0.187782 
        6.26748         2.44034        0.186576 
        6.28319         2.42454        0.185378 
        6.29893         2.41857        0.184189 
        6.31463         2.40216        0.183013 
        6.33033         2.38848        0.181847 
        6.34604         2.37582        0.180691 
        6.36177         2.36676        0.179543 
        6.37747         2.35447        0.178408 
