# k  (h/Mpc)    Pcb(k)  (Mpc/h)^3    Pcb_linear(k) (Mpc/h)^3   ShotnoiseSubtracted = true
      0.0200456          4342.8         4400.35 
      0.0350414         3260.52         3198.91 
      0.0492313          2323.1         2324.26 
      0.0637834          1892.5         1932.14 
      0.0800726         1495.77         1533.49 
       0.096163         1141.03         1112.68 
       0.111083         921.358         887.504 
       0.126058         781.459         786.509 
       0.142273         664.409         666.346 
       0.158546         540.118         526.274 
        0.17375         465.177         443.385 
       0.188953         421.753         401.475 
       0.204907         359.273         355.224 
       0.220756         318.376         300.541 
        0.23588         279.618         261.444 
         0.2514         251.868          237.52 
       0.267535         237.142         214.914 
       0.283568         207.292         189.526 
       0.299022         192.379         168.858 
       0.314451          184.26         154.324 
       0.330372         162.088         141.575 
       0.346141         149.114         128.501 
       0.361624         138.873          116.79 
       0.377134         126.879         107.465 
       0.392932         123.307         99.4354 
       0.408854         114.681         91.6603 
       0.424564         109.281         84.4846 
       0.440253         99.3792          78.327 
       0.455999         91.7673         72.9727 
       0.471626         87.9267         68.0522 
        0.48727         85.3376         63.4494 
       0.502856         78.7397         59.3144 
       0.518488         75.5378         55.6249 
       0.534347         71.2515          52.195 
       0.550082         68.8695         49.0324 
       0.565732         66.6779         46.1391 
       0.581496         61.8751         43.4892 
       0.597222         59.4807          41.059 
       0.612804         57.2964         38.8243 
       0.628434          56.081         36.7414 
       0.644267         53.0266          34.794 
       0.660051         50.8824         32.9993 
       0.675724         49.0402          31.342 
       0.691403         48.2086         29.7971 
       0.707174         46.4914         28.3477 
       0.722871         45.0572         27.0005 
        0.73838         43.0418         25.7552 
       0.754018         40.8349          24.579 
       0.769845         40.2402         23.4636 
        0.78569         38.7941         22.4164 
       0.801365         37.7152         21.4435 
       0.817031         36.2529         20.5293 
       0.832809         35.6061         19.6628 
       0.848511         34.4715         18.8505 
       0.864097          33.644         18.0899 
       0.879701         33.0262         17.3707 
       0.895507         31.7999         16.6823 
       0.911279         30.8391         16.0328 
        0.92691         30.2745         15.4234 
       0.942635         29.6291         14.8425 
       0.958396          29.002         14.2904 
       0.974128         28.2071         13.7675 
       0.989692         27.1365         13.2761 
        1.00528         26.8948          12.808 
        1.02113         26.1481         12.3553 
        1.03692         25.6829         11.9262 
        1.05264         25.1452         11.5195 
        1.06832         24.6857         11.1325 
        1.08405         23.9783         10.7623 
        1.09979         23.6748         10.4088 
        1.11537         22.9427         10.0748 
        1.13105          22.591         9.75344 
        1.14679         22.0339         9.44494 
        1.16256         21.7177         9.14924 
        1.17828         21.3759         8.86721 
        1.19395         20.9925         8.59807 
         1.2097         20.5403         8.33877 
        1.22537         20.1761         8.09145 
          1.241         19.7795         7.85495 
        1.25666         19.5292         7.62734 
        1.27241         19.2003         7.40771 
        1.28819         18.4765         7.19639 
        1.30392         18.6843         6.99396 
        1.31957         18.1868         6.80024 
        1.33529         17.8553         6.61317 
        1.35108         17.6744         6.43242 
        1.36674         17.3307         6.25973 
         1.3824          17.014         6.09357 
        1.39811          16.696          5.9329 
        1.41389         16.5034         5.77742 
        1.42964         16.2974          5.6278 
        1.44531         16.0424         5.48422 
        1.46101         15.8227         5.34536 
        1.47667         15.5804         5.21173 
        1.49229          15.238         5.08304 
        1.50793         15.1197         4.95857 
        1.52367         14.9372         4.83747 
        1.53953         14.7035         4.71961 
        1.55526         14.4299         4.60663 
        1.57092         14.4025         4.49782 
        1.58662         14.1716         4.39228 
        1.60235         13.9467         4.28993 
        1.61809         13.7907         4.19079 
        1.63369         13.5634         4.09568 
        1.64941         13.4191         4.00284 
        1.66519         13.2307         3.91256 
        1.68085         12.9776          3.8257 
        1.69652         13.0013         3.74147 
        1.71228          12.747         3.65929 
        1.72806         12.5615         3.57953 
        1.74368         12.4444         3.50294 
        1.75933         12.3303         3.42845 
        1.77505         12.1479         3.35578 
        1.79081         12.0139          3.2851 
         1.8065         11.9326         3.21675 
        1.82218         11.8148         3.15041 
        1.83797         11.6707          3.0855 
        1.85367         11.5556         3.02277 
        1.86928         11.4027         2.96217 
        1.88497         11.2923          2.9029 
        1.90073         11.1252         2.84504 
        1.91647          10.881          2.7888 
        1.93218         10.8938         2.73421 
        1.94787         10.6938         2.68117 
        1.96363         10.6441         2.62932 
        1.97935         10.5419         2.57895 
        1.99499         10.4063         2.53019 
        2.01064         10.2994         2.48262 
         2.0264         10.1534         2.43598 
        2.04216         10.1847         2.39056 
        2.05781         10.0509         2.34658 
        2.07353         9.92072         2.30356 
        2.08928         9.78551         2.26152 
        2.10499         9.68883         2.22065 
        2.12065         9.63806         2.18091 
        2.13633         9.50904         2.14211 
        2.15211         9.43385           2.104 
        2.16785         9.29676         2.06693 
        2.18349         9.24308         2.03098 
        2.19916          9.1456         1.99582 
        2.21489         9.07675         1.96137 
        2.23063         9.02696         1.92771 
         2.2463         8.86606           1.895 
        2.26194         8.79872         1.86312 
        2.27765         8.71016         1.83182 
        2.29341         8.59008         1.80115 
        2.30914         8.59065         1.77126 
        2.32486         8.48667         1.74205 
        2.34061         8.43418         1.71346 
        2.35635         8.33268         1.68553 
        2.37203         8.24186         1.65833 
        2.38768         8.16531         1.63178 
        2.40339         8.12003         1.60572 
        2.41914         8.03711         1.58017 
        2.43483         8.00655         1.55526 
         2.4505         7.91868         1.53093 
        2.46622         7.81602         1.50704 
        2.48195         7.81587         1.48366 
        2.49759         7.66748          1.4609 
        2.51328         7.64836         1.43855 
        2.52906         7.56159         1.41654 
        2.54479          7.4923         1.39507 
        2.56049         7.43058         1.37408 
        2.57618         7.39069         1.35354 
        2.59189         7.38978          1.3334 
        2.60758         7.26555         1.31369 
        2.62325         7.19406         1.29441 
        2.63898         7.20271         1.27545 
        2.65468         7.09332          1.2569 
        2.67044         7.04819         1.23865 
        2.68618         6.96631          1.2208 
        2.70184         6.95435         1.20338 
        2.71755          6.8696         1.18625 
        2.73329         6.78975         1.16943 
        2.74897         6.76182         1.15299 
        2.76462         6.73023          1.1369 
        2.78034         6.66292         1.12105 
        2.79607         6.62598         1.10549 
        2.81179         6.55679         1.09024 
        2.82749         6.49407          1.0753 
        2.84321         6.45943         1.06062 
        2.85893         6.41769         1.04622 
        2.87462         6.37539         1.03211 
        2.89033         6.30645         1.01825 
        2.90605         6.27588         1.00463 
        2.92176         6.20858        0.991263 
        2.93747         6.16758        0.978149 
        2.95318         6.11208        0.965271 
        2.96891         6.06715        0.952618 
        2.98456         6.02881        0.940248 
        3.00023         6.00546        0.928079 
        3.01596         5.91343        0.916089 
        3.03164         5.89312        0.904344 
        3.04738         5.85691        0.892771 
         3.0631         5.81742        0.881404 
        3.07883         5.76959        0.870235 
        3.09456         5.69747        0.859261 
        3.11026         5.68166        0.848494 
        3.12596         5.63716        0.837912 
        3.14163          5.6114        0.827535 
        3.15734         5.55859        0.817309 
        3.17308         5.54803        0.807231 
        3.18879         5.48732        0.797351 
        3.20447         5.45013        0.787651 
         3.2202         5.40187        0.778082 
         3.2359         5.36392        0.768689 
        3.25157         5.33708        0.759474 
        3.26729         5.30268        0.750381 
        3.28304         5.26093         0.74142 
        3.29877         5.23357        0.732617 
        3.31446         5.21036        0.723976 
        3.33014         5.14696        0.715481 
        3.34585         5.12346         0.70711 
        3.36158         5.08126        0.698861 
        3.37727         5.05029        0.690769 
        3.39294         5.01854        0.682812 
        3.40867         4.99126        0.674952 
        3.42439         4.93446         0.66722 
        3.44008          4.9121        0.659625 
        3.45578         4.87777        0.652141 
        3.47153         4.83899        0.644758 
        3.48724         4.81279        0.637501 
        3.50292         4.77833        0.630374 
        3.51859         4.74687        0.623358 
        3.53431         4.71964        0.616428 
        3.55007          4.6915        0.609586 
        3.56577          4.6387        0.602875 
        3.58146         4.62077        0.596267 
        3.59719         4.59714        0.589744 
        3.61292         4.56761         0.58332 
        3.62859         4.53944        0.577016 
        3.64429         4.50593        0.570793 
        3.66003         4.48318        0.564643 
        3.67578          4.4586        0.558586 
        3.69146         4.42056         0.55264 
        3.70712         4.40756        0.546792 
        3.72284         4.37237        0.541006 
        3.73853         4.33465        0.535315 
        3.75422         4.30386        0.529703 
        3.76993         4.29415        0.524166 
        3.78564         4.25848        0.518711 
        3.80137         4.22527        0.513325 
        3.81707         4.19868        0.508027 
        3.83279         4.17687        0.502798 
        3.84853         4.13673        0.497635 
        3.86424         4.12053        0.492555 
        3.87992         4.09912        0.487553 
        3.89561         4.07142         0.48262 
        3.91134         4.04153        0.477746 
        3.92704         4.00772        0.472944 
        3.94273         3.99482        0.468213 
        3.95845         3.96033        0.463538 
        3.97418         3.94017        0.458926 
        3.98988         3.91691        0.454383 
        4.00554         3.88906        0.449914 
        4.02125         3.85481        0.445492 
        4.03698          3.8357        0.441122 
        4.05268         3.80691        0.436821 
        4.06839         3.78671        0.432574 
         4.0841         3.75863        0.428385 
        4.09983         3.73884        0.424246 
        4.11555         3.71185        0.420163 
        4.13124         3.68992        0.416145 
        4.14693         3.67327        0.412175 
        4.16266         3.64215        0.408249 
        4.17839         3.61974        0.404376 
        4.19408         3.60148        0.400562 
        4.20977         3.57972        0.396795 
        4.22551         3.54824        0.393068 
        4.24123         3.52192        0.389393 
        4.25691         3.50664        0.385774 
        4.27259         3.48235          0.3822 
        4.28831         3.45297        0.378665 
        4.30404         3.44639        0.375171 
        4.31974         3.41621        0.371728 
        4.33543         3.39836        0.368331 
        4.35116         3.37905        0.364967 
        4.36688         3.35847        0.361648 
        4.38255         3.34208        0.358381 
        4.39825         3.31866        0.355148 
        4.41398         3.29906        0.351949 
         4.4297         3.28202        0.348792 
        4.44541         3.25881        0.345674 
        4.46111         3.22856        0.342597 
        4.47683         3.21251        0.339555 
        4.49251         3.19803        0.336557 
        4.50819         3.17628        0.333595 
         4.5239         3.15619        0.330664 
        4.53962         3.13179        0.327766 
        4.55535         3.12041          0.3249 
        4.57106         3.09993        0.322073 
        4.58678         3.07983        0.319279 
         4.6025         3.06943        0.316517 
        4.61821         3.04892        0.313788 
        4.63391         3.02336        0.311095 
         4.6496         3.00843        0.308435 
        4.66532         2.99654        0.305802 
        4.68103         2.97331        0.303201 
        4.69673         2.96114        0.300632 
        4.71241         2.94308        0.298096 
        4.72811         2.92274        0.295584 
        4.74384         2.91435        0.293099 
        4.75955         2.88612        0.290645 
        4.77525         2.87229        0.288222 
        4.79096         2.85806        0.285822 
        4.80669         2.84132        0.283449 
         4.8224          2.8259        0.281106 
        4.83809         2.81634        0.278792 
        4.85379         2.79536        0.276502 
         4.8695         2.77943        0.274236 
        4.88521         2.75781        0.271996 
        4.90093         2.74943        0.269781 
        4.91663          2.7358        0.267593 
        4.93234         2.71918        0.265427 
        4.94807         2.70246        0.263283 
        4.96377         2.68833        0.261167 
        4.97943         2.67884        0.259078 
        4.99514         2.65594        0.257007 
        5.01086         2.64175        0.254957 
        5.02654         2.62716        0.252935 
        5.04227         2.61591        0.250928 
          5.058         2.60568        0.248942 
        5.07371         2.59011        0.246982 
        5.08942         2.57023        0.245043 
        5.10513         2.56023        0.243124 
        5.12084         2.54423        0.241225 
        5.13656         2.53157        0.239346 
        5.15225         2.51428        0.237491 
        5.16796         2.50437        0.235652 
        5.18369          2.4879        0.233831 
         5.1994         2.47555        0.232032 
        5.21509         2.46365        0.230254 
        5.23079         2.45765        0.228493 
        5.24649         2.43924        0.226751 
        5.26217         2.42459        0.225029 
        5.27788          2.4139        0.223322 
        5.29359         2.40527        0.221633 
        5.30933         2.39073        0.219959 
        5.32504         2.37867        0.218304 
        5.34073         2.36262        0.216669 
        5.35646         2.35066        0.215047 
        5.37218         2.34214        0.213441 
        5.38789         2.32504        0.211854 
        5.40357         2.31704        0.210285 
        5.41929         2.30661        0.208729 
        5.43502         2.29471        0.207188 
         5.4507         2.27879        0.205666 
        5.46639         2.26542         0.20416 
        5.48212         2.25753        0.202665 
        5.49786         2.24533        0.201183 
        5.51353         2.23559        0.199723 
        5.52921          2.2208        0.198276 
        5.54495         2.21147         0.19684 
        5.56066         2.20144        0.195419 
        5.57637         2.18778        0.194012 
        5.59207         2.17916        0.192621 
        5.60778         2.17406        0.191242 
        5.62346         2.15612        0.189879 
        5.63916         2.14402        0.188528 
        5.65487         2.13272         0.18719 
         5.6706         2.12749        0.185862 
        5.68633         2.11434        0.184548 
        5.70203          2.1052        0.183248 
        5.71773         2.09276        0.181962 
        5.73344         2.08374        0.180687 
        5.74916          2.0735        0.179423 
        5.76486         2.06414        0.178172 
        5.78054         2.05368        0.176936 
        5.79626         2.04414        0.175708 
          5.812          2.0297         0.17449 
         5.8277         2.02215        0.173288 
        5.84339         2.01531        0.172096 
        5.85911         2.00339        0.170914 
        5.87484         1.99439        0.169743 
        5.89053          1.9883        0.168585 
        5.90623          1.9793        0.167438 
        5.92195         1.96374        0.166299 
        5.93767         1.96116        0.165171 
        5.95336         1.94872        0.164056 
        5.96905         1.94284        0.162951 
        5.98476         1.92908        0.161855 
        6.00048         1.91827        0.160769 
        6.01617         1.91399        0.159694 
        6.03185         1.90431         0.15863 
        6.04756         1.89637        0.157574 
        6.06331         1.88777        0.156525 
        6.07903         1.87748        0.155487 
        6.09473         1.86852         0.15446 
        6.11044         1.86476        0.153441 
        6.12616         1.85392        0.152432 
        6.14186          1.8449        0.151432 
        6.15755         1.83281        0.150442 
        6.17326         1.82515         0.14946 
        6.18898         1.82101        0.148486 
        6.20467          1.8108        0.147522 
        6.22036         1.80352        0.146567 
         6.2361         1.79635        0.145618 
         6.2518          1.7884        0.144679 
        6.26748         1.78167         0.14375 
        6.28319         1.77333        0.142827 
        6.29893         1.76203        0.141911 
        6.31463         1.75597        0.141005 
        6.33033         1.74811        0.140107 
        6.34604         1.74082        0.139216 
        6.36177         1.73598        0.138332 
        6.37747         1.72716        0.137457 
