# k  (h/Mpc)    Pcb(k)  (Mpc/h)^3    Pcb_linear(k) (Mpc/h)^3   ShotnoiseSubtracted = true
      0.0200456         5090.46         5173.57 
      0.0350414         3695.01         3761.01 
      0.0492313         2729.16         2732.68 
      0.0637834         2308.25         2271.65 
      0.0800726         1829.32         1802.95 
       0.096163         1292.59          1308.2 
       0.111083         1025.28         1043.45 
       0.126058         936.153         924.713 
       0.142273         804.656         783.435 
       0.158546          652.25          618.75 
        0.17375         530.316         521.296 
       0.188953         500.343         472.022 
       0.204907         465.858         417.643 
       0.220756         389.855         353.351 
        0.23588         340.616         307.385 
         0.2514         301.458         279.256 
       0.267535         283.822         252.679 
       0.283568         256.071         222.829 
       0.299022         234.799         198.529 
       0.314451         213.402         181.442 
       0.330372         198.128         166.453 
       0.346141         178.595         151.081 
       0.361624         168.636         137.312 
       0.377134         158.615         126.349 
       0.392932         143.465         116.908 
       0.408854         137.831         107.767 
       0.424564         131.805         99.3301 
       0.440253         122.886         92.0905 
       0.455999         115.665         85.7954 
       0.471626         107.096         80.0102 
        0.48727         103.658         74.5986 
       0.502856         98.5734          69.737 
       0.518488         95.1047         65.3992 
       0.534347         91.2141         61.3666 
       0.550082         84.0459         57.6483 
       0.565732         80.0986         54.2466 
       0.581496         77.3693         51.1311 
       0.597222         74.8327         48.2738 
       0.612804         70.7146         45.6464 
       0.628434         68.9861         43.1975 
       0.644267         66.8574          40.908 
       0.660051         64.5226         38.7978 
       0.675724         61.7224         36.8493 
       0.691403         59.8754          35.033 
       0.707174         58.0084         33.3289 
       0.722871         56.1426         31.7449 
        0.73838         54.7002         30.2808 
       0.754018         52.0693          28.898 
       0.769845         50.9104         27.5866 
        0.78569         49.5118         26.3554 
       0.801365         47.7554         25.2116 
       0.817031          46.601         24.1367 
       0.832809         45.8316          23.118 
       0.848511         43.4079         22.1629 
       0.864097          42.545         21.2686 
       0.879701           41.82          20.423 
       0.895507         41.1646         19.6137 
       0.911279         39.9228         18.8501 
        0.92691         38.9485         18.1336 
       0.942635         37.5539         17.4506 
       0.958396         37.2607         16.8015 
       0.974128         36.1658         16.1868 
       0.989692         35.6522          15.609 
        1.00528         34.8571         15.0586 
        1.02113         33.6882         14.5263 
        1.03692         33.0389         14.0218 
        1.05264         32.5653         13.5437 
        1.06832         31.7436         13.0887 
        1.08405         31.1948         12.6535 
        1.09979          30.577         12.2378 
        1.11537         29.7287         11.8451 
        1.13105         29.6099         11.4673 
        1.14679          29.176         11.1046 
        1.16256         28.2468         10.7569 
        1.17828         27.9071         10.4253 
        1.19395         27.2731         10.1089 
         1.2097         27.0732         9.80404 
        1.22537          26.559         9.51327 
          1.241         26.0213          9.2352 
        1.25666         25.3567          8.9676 
        1.27241         25.0914         8.70938 
        1.28819         24.4541         8.46093 
        1.30392         24.2601         8.22293 
        1.31957         24.0582         7.99516 
        1.33529         23.7632         7.77522 
        1.35108         23.2014         7.56271 
        1.36674         22.8275         7.35968 
         1.3824         22.3837         7.16432 
        1.39811         22.1671         6.97542 
        1.41389         21.9385         6.79262 
        1.42964         21.5426         6.61671 
        1.44531         21.4261          6.4479 
        1.46101         20.8531         6.28464 
        1.47667          20.625         6.12753 
        1.49229         20.4291         5.97623 
        1.50793         20.1468         5.82988 
        1.52367         19.9173          5.6875 
        1.53953         19.6885         5.54893 
        1.55526         19.3226          5.4161 
        1.57092         19.0525         5.28817 
        1.58662         18.8533         5.16408 
        1.60235         18.6153         5.04375 
        1.61809         18.3972         4.92719 
        1.63369         18.1738         4.81536 
        1.64941         17.8181         4.70622 
        1.66519         17.7542         4.60006 
        1.68085         17.4696         4.49795 
        1.69652         17.2523         4.39891 
        1.71228         17.0875          4.3023 
        1.72806         16.9088         4.20851 
        1.74368         16.6688         4.11847 
        1.75933         16.4901         4.03089 
        1.77505         16.2951         3.94546 
        1.79081         16.0716         3.86235 
         1.8065         16.0009         3.78199 
        1.82218         15.7054           3.704 
        1.83797         15.5096         3.62768 
        1.85367         15.3622         3.55393 
        1.86928         15.2779         3.48267 
        1.88497          15.017         3.41299 
        1.90073         15.0001         3.34496 
        1.91647         14.7704         3.27885 
        1.93218         14.6356         3.21466 
        1.94787         14.5022          3.1523 
        1.96363         14.3782         3.09134 
        1.97935         14.1963         3.03212 
        1.99499         13.9979         2.97479 
        2.01064         13.8766         2.91886 
         2.0264         13.7304         2.86402 
        2.04216         13.5886         2.81062 
        2.05781         13.3875         2.75892 
        2.07353         13.3004         2.70834 
        2.08928         13.1769         2.65891 
        2.10499          13.055         2.61086 
        2.12065         12.8585         2.56413 
        2.13633         12.8495         2.51851 
        2.15211         12.6434         2.47371 
        2.16785         12.6251         2.43012 
        2.18349         12.5142         2.38786 
        2.19916         12.3286         2.34652 
        2.21489         12.2428         2.30602 
        2.23063         12.0974         2.26645 
         2.2463         11.9719         2.22798 
        2.26194         11.8744         2.19051 
        2.27765         11.8224          2.1537 
        2.29341         11.6738         2.11765 
        2.30914         11.4973          2.0825 
        2.32486         11.4804         2.04816 
        2.34061         11.3559         2.01455 
        2.35635          11.248         1.98171 
        2.37203         11.1873         1.94973 
        2.38768         11.0142         1.91852 
        2.40339          10.905         1.88787 
        2.41914         10.8128         1.85783 
        2.43483         10.7802         1.82855 
         2.4505         10.6753         1.79994 
        2.46622         10.5653         1.77185 
        2.48195         10.5039         1.74436 
        2.49759         10.3948          1.7176 
        2.51328         10.2788         1.69133 
        2.52906         10.2053         1.66545 
        2.54479         10.1087          1.6402 
        2.56049         10.0722         1.61553 
        2.57618         9.99446         1.59139 
        2.59189         9.84588          1.5677 
        2.60758         9.82978         1.54453 
        2.62325         9.76042         1.52186 
        2.63898         9.59765         1.49957 
        2.65468         9.51669         1.47776 
        2.67044         9.46658          1.4563 
        2.68618         9.36352         1.43532 
        2.70184         9.31475         1.41483 
        2.71755         9.21976         1.39469 
        2.73329         9.12259         1.37492 
        2.74897         9.07263         1.35559 
        2.76462         9.05434         1.33667 
        2.78034         8.89366         1.31804 
        2.79607         8.86026         1.29974 
        2.81179         8.78531         1.28182 
        2.82749         8.75264         1.26425 
        2.84321         8.66583         1.24699 
        2.85893         8.59586         1.23006 
        2.87462         8.52253         1.21347 
        2.89033         8.42741         1.19717 
        2.90605         8.37586         1.18116 
        2.92176         8.31774         1.16545 
        2.93747         8.25152         1.15003 
        2.95318         8.22659         1.13489 
        2.96891         8.13417         1.12001 
        2.98456         8.05089         1.10547 
        3.00023         7.99685         1.09116 
        3.01596         7.95791         1.07706 
        3.03164         7.90699         1.06325 
        3.04738         7.85917         1.04965 
         3.0631         7.75439         1.03628 
        3.07883         7.71286         1.02315 
        3.09456         7.66097         1.01025 
        3.11026         7.58845         0.99759 
        3.12596         7.55175        0.985148 
        3.14163         7.47125        0.972947 
        3.15734         7.42783        0.960925 
        3.17308         7.37385        0.949077 
        3.18879         7.30027        0.937461 
        3.20447         7.26343        0.926056 
         3.2202          7.1881        0.914806 
         3.2359         7.16601        0.903762 
        3.25157          7.1072        0.892927 
        3.26729         7.06795        0.882237 
        3.28304         6.98702        0.871701 
        3.29877         6.93477        0.861351 
        3.31446         6.90217        0.851191 
        3.33014         6.84106        0.841205 
        3.34585         6.81891        0.831363 
        3.36158         6.75392        0.821664 
        3.37727         6.71716        0.812149 
        3.39294         6.67699        0.802795 
        3.40867         6.58976        0.793554 
        3.42439         6.56732        0.784463 
        3.44008         6.50698        0.775533 
        3.45578         6.46768        0.766735 
        3.47153          6.4311        0.758054 
        3.48724         6.38652        0.749522 
        3.50292         6.35221        0.741142 
        3.51859         6.29129        0.732894 
        3.53431          6.2374        0.724745 
        3.55007         6.21586        0.716701 
        3.56577         6.17434        0.708811 
        3.58146         6.13547        0.701042 
        3.59719         6.07564        0.693372 
        3.61292         6.05454         0.68582 
        3.62859         5.99636        0.678408 
        3.64429         5.96405        0.671092 
        3.66003         5.90493        0.663861 
        3.67578         5.88443        0.656739 
        3.69146         5.81791        0.649749 
        3.70712          5.8109        0.642873 
        3.72284         5.74168        0.636071 
        3.73853         5.71788        0.629379 
        3.75422          5.6732        0.622781 
        3.76993         5.65224        0.616272 
        3.78564          5.5917        0.609858 
        3.80137         5.56876        0.603526 
        3.81707         5.52395        0.597296 
        3.83279         5.49676        0.591149 
        3.84853         5.43862        0.585079 
        3.86424         5.39878        0.579106 
        3.87992         5.37424        0.573225 
        3.89561         5.34263        0.567426 
        3.91134         5.29732        0.561694 
        3.92704         5.25744        0.556049 
        3.94273         5.22757        0.550487 
        3.95845         5.20101         0.54499 
        3.97418         5.16866        0.539568 
        3.98988         5.12642        0.534226 
        4.00554         5.09537        0.528972 
        4.02125         5.06552        0.523773 
        4.03698         5.02614        0.518635 
        4.05268         4.99254        0.513579 
        4.06839         4.96926        0.508586 
         4.0841         4.92401        0.503661 
        4.09983         4.88816        0.498794 
        4.11555         4.84196        0.493993 
        4.13124         4.81598        0.489269 
        4.14693         4.77463        0.484602 
        4.16266         4.74249        0.479986 
        4.17839         4.71946        0.475432 
        4.19408          4.6725        0.470948 
        4.20977         4.64889        0.466519 
        4.22551          4.6117        0.462137 
        4.24123          4.5915        0.457816 
        4.25691         4.56752        0.453562 
        4.27259         4.53997         0.44936 
        4.28831         4.50586        0.445203 
        4.30404         4.46813        0.441095 
        4.31974         4.44244        0.437048 
        4.33543         4.39694        0.433053 
        4.35116         4.37776        0.429099 
        4.36688         4.33448        0.425196 
        4.38255         4.30982        0.421355 
        4.39825         4.30219        0.417554 
        4.41398         4.27199        0.413792 
         4.4297         4.24195        0.410081 
        4.44541         4.21102        0.406416 
        4.46111         4.19135        0.402798 
        4.47683         4.14355        0.399221 
        4.49251         4.13269        0.395696 
        4.50819         4.10466        0.392214 
         4.5239         4.08091        0.388768 
        4.53962         4.06566         0.38536 
        4.55535         4.03329        0.381991 
        4.57106         4.00971        0.378667 
        4.58678          3.9801        0.375382 
         4.6025         3.96247        0.372135 
        4.61821         3.93167        0.368927 
        4.63391         3.90767        0.365761 
         4.6496         3.89063        0.362633 
        4.66532         3.85708        0.359537 
        4.68103         3.82406        0.356478 
        4.69673         3.80958        0.353458 
        4.71241         3.77835        0.350476 
        4.72811         3.76237        0.347524 
        4.74384         3.74981        0.344601 
        4.75955         3.71279        0.341717 
        4.77525         3.68577        0.338867 
        4.79096         3.66265        0.336047 
        4.80669         3.64281        0.333257 
         4.8224         3.62625        0.330502 
        4.83809         3.60213         0.32778 
        4.85379         3.58077        0.325088 
         4.8695         3.55438        0.322424 
        4.88521         3.52975        0.319791 
        4.90093         3.52362        0.317187 
        4.91663         3.49528        0.314614 
        4.93234         3.47497        0.312067 
        4.94807         3.45826        0.309546 
        4.96377         3.42199        0.307058 
        4.97943         3.40607        0.304603 
        4.99514         3.38239        0.302168 
        5.01086         3.37087        0.299758 
        5.02654         3.34531         0.29738 
        5.04227         3.33057        0.295021 
          5.058         3.31727        0.292686 
        5.07371         3.28918        0.290381 
        5.08942          3.2754        0.288101 
        5.10513         3.25241        0.285845 
        5.12084         3.23339        0.283612 
        5.13656         3.21695        0.281404 
        5.15225         3.19629        0.279222 
        5.16796         3.17796         0.27706 
        5.18369         3.16373        0.274919 
         5.1994         3.14072        0.272805 
        5.21509         3.12173        0.270714 
        5.23079         3.10397        0.268643 
        5.24649         3.09185        0.266596 
        5.26217          3.0703        0.264571 
        5.27788         3.04774        0.262564 
        5.29359         3.03294        0.260578 
        5.30933         3.01695        0.258609 
        5.32504         2.99632        0.256664 
        5.34073         2.97863        0.254741 
        5.35646         2.97036        0.252834 
        5.37218         2.94568        0.250946 
        5.38789         2.92967        0.249081 
        5.40357         2.91639        0.247236 
        5.41929         2.89419        0.245406 
        5.43502         2.88462        0.243595 
         5.4507         2.86713        0.241806 
        5.46639         2.84737        0.240034 
        5.48212         2.83429        0.238277 
        5.49786         2.81359        0.236534 
        5.51353         2.79885        0.234818 
        5.52921         2.79291        0.233117 
        5.54495         2.77225        0.231428 
        5.56066         2.75548        0.229758 
        5.57637         2.74037        0.228104 
        5.59207         2.72733        0.226468 
        5.60778          2.7141        0.224847 
        5.62346         2.69206        0.223245 
        5.63916         2.67898        0.221656 
        5.65487         2.66835        0.220082 
         5.6706         2.64979        0.218522 
        5.68633         2.63776        0.216976 
        5.70203         2.62226        0.215448 
        5.71773         2.60473        0.213935 
        5.73344         2.58947        0.212436 
        5.74916         2.57863         0.21095 
        5.76486         2.56845         0.20948 
        5.78054          2.5533        0.208027 
        5.79626           2.544        0.206583 
          5.812         2.52458        0.205151 
         5.8277         2.51466        0.203737 
        5.84339         2.49911        0.202337 
        5.85911         2.48879        0.200947 
        5.87484         2.47525         0.19957 
        5.89053         2.45984        0.198209 
        5.90623         2.44766        0.196859 
        5.92195         2.43536        0.195521 
        5.93767         2.42125        0.194195 
        5.95336         2.40708        0.192884 
        5.96905         2.39601        0.191585 
        5.98476         2.38344        0.190296 
        6.00048         2.36993        0.189019 
        6.01617         2.35981        0.187755 
        6.03185         2.34422        0.186505 
        6.04756         2.33068        0.185262 
        6.06331         2.31905        0.184029 
        6.07903         2.30631        0.182809 
        6.09473         2.30025        0.181601 
        6.11044         2.28106        0.180404 
        6.12616         2.27086        0.179217 
        6.14186         2.26358        0.178042 
        6.15755         2.25399        0.176877 
        6.17326          2.2414        0.175723 
        6.18898          2.2322        0.174577 
        6.20467         2.21686        0.173445 
        6.22036           2.205        0.172322 
         6.2361         2.19656        0.171206 
         6.2518          2.1872        0.170102 
        6.26748         2.17056         0.16901 
        6.28319         2.16165        0.167925 
        6.29893         2.15274        0.166848 
        6.31463         2.14289        0.165782 
        6.33033         2.12585        0.164726 
        6.34604         2.12107        0.163679 
        6.36177         2.11092        0.162639 
        6.37747         2.10091        0.161611 
