# k  (h/Mpc)    Pcb(k)  (Mpc/h)^3    Pcb_linear(k) (Mpc/h)^3   ShotnoiseSubtracted = true
      0.0200456         23256.2         23674.4 
      0.0350414         17760.8         17210.5 
      0.0492313         12214.7         12504.8 
      0.0637834         9844.33         10395.2 
      0.0800726         7721.82         8250.38 
       0.096163         6224.29         5986.37 
       0.111083          5069.5         4774.88 
       0.126058         4188.09         4231.51 
       0.142273         3675.25         3585.02 
       0.158546         3015.12         2831.42 
        0.17375         2702.96         2385.47 
       0.188953         2569.58         2159.99 
       0.204907         2211.13         1911.15 
       0.220756         2001.88         1616.95 
        0.23588         1787.44          1406.6 
         0.2514          1621.7         1277.88 
       0.267535         1562.49         1156.27 
       0.283568         1395.93         1019.67 
       0.299022         1329.95         908.475 
       0.314451         1386.62         830.284 
       0.330372         1231.55         761.692 
       0.346141          1130.6         691.352 
       0.361624         1084.51         628.344 
       0.377134         1041.63         578.176 
       0.392932         990.906         534.975 
       0.408854         951.596         493.143 
       0.424564         931.574         454.537 
       0.440253         866.091         421.409 
       0.455999         827.921         392.602 
       0.471626         841.188         366.129 
        0.48727         794.373         341.365 
       0.502856         765.802         319.119 
       0.518488         740.358         299.269 
       0.534347         713.205         280.815 
       0.550082         680.068           263.8 
       0.565732         669.164         248.234 
       0.581496         654.824         233.977 
       0.597222         642.213         220.902 
       0.612804         626.122         208.879 
       0.628434         600.361         197.673 
       0.644267         584.181         187.196 
       0.660051         577.832          177.54 
       0.675724         566.174         168.624 
       0.691403          548.32         160.312 
       0.707174         532.671         152.514 
       0.722871          527.81         145.266 
        0.73838         514.949         138.566 
       0.754018         503.216         132.238 
       0.769845         496.451         126.237 
        0.78569         485.574         120.603 
       0.801365         469.525         115.369 
       0.817031          465.25          110.45 
       0.832809         457.731         105.788 
       0.848511          450.24         101.418 
       0.864097         440.316         97.3257 
       0.879701         439.914         93.4564 
       0.895507         422.368         89.7528 
       0.911279         416.952         86.2585 
        0.92691         411.596           82.98 
       0.942635         406.367         79.8546 
       0.958396         393.763         76.8843 
       0.974128         388.151         74.0711 
       0.989692         377.526          71.427 
        1.00528         373.539         68.9087 
        1.02113         367.127         66.4728 
        1.03692         361.601         64.1642 
        1.05264          356.48         61.9763 
        1.06832         348.382         59.8942 
        1.08405         347.008         57.9026 
        1.09979         339.158         56.0007 
        1.11537         330.456         54.2035 
        1.13105         326.708         52.4747 
        1.14679         320.948          50.815 
        1.16256         319.138          49.224 
        1.17828          313.85         47.7067 
        1.19395         305.849         46.2587 
         1.2097         303.616         44.8636 
        1.22537         298.769          43.533 
          1.241         292.215         42.2606 
        1.25666         289.365          41.036 
        1.27241         285.558         39.8544 
        1.28819          278.46         38.7175 
        1.30392         278.405         37.6284 
        1.31957           270.7         36.5861 
        1.33529         267.038         35.5797 
        1.35108          265.67         34.6072 
        1.36674          258.51         33.6781 
         1.3824         255.633         32.7841 
        1.39811         252.572         31.9197 
        1.41389         246.857         31.0832 
        1.42964         243.563         30.2783 
        1.44531         240.815         29.5058 
        1.46101          236.41         28.7587 
        1.47667         233.812         28.0398 
        1.49229          230.56         27.3474 
        1.50793         226.967         26.6777 
        1.52367         223.339         26.0262 
        1.53953         219.725         25.3921 
        1.55526         217.165         24.7842 
        1.57092         215.302         24.1988 
        1.58662         210.429          23.631 
        1.60235         207.915         23.0803 
        1.61809         205.856          22.547 
        1.63369         201.891         22.0353 
        1.64941         198.983         21.5358 
        1.66519          196.34           21.05 
        1.68085         192.833         20.5828 
        1.69652         190.896         20.1295 
        1.71228         187.964         19.6874 
        1.72806         185.827         19.2583 
        1.74368         183.421         18.8463 
        1.75933         182.089         18.4455 
        1.77505         179.172         18.0545 
        1.79081         175.872         17.6742 
         1.8065         174.837         17.3065 
        1.82218         170.358         16.9496 
        1.83797         169.138         16.6004 
        1.85367         166.637         16.2629 
        1.86928         164.084         15.9368 
        1.88497         162.494          15.618 
        1.90073         160.911         15.3066 
        1.91647         157.824         15.0041 
        1.93218         155.366         14.7104 
        1.94787          153.46          14.425 
        1.96363         152.676         14.1461 
        1.97935         150.786         13.8751 
        1.99499         148.332         13.6127 
        2.01064         145.275         13.3568 
         2.0264         144.821         13.1059 
        2.04216         142.155         12.8615 
        2.05781         139.808         12.6249 
        2.07353         139.044         12.3934 
        2.08928         137.205         12.1673 
        2.10499         135.641         11.9474 
        2.12065         134.095         11.7335 
        2.13633         132.066         11.5248 
        2.15211         130.028         11.3198 
        2.16785         128.731         11.1203 
        2.18349         127.332         10.9269 
        2.19916         125.434         10.7377 
        2.21489         123.777         10.5524 
        2.23063         122.282         10.3713 
         2.2463         120.538         10.1953 
        2.26194          119.56         10.0238 
        2.27765         117.562         9.85541 
        2.29341           116.6         9.69043 
        2.30914         115.187         9.52957 
        2.32486         113.354         9.37245 
        2.34061         111.836         9.21862 
        2.35635         111.041         9.06838 
        2.37203         109.199         8.92202 
        2.38768         108.373         8.77918 
        2.40339         106.291         8.63896 
        2.41914         105.295         8.50148 
        2.43483         104.419         8.36748 
         2.4505         103.153         8.23659 
        2.46622         101.406         8.10806 
        2.48195         100.545         7.98226 
        2.49759         98.9657          7.8598 
        2.51328         98.0061          7.7396 
        2.52906         97.0716         7.62115 
        2.54479          95.704         7.50562 
        2.56049         94.3936         7.39271 
        2.57618         93.4192         7.28223 
        2.59189         92.7678         7.17383 
        2.60758         91.1653         7.06782 
        2.62325         90.6011         6.96408 
        2.63898          89.424         6.86206 
        2.65468          88.561         6.76229 
        2.67044         87.5854         6.66409 
        2.68618         86.1691         6.56806 
        2.70184         85.2618         6.47431 
        2.71755         84.6378         6.38216 
        2.73329          83.172         6.29165 
        2.74897         82.3627          6.2032 
        2.76462         82.0453         6.11665 
        2.78034         80.6148         6.03139 
        2.79607         79.5364         5.94767 
        2.81179         78.8534         5.86563 
        2.82749         78.1951         5.78523 
        2.84321         76.9526         5.70625 
        2.85893         75.7859         5.62877 
        2.87462         75.4083         5.55286 
        2.89033         74.4606         5.47828 
        2.90605         73.6111         5.40501 
        2.92176         73.0352         5.33311 
        2.93747         72.1315         5.26256 
        2.95318         71.0168         5.19327 
        2.96891         70.6044          5.1252 
        2.98456         69.5223         5.05865 
        3.00023          68.901         4.99318 
        3.01596         68.2978         4.92867 
        3.03164         67.4497         4.86548 
        3.04738         67.1022         4.80322 
         3.0631          65.928         4.74206 
        3.07883         65.4446         4.68197 
        3.09456         64.5167         4.62293 
        3.11026         64.1511           4.565 
        3.12596         63.2822         4.50807 
        3.14163         62.6723         4.45224 
        3.15734         61.7512         4.39722 
        3.17308         61.3699           4.343 
        3.18879         60.7367         4.28985 
        3.20447         60.1858         4.23766 
         3.2202         59.2371         4.18618 
         3.2359         58.6752         4.13564 
        3.25157          58.329         4.08606 
        3.26729         57.5785         4.03714 
        3.28304         56.8102         3.98893 
        3.29877         56.4567         3.94157 
        3.31446         55.6387         3.89508 
        3.33014         55.2429         3.84938 
        3.34585          54.674         3.80434 
        3.36158         54.2726         3.75996 
        3.37727          53.735         3.71642 
        3.39294         53.0571         3.67361 
        3.40867          52.645         3.63133 
        3.42439         52.0401         3.58973 
        3.44008         51.5026         3.54886 
        3.45578         50.9715          3.5086 
        3.47153         50.4907         3.46888 
        3.48724         50.0634         3.42984 
        3.50292         49.5614         3.39149 
        3.51859         49.0844         3.35374 
        3.53431          48.505         3.31646 
        3.55007         47.9578         3.27965 
        3.56577         47.4818         3.24354 
        3.58146         47.0105         3.20799 
        3.59719         46.6547         3.17289 
        3.61292         46.0416         3.13833 
        3.62859         45.7187         3.10442 
        3.64429         45.3323         3.07094 
        3.66003         44.9569         3.03785 
        3.67578         44.3828         3.00526 
        3.69146         44.0277         2.97327 
        3.70712         43.6878         2.94181 
        3.72284         43.2141         2.91068 
        3.73853         42.8129         2.88006 
        3.75422         42.3792         2.84986 
        3.76993          42.021         2.82008 
        3.78564         41.6143         2.79073 
        3.80137         41.2824         2.76175 
        3.81707         40.7733         2.73324 
        3.83279         40.4751         2.70512 
        3.84853         40.0621         2.67734 
        3.86424          39.673         2.65001 
        3.87992         39.2522          2.6231 
        3.89561         38.9955         2.59656 
        3.91134         38.6047         2.57033 
        3.92704         38.2495          2.5445 
        3.94273          37.935         2.51904 
        3.95845         37.4869         2.49389 
        3.97418         37.2244         2.46908 
        3.98988         36.8896         2.44464 
        4.00554         36.4436         2.42059 
        4.02125         36.2535          2.3968 
        4.03698         35.8418         2.37329 
        4.05268         35.6052         2.35015 
        4.06839            35.3          2.3273 
         4.0841          35.001         2.30477 
        4.09983         34.5979         2.28249 
        4.11555           34.38         2.26053 
        4.13124         33.9206         2.23891 
        4.14693         33.7213         2.21755 
        4.16266          33.455         2.19643 
        4.17839         33.0738         2.17559 
        4.19408         32.8222         2.15507 
        4.20977          32.559         2.13481 
        4.22551         32.2541         2.11475 
        4.24123          32.008         2.09498 
        4.25691         31.6858         2.07551 
        4.27259         31.4236         2.05629 
        4.28831         31.2026         2.03726 
        4.30404         30.9311         2.01846 
        4.31974         30.6501         1.99994 
        4.33543         30.3594         1.98166 
        4.35116         30.1106         1.96357 
        4.36688         29.8139         1.94571 
        4.38255         29.6512         1.92814 
        4.39825         29.3825         1.91074 
        4.41398          29.125         1.89353 
         4.4297         28.8349         1.87654 
        4.44541         28.6935         1.85977 
        4.46111         28.3033         1.84321 
        4.47683         28.2005         1.82685 
        4.49251         27.9648         1.81072 
        4.50819         27.6808         1.79478 
         4.5239         27.3938         1.77902 
        4.53962         27.2091         1.76342 
        4.55535         27.0072           1.748 
        4.57106          26.696         1.73279 
        4.58678         26.5398         1.71776 
         4.6025         26.3615          1.7029 
        4.61821         26.1276         1.68822 
        4.63391         25.9125         1.67373 
         4.6496         25.6394         1.65942 
        4.66532          25.471         1.64525 
        4.68103          25.254         1.63126 
        4.69673         25.0882         1.61744 
        4.71241         24.8693         1.60379 
        4.72811         24.6763         1.59028 
        4.74384         24.5365         1.57691 
        4.75955         24.3497         1.56371 
        4.77525         24.0668         1.55067 
        4.79096           23.85         1.53776 
        4.80669          23.698         1.52499 
         4.8224         23.5432         1.51239 
        4.83809         23.2897         1.49993 
        4.85379          23.141         1.48761 
         4.8695         22.9479         1.47542 
        4.88521         22.7496         1.46337 
        4.90093         22.6259         1.45146 
        4.91663         22.4329         1.43968 
        4.93234         22.1957         1.42803 
        4.94807         22.0155         1.41649 
        4.96377         21.8764         1.40511 
        4.97943         21.7386         1.39387 
        4.99514          21.596         1.38273 
        5.01086         21.3909          1.3717 
        5.02654         21.2123         1.36082 
        5.04227         21.0501         1.35002 
          5.058         20.8414         1.33934 
        5.07371         20.7007         1.32879 
        5.08942         20.4942         1.31836 
        5.10513          20.429         1.30804 
        5.12084         20.2558         1.29782 
        5.13656         20.1032         1.28771 
        5.15225         20.0004         1.27773 
        5.16796         19.7961         1.26784 
        5.18369         19.6319         1.25804 
         5.1994          19.441         1.24836 
        5.21509         19.3271          1.2388 
        5.23079         19.1883         1.22932 
        5.24649         19.0526         1.21995 
        5.26217         18.8927         1.21068 
        5.27788         18.7768          1.2015 
        5.29359         18.6002         1.19241 
        5.30933         18.4497          1.1834 
        5.32504          18.326          1.1745 
        5.34073         18.1715          1.1657 
        5.35646         18.0311         1.15698 
        5.37218         17.9184         1.14834 
        5.38789         17.7901          1.1398 
        5.40357         17.6476         1.13136 
        5.41929         17.5396         1.12299 
        5.43502         17.3998          1.1147 
         5.4507         17.2393         1.10651 
        5.46639          17.115          1.0984 
        5.48212         16.9886         1.09036 
        5.49786         16.8717         1.08239 
        5.51353         16.7654         1.07454 
        5.52921         16.6243         1.06675 
        5.54495         16.5076         1.05902 
        5.56066         16.3902         1.05138 
        5.57637         16.2505         1.04381 
        5.59207         16.1276         1.03632 
        5.60778         16.0885         1.02891 
        5.62346         15.9204         1.02157 
        5.63916         15.8022         1.01431 
        5.65487         15.6591          1.0071 
         5.6706         15.5866        0.999963 
        5.68633         15.4862        0.992889 
        5.70203         15.3591        0.985898 
        5.71773          15.261        0.978975 
        5.73344         15.1602        0.972115 
        5.74916         15.0327        0.965315 
        5.76486         14.9189        0.958589 
        5.78054         14.8016        0.951937 
        5.79626         14.7311         0.94533 
          5.812          14.629        0.938779 
         5.8277         14.4858        0.932308 
        5.84339         14.3892        0.925899 
        5.85911          14.318        0.919538 
        5.87484         14.1847        0.913238 
        5.89053         14.0805        0.907009 
        5.90623         13.9996        0.900835 
        5.92195         13.8813        0.894708 
        5.93767         13.8045        0.888641 
        5.95336         13.7061        0.882641 
        5.96905         13.6038        0.876698 
        5.98476         13.5242        0.870801 
        6.00048         13.4174        0.864957 
        6.01617          13.359        0.859174 
        6.03185         13.2483        0.853451 
        6.04756         13.1686        0.847766 
        6.06331         13.0768        0.842121 
        6.07903         12.9459         0.83654 
        6.09473         12.8737        0.831013 
        6.11044         12.8007        0.825532 
        6.12616         12.7274        0.820101 
        6.14186         12.6502        0.814725 
        6.15755         12.5271        0.809397 
        6.17326         12.4444        0.804112 
        6.18898         12.3545        0.798872 
        6.20467         12.2585        0.793688 
        6.22036         12.1905         0.78855 
         6.2361         12.0913        0.783444 
         6.2518         12.0197        0.778392 
        6.26748         11.9698        0.773395 
        6.28319         11.8657        0.768428 
        6.29893         11.7989          0.7635 
        6.31463         11.7269        0.758624 
        6.33033         11.6458        0.753792 
        6.34604         11.5558        0.748999 
        6.36177         11.4863        0.744243 
        6.37747         11.4141        0.739537 
