# k  (h/Mpc)    Pcb(k)  (Mpc/h)^3    Pcb_linear(k) (Mpc/h)^3   ShotnoiseSubtracted = true
      0.0200456         26303.6         26978.7 
      0.0350414         18593.6         19612.6 
      0.0492313         13874.8         14250.1 
      0.0637834         12069.5           11846 
      0.0800726         9511.66         9401.89 
       0.096163         6582.23         6821.89 
       0.111083         5324.24         5441.31 
       0.126058          4889.7         4822.11 
       0.142273         4238.01         4085.39 
       0.158546         3770.79          3226.6 
        0.17375         3028.55         2718.41 
       0.188953         2968.47         2461.46 
       0.204907         2787.16         2177.89 
       0.220756          2427.9         1842.63 
        0.23588         2186.65         1602.92 
         0.2514          1912.7         1456.24 
       0.267535         1918.32         1317.65 
       0.283568          1739.9         1161.99 
       0.299022         1654.37         1035.27 
       0.314451         1574.85         946.168 
       0.330372         1439.51         868.003 
       0.346141         1408.03         787.845 
       0.361624          1352.9         716.043 
       0.377134         1265.52         658.873 
       0.392932         1208.53         609.642 
       0.408854         1193.13         561.972 
       0.424564         1097.32         517.978 
       0.440253         1075.51         480.225 
       0.455999         1054.24         447.398 
       0.471626         1015.73          417.23 
        0.48727         975.361          389.01 
       0.502856         941.365         363.658 
       0.518488          940.36         341.038 
       0.534347         882.345         320.009 
       0.550082         868.744         300.619 
       0.565732         856.968          282.88 
       0.581496         816.245         266.634 
       0.597222         795.838         251.734 
       0.612804         785.933         238.033 
       0.628434         764.898         225.263 
       0.644267         745.517         213.323 
       0.660051         730.036         202.319 
       0.675724         719.664         192.159 
       0.691403         699.207         182.687 
       0.707174         675.504         173.801 
       0.722871         662.909         165.541 
        0.73838         651.786         157.906 
       0.754018         640.555         150.695 
       0.769845         630.199         143.856 
        0.78569         620.043         137.436 
       0.801365         602.475         131.471 
       0.817031         591.835         125.866 
       0.832809         583.739         120.554 
       0.848511         571.768         115.573 
       0.864097         552.941          110.91 
       0.879701         545.023           106.5 
       0.895507         543.838          102.28 
       0.911279         531.809         98.2977 
        0.92691          523.28         94.5616 
       0.942635         508.585              91 
       0.958396         498.059         87.6151 
       0.974128         492.772         84.4093 
       0.989692         489.223         81.3962 
        1.00528         473.127         78.5264 
        1.02113         470.375         75.7505 
        1.03692         460.824         73.1197 
        1.05264         453.954         70.6264 
        1.06832          443.52         68.2537 
        1.08405         437.455         65.9841 
        1.09979          431.11         63.8168 
        1.11537         424.501         61.7687 
        1.13105         417.847         59.7987 
        1.14679         406.324         57.9073 
        1.16256         398.702         56.0943 
        1.17828         397.356         54.3652 
        1.19395         389.466          52.715 
         1.2097         378.755         51.1253 
        1.22537         373.347         49.6089 
          1.241         366.996         48.1589 
        1.25666         364.356         46.7635 
        1.27241         357.135         45.4169 
        1.28819         349.623         44.1213 
        1.30392         344.421         42.8802 
        1.31957         339.077         41.6925 
        1.33529         336.662         40.5455 
        1.35108         328.808         39.4374 
        1.36674         323.448         38.3786 
         1.3824         319.616         37.3599 
        1.39811         313.856         36.3748 
        1.41389         310.483         35.4216 
        1.42964         305.567         34.5042 
        1.44531         302.909         33.6239 
        1.46101         294.956         32.7726 
        1.47667         290.795         31.9533 
        1.49229         287.777         31.1643 
        1.50793         280.613         30.4011 
        1.52367           279.2         29.6587 
        1.53953         272.996         28.9361 
        1.55526         270.539         28.2434 
        1.57092         267.153         27.5763 
        1.58662         263.515         26.9292 
        1.60235         259.128         26.3017 
        1.61809         254.815         25.6939 
        1.63369         252.264         25.1107 
        1.64941          247.31         24.5416 
        1.66519         245.453          23.988 
        1.68085           242.6         23.4555 
        1.69652         238.999          22.939 
        1.71228         232.881         22.4352 
        1.72806          229.89         21.9462 
        1.74368         226.371         21.4767 
        1.75933         224.714           21.02 
        1.77505         221.678         20.5744 
        1.79081         218.775          20.141 
         1.8065         213.663          19.722 
        1.82218         211.151         19.3153 
        1.83797         210.386         18.9173 
        1.85367         206.514         18.5327 
        1.86928         202.475         18.1611 
        1.88497         200.747         17.7978 
        1.90073         197.219          17.443 
        1.91647         195.806         17.0982 
        1.93218         192.163         16.7636 
        1.94787         189.103         16.4383 
        1.96363           186.7         16.1204 
        1.97935         183.864         15.8116 
        1.99499         181.946         15.5127 
        2.01064         179.358          15.221 
         2.0264         177.813         14.9351 
        2.04216         175.367         14.6566 
        2.05781         172.943          14.387 
        2.07353         170.803         14.1232 
        2.08928         167.123         13.8655 
        2.10499         166.261         13.6149 
        2.12065         164.054         13.3712 
        2.13633          161.27         13.1333 
        2.15211         159.153         12.8997 
        2.16785         158.051         12.6724 
        2.18349         156.025          12.452 
        2.19916         153.612         12.2364 
        2.21489         152.006         12.0252 
        2.23063         149.901         11.8189 
         2.2463         147.574         11.6183 
        2.26194         145.303         11.4229 
        2.27765         143.952         11.2309 
        2.29341         141.862         11.0429 
        2.30914          140.63         10.8596 
        2.32486         138.905         10.6806 
        2.34061         136.896         10.5053 
        2.35635         135.387         10.3341 
        2.37203           133.7         10.1673 
        2.38768         131.853         10.0045 
        2.40339         130.332         9.84471 
        2.41914         128.829         9.68804 
        2.43483         126.973         9.53534 
         2.4505         125.846         9.38618 
        2.46622         124.205         9.23971 
        2.48195         122.228         9.09635 
        2.49759         121.145          8.9568 
        2.51328         120.268         8.81982 
        2.52906         118.644         8.68484 
        2.54479         116.633         8.55319 
        2.56049         114.815         8.42452 
        2.57618             114         8.29862 
        2.59189         112.866         8.17509 
        2.60758         111.368         8.05428 
        2.62325         109.806         7.93606 
        2.63898         108.757          7.8198 
        2.65468         107.336         7.70611 
        2.67044         105.963          7.5942 
        2.68618         105.042         7.48477 
        2.70184         104.004         7.37794 
        2.71755          102.58         7.27292 
        2.73329         101.482         7.16979 
        2.74897         100.268         7.06899 
        2.76462         99.1362         6.97036 
        2.78034         97.8121          6.8732 
        2.79607         96.6894         6.77779 
        2.81179          96.145          6.6843 
        2.82749         95.0135         6.59269 
        2.84321         93.4006         6.50268 
        2.85893         92.6494         6.41439 
        2.87462         91.6825         6.32788 
        2.89033         90.4527         6.24289 
        2.90605         89.6615         6.15939 
        2.92176          88.488         6.07746 
        2.93747         87.6778         5.99706 
        2.95318         87.0176          5.9181 
        2.96891          86.107         5.84053 
        2.98456         85.0912         5.76469 
        3.00023         84.2131         5.69009 
        3.01596         83.0579         5.61657 
        3.03164         82.2563         5.54456 
        3.04738         81.3277         5.47361 
         3.0631          80.506         5.40392 
        3.07883         79.4134         5.33544 
        3.09456         78.6501         5.26816 
        3.11026          78.056         5.20214 
        3.12596         77.2538         5.13726 
        3.14163         76.3783         5.07364 
        3.15734         75.6362         5.01095 
        3.17308         74.8196         4.94916 
        3.18879         74.0138         4.88859 
        3.20447         73.1334         4.82911 
         3.2202          72.406         4.77045 
         3.2359         71.6943         4.71286 
        3.25157         71.2032         4.65636 
        3.26729          70.284         4.60061 
        3.28304         69.6447         4.54567 
        3.29877         68.7378          4.4917 
        3.31446          68.283         4.43872 
        3.33014         67.4087         4.38664 
        3.34585         66.6517         4.33532 
        3.36158         66.0647         4.28474 
        3.37727         65.4545         4.23512 
        3.39294         64.5567         4.18634 
        3.40867         64.1594         4.13815 
        3.42439         63.5064         4.09075 
        3.44008          62.691         4.04418 
        3.45578         62.1445          3.9983 
        3.47153         61.4986         3.95303 
        3.48724          61.028         3.90854 
        3.50292         60.4712         3.86484 
        3.51859         59.7979         3.82183 
        3.53431         59.1497         3.77934 
        3.55007         58.6522         3.73739 
        3.56577         58.0882         3.69624 
        3.58146         57.5033         3.65573 
        3.59719         56.9761         3.61574 
        3.61292          56.367         3.57635 
        3.62859         55.8471          3.5377 
        3.64429         55.4385         3.49955 
        3.66003         54.8884         3.46184 
        3.67578          54.141         3.42471 
        3.69146         53.8471         3.38825 
        3.70712         53.4153          3.3524 
        3.72284         52.8443         3.31693 
        3.73853         52.4057         3.28203 
        3.75422         51.7917         3.24762 
        3.76993         51.4132         3.21368 
        3.78564         50.8285         3.18024 
        3.80137         50.4089         3.14721 
        3.81707         49.9154         3.11473 
        3.83279         49.4819         3.08267 
        3.84853         49.0059         3.05102 
        3.86424         48.6259         3.01987 
        3.87992         48.1987          2.9892 
        3.89561         47.7817         2.95896 
        3.91134         47.3723         2.92907 
        3.92704         46.8748         2.89964 
        3.94273         46.4865         2.87063 
        3.95845         46.0205         2.84197 
        3.97418         45.6077         2.81369 
        3.98988           45.17         2.78584 
        4.00554         44.8326         2.75843 
        4.02125         44.3332         2.73132 
        4.03698         43.8677         2.70453 
        4.05268         43.5782         2.67817 
        4.06839         43.1045         2.65213 
         4.0841         42.7903         2.62644 
        4.09983         42.4622         2.60107 
        4.11555         41.9585         2.57603 
        4.13124          41.636          2.5514 
        4.14693         41.3597         2.52706 
        4.16266         40.9763         2.50299 
        4.17839         40.6276         2.47924 
        4.19408         40.2161         2.45586 
        4.20977         39.8651         2.43276 
        4.22551         39.6299         2.40991 
        4.24123         39.1851         2.38738 
        4.25691          38.908         2.36519 
        4.27259         38.4654         2.34328 
        4.28831         38.2456         2.32161 
        4.30404         37.9187         2.30018 
        4.31974         37.6033         2.27908 
        4.33543         37.2472         2.25825 
        4.35116         36.9643         2.23763 
        4.36688         36.7029         2.21727 
        4.38255         36.3197         2.19725 
        4.39825         36.0069         2.17743 
        4.41398         35.6891         2.15781 
         4.4297         35.3915         2.13845 
        4.44541         35.0517         2.11934 
        4.46111         34.8006         2.10047 
        4.47683         34.4798         2.08182 
        4.49251         34.2573         2.06344 
        4.50819         33.9208         2.04528 
         4.5239         33.7461         2.02731 
        4.53962         33.3518         2.00954 
        4.55535         33.1326         1.99197 
        4.57106         32.8264         1.97464 
        4.58678         32.4537         1.95751 
         4.6025         32.3246         1.94058 
        4.61821         32.0165         1.92385 
        4.63391         31.6818         1.90734 
         4.6496         31.4364         1.89103 
        4.66532         31.1956         1.87488 
        4.68103         30.9707         1.85893 
        4.69673         30.6906         1.84318 
        4.71241         30.4505         1.82763 
        4.72811         30.2893         1.81224 
        4.74384         29.9436           1.797 
        4.75955         29.7115         1.78196 
        4.77525         29.5153          1.7671 
        4.79096         29.2112         1.75239 
        4.80669          29.038         1.73784 
         4.8224         28.8421         1.72347 
        4.83809         28.5652         1.70928 
        4.85379         28.3342         1.69524 
         4.8695         28.1095         1.68135 
        4.88521         27.8986         1.66762 
        4.90093         27.6931         1.65404 
        4.91663         27.4107         1.64062 
        4.93234          27.195         1.62734 
        4.94807         27.0233         1.61419 
        4.96377         26.8032         1.60122 
        4.97943         26.6193         1.58842 
        4.99514         26.3118         1.57572 
        5.01086         26.2207         1.56315 
        5.02654         25.9647         1.55075 
        5.04227         25.7701         1.53845 
          5.058         25.5985         1.52627 
        5.07371         25.3616         1.51426 
        5.08942         25.1876         1.50236 
        5.10513         24.9558          1.4906 
        5.12084         24.8195         1.47896 
        5.13656         24.5885         1.46744 
        5.15225         24.4093         1.45606 
        5.16796          24.225         1.44479 
        5.18369         24.0845         1.43362 
         5.1994         23.8547          1.4226 
        5.21509          23.687          1.4117 
        5.23079         23.4761          1.4009 
        5.24649         23.2632         1.39022 
        5.26217         23.1392         1.37966 
        5.27788         22.9703          1.3692 
        5.29359            22.8         1.35884 
        5.30933         22.6298         1.34857 
        5.32504         22.4243         1.33843 
        5.34073         22.2781          1.3284 
        5.35646         22.1486         1.31846 
        5.37218         21.9686         1.30861 
        5.38789         21.7463         1.29888 
        5.40357           21.61         1.28927 
        5.41929         21.4809         1.27972 
        5.43502         21.3339         1.27028 
         5.4507         21.1783         1.26095 
        5.46639         21.0232         1.25171 
        5.48212         20.8748         1.24254 
        5.49786         20.6845         1.23346 
        5.51353         20.5322         1.22451 
        5.52921         20.3542         1.21564 
        5.54495         20.2094         1.20683 
        5.56066         20.1177         1.19812 
        5.57637           19.93          1.1895 
        5.59207         19.7653         1.18096 
        5.60778         19.6675         1.17251 
        5.62346         19.4953         1.16416 
        5.63916         19.3683         1.15587 
        5.65487         19.2295         1.14767 
         5.6706         19.0498         1.13953 
        5.68633         18.9509         1.13147 
        5.70203         18.7765          1.1235 
        5.71773         18.6439         1.11561 
        5.73344          18.524         1.10779 
        5.74916         18.3821         1.10005 
        5.76486         18.2855         1.09238 
        5.78054         18.1579          1.0848 
        5.79626         18.0317         1.07727 
          5.812         17.8713          1.0698 
         5.8277         17.7853         1.06243 
        5.84339         17.6686         1.05513 
        5.85911         17.5369         1.04788 
        5.87484         17.3884          1.0407 
        5.89053         17.2631          1.0336 
        5.90623         17.1773         1.02657 
        5.92195         17.0646         1.01958 
        5.93767          16.963         1.01267 
        5.95336         16.8187         1.00583 
        5.96905         16.6707         0.99906 
        5.98476         16.5723         0.99234 
        6.00048          16.439         0.98568 
        6.01617         16.3075         0.97909 
        6.03185         16.2588        0.972568 
        6.04756          16.101         0.96609 
        6.06331         15.9921        0.959657 
        6.07903         15.8493        0.953296 
        6.09473         15.7732        0.946999 
        6.11044         15.6642        0.940753 
        6.12616         15.5506        0.934564 
        6.14186         15.4644        0.928437 
        6.15755         15.3492        0.922365 
        6.17326         15.2483        0.916343 
        6.18898         15.1261        0.910371 
        6.20467         15.0216        0.904464 
        6.22036         14.9241        0.898609 
         6.2361         14.8279         0.89279 
         6.2518         14.7338        0.887033 
        6.26748         14.6353        0.881338 
        6.28319         14.5355        0.875678 
        6.29893         14.4316        0.870063 
        6.31463         14.3495        0.864506 
        6.33033         14.2369           0.859 
        6.34604         14.1462        0.853538 
        6.36177         14.0605        0.848118 
        6.37747         13.9616        0.842755 
