# k  (h/Mpc)    Pcb(k)  (Mpc/h)^3    Pcb_linear(k) (Mpc/h)^3   ShotnoiseSubtracted = true
      0.0200456         12495.8         12685.5 
      0.0350414         9470.59         9221.95 
      0.0492313         6629.94         6700.49 
      0.0637834         5362.32         5570.06 
      0.0800726          4222.8         4420.82 
       0.096163         3319.38         3207.69 
       0.111083         2697.99         2558.54 
       0.126058         2246.64         2267.38 
       0.142273         1940.16         1920.97 
       0.158546         1593.19         1517.17 
        0.17375         1396.02         1278.21 
       0.188953         1295.77         1157.39 
       0.204907         1107.37         1024.05 
       0.220756         993.153         866.412 
        0.23588         882.932         753.704 
         0.2514         790.843         684.732 
       0.267535         766.947         619.565 
       0.283568         670.926         546.373 
       0.299022         639.777          486.79 
       0.314451          648.14         444.893 
       0.330372         557.248          408.14 
       0.346141         516.003         370.449 
       0.361624         493.107         336.687 
       0.377134         462.259         309.805 
       0.392932         447.802         286.657 
       0.408854         425.935         264.242 
       0.424564         411.883         243.556 
       0.440253         373.052         225.805 
       0.455999         357.131         210.369 
       0.471626         358.941         196.184 
        0.48727          340.23         182.915 
       0.502856         312.838         170.994 
       0.518488         313.802         160.358 
       0.534347         291.753          150.47 
       0.550082         282.894         141.353 
       0.565732          281.29         133.012 
       0.581496         267.396         125.373 
       0.597222         260.082         118.367 
       0.612804         253.082         111.924 
       0.628434         243.679          105.92 
       0.644267         233.055         100.306 
       0.660051         229.172         95.1317 
       0.675724         226.454         90.3541 
       0.691403         220.337         85.9005 
       0.707174         212.591          81.722 
       0.722871         209.304         77.8382 
        0.73838         207.375         74.2482 
       0.754018         196.544         70.8576 
       0.769845         196.361         67.6418 
        0.78569         191.286         64.6229 
       0.801365         185.944         61.8184 
       0.817031         181.761         59.1828 
       0.832809         178.749         56.6849 
       0.848511         174.338         54.3431 
       0.864097         170.514         52.1503 
       0.879701         169.273          50.077 
       0.895507         165.105         48.0924 
       0.911279         160.321         46.2201 
        0.92691         157.962         44.4634 
       0.942635         155.829         42.7887 
       0.958396         152.915         41.1971 
       0.974128         149.843         39.6897 
       0.989692         145.687         38.2729 
        1.00528         144.618         36.9235 
        1.02113         141.172         35.6183 
        1.03692         139.517         34.3813 
        1.05264         137.625         33.2089 
        1.06832         135.155         32.0932 
        1.08405         132.672         31.0261 
        1.09979         131.848          30.007 
        1.11537         128.707          29.044 
        1.13105         127.336         28.1177 
        1.14679         125.187         27.2283 
        1.16256         122.994         26.3758 
        1.17828         121.652         25.5628 
        1.19395         118.716         24.7869 
         1.2097         117.918         24.0394 
        1.22537         115.748         23.3264 
          1.241         114.514         22.6446 
        1.25666         111.622         21.9884 
        1.27241         109.616         21.3553 
        1.28819         109.104         20.7461 
        1.30392         107.092         20.1625 
        1.31957         105.404          19.604 
        1.33529         104.223         19.0647 
        1.35108         103.307         18.5437 
        1.36674         101.279         18.0458 
         1.3824          100.94         17.5668 
        1.39811         98.3234         17.1036 
        1.41389         97.4486         16.6554 
        1.42964         95.4778         16.2241 
        1.44531         94.7426         15.8102 
        1.46101         93.3652         15.4098 
        1.47667          92.723         15.0246 
        1.49229         91.7017         14.6536 
        1.50793         89.9409         14.2948 
        1.52367         89.1438         13.9457 
        1.53953         87.9969         13.6059 
        1.55526         86.5773         13.2802 
        1.57092         86.1651         12.9665 
        1.58662          84.913         12.6623 
        1.60235          83.525         12.3672 
        1.61809         82.7176         12.0814 
        1.63369         81.3347         11.8072 
        1.64941         81.3558         11.5396 
        1.66519         79.5179         11.2793 
        1.68085         78.5838         11.0289 
        1.69652         77.2494         10.7861 
        1.71228         76.4401         10.5492 
        1.72806         75.9948         10.3192 
        1.74368         74.6871         10.0984 
        1.75933         74.0145         9.88369 
        1.77505         73.3523          9.6742 
        1.79081         72.0261         9.47042 
         1.8065         71.7366         9.27339 
        1.82218         70.1689         9.08215 
        1.83797         69.8413         8.89501 
        1.85367         68.6761         8.71418 
        1.86928         68.0336         8.53947 
        1.88497         67.3484         8.36861 
        1.90073         66.4614         8.20179 
        1.91647         65.5733         8.03969 
        1.93218         64.9315         7.88231 
        1.94787          64.073         7.72939 
        1.96363         63.2765         7.57992 
        1.97935          62.629         7.43472 
        1.99499         61.9674         7.29415 
        2.01064         61.2867         7.15701 
         2.0264         60.4924         7.02254 
        2.04216         59.7869          6.8916 
        2.05781          59.072         6.76483 
        2.07353         58.3866          6.6408 
        2.08928         57.7221         6.51961 
        2.10499         57.1109         6.40178 
        2.12065         56.5805         6.28721 
        2.13633         56.0778         6.17536 
        2.15211         55.2252          6.0655 
        2.16785         54.3991         5.95863 
        2.18349         53.8914         5.85501 
        2.19916         53.2396         5.75363 
        2.21489         52.8675         5.65432 
        2.23063         52.0593         5.55729 
         2.2463         51.6124         5.46298 
        2.26194         51.3008         5.37109 
        2.27765           50.45         5.28085 
        2.29341         49.7944         5.19245 
        2.30914         49.2291         5.10625 
        2.32486          48.651         5.02207 
        2.34061         48.3415         4.93964 
        2.35635         47.5381         4.85913 
        2.37203         47.1452         4.78071 
        2.38768         46.7579         4.70417 
        2.40339         46.2364         4.62904 
        2.41914         45.7458         4.55537 
        2.43483         44.9963         4.48357 
         2.4505         44.7737         4.41343 
        2.46622         44.2835         4.34456 
        2.48195          43.695         4.27715 
        2.49759         43.1999         4.21154 
        2.51328         42.8769         4.14713 
        2.52906         42.3367         4.08366 
        2.54479         41.9985         4.02176 
        2.56049         41.2504         3.96126 
        2.57618         41.0123         3.90205 
        2.59189         40.5683         3.84397 
        2.60758         39.9773         3.78717 
        2.62325         39.8436         3.73158 
        2.63898         39.3071         3.67691 
        2.65468         38.9443         3.62346 
        2.67044         38.6245         3.57083 
        2.68618         38.2443         3.51938 
        2.70184         37.6065         3.46915 
        2.71755          37.404         3.41977 
        2.73329         36.7815         3.37127 
        2.74897         36.5819         3.32388 
        2.76462         36.0601          3.2775 
        2.78034         35.8074         3.23182 
        2.79607         35.3343         3.18695 
        2.81179         35.0249           3.143 
        2.82749          34.656         3.09992 
        2.84321         34.2228          3.0576 
        2.85893          33.897         3.01608 
        2.87462         33.5652          2.9754 
        2.89033         33.3166         2.93544 
        2.90605         32.9399         2.89618 
        2.92176         32.7316         2.85766 
        2.93747         32.3955         2.81985 
        2.95318         31.9941         2.78272 
        2.96891         31.6761         2.74625 
        2.98456         31.4044         2.71059 
        3.00023         31.0174         2.67551 
        3.01596         30.7608         2.64094 
        3.03164         30.3993         2.60708 
        3.04738          30.193         2.57372 
         3.0631         29.9364         2.54095 
        3.07883         29.5054         2.50875 
        3.09456         29.1484         2.47712 
        3.11026         28.8969         2.44608 
        3.12596         28.6213         2.41557 
        3.14163         28.3423         2.38565 
        3.15734         28.0677         2.35617 
        3.17308         27.7495         2.32712 
        3.18879         27.5099         2.29864 
        3.20447         27.2788         2.27068 
         3.2202          26.939         2.24309 
         3.2359         26.6725         2.21601 
        3.25157         26.5118         2.18944 
        3.26729         26.2403         2.16323 
        3.28304         25.8535          2.1374 
        3.29877         25.6105         2.11202 
        3.31446         25.3916         2.08711 
        3.33014         25.2076         2.06262 
        3.34585         24.9392         2.03849 
        3.36158         24.7374         2.01471 
        3.37727         24.4352         1.99138 
        3.39294         24.2276         1.96844 
        3.40867          24.001         1.94578 
        3.42439         23.7968         1.92349 
        3.44008         23.5343         1.90159 
        3.45578         23.4266         1.88002 
        3.47153         23.0874         1.85874 
        3.48724         22.8892         1.83782 
        3.50292         22.6789         1.81727 
        3.51859         22.4764         1.79704 
        3.53431         22.2697         1.77707 
        3.55007         22.0486         1.75734 
        3.56577         21.8793         1.73799 
        3.58146         21.6662         1.71895 
        3.59719         21.4287         1.70014 
        3.61292         21.2447         1.68162 
        3.62859         21.0301         1.66345 
        3.64429         20.7918         1.64551 
        3.66003         20.7213         1.62778 
        3.67578         20.5106         1.61032 
        3.69146         20.2567         1.59317 
        3.70712         20.1345         1.57631 
        3.72284          19.915         1.55964 
        3.73853         19.7577         1.54323 
        3.75422         19.5215         1.52705 
        3.76993         19.3915         1.51109 
        3.78564         19.2188         1.49536 
        3.80137         19.0516         1.47984 
        3.81707         18.8878         1.46456 
        3.83279         18.6844         1.44949 
        3.84853         18.5088         1.43461 
        3.86424         18.3434         1.41996 
        3.87992         18.1668         1.40554 
        3.89561          18.057         1.39132 
        3.91134         17.8231         1.37727 
        3.92704         17.7083         1.36342 
        3.94273         17.5451         1.34979 
        3.95845         17.3976         1.33631 
        3.97418         17.2137         1.32301 
        3.98988         17.0684         1.30992 
        4.00554         16.9998         1.29703 
        4.02125         16.7509         1.28428 
        4.03698         16.5786         1.27169 
        4.05268         16.5007         1.25929 
        4.06839         16.3683         1.24704 
         4.0841         16.1936         1.23497 
        4.09983         16.0333         1.22303 
        4.11555         15.8971         1.21126 
        4.13124         15.8048         1.19968 
        4.14693         15.6891         1.18824 
        4.16266         15.5529         1.17692 
        4.17839         15.3857         1.16575 
        4.19408         15.2378         1.15476 
        4.20977         15.1328          1.1439 
        4.22551         14.9948         1.13315 
        4.24123         14.8559         1.12256 
        4.25691          14.688         1.11213 
        4.27259         14.6247         1.10182 
        4.28831         14.5412         1.09163 
        4.30404         14.3615         1.08156 
        4.31974         14.2718         1.07163 
        4.33543         14.1306         1.06184 
        4.35116         13.9933         1.05214 
        4.36688         13.8903         1.04257 
        4.38255         13.7818         1.03316 
        4.39825         13.6268         1.02384 
        4.41398         13.5648         1.01461 
         4.4297          13.415         1.00551 
        4.44541         13.3088        0.996525 
        4.46111         13.2242        0.987654 
        4.47683         13.0991        0.978885 
        4.49251         12.9902         0.97024 
        4.50819         12.8896        0.961702 
         4.5239         12.7867        0.953254 
        4.53962         12.6972        0.944897 
        4.55535         12.5701        0.936636 
        4.57106         12.4746        0.928486 
        4.58678         12.3863         0.92043 
         4.6025         12.2874        0.912469 
        4.61821         12.1781        0.904603 
        4.63391         12.0854         0.89684 
         4.6496         11.9765        0.889171 
        4.66532         11.8885        0.881579 
        4.68103         11.7809         0.87408 
        4.69673         11.6675        0.866675 
        4.71241         11.6114        0.859363 
        4.72811         11.5379        0.852123 
        4.74384         11.4083        0.844958 
        4.75955         11.3423        0.837886 
        4.77525         11.2463        0.830898 
        4.79096         11.1804        0.823982 
        4.80669           11.09        0.817141 
         4.8224         11.0068        0.810385 
        4.83809         10.9081        0.803713 
        4.85379          10.814        0.797112 
         4.8695         10.7175        0.790579 
        4.88521         10.6632        0.784123 
        4.90093          10.594        0.777738 
        4.91663         10.4857        0.771429 
        4.93234         10.3964        0.765183 
        4.94807         10.3246        0.759003 
        4.96377         10.2507        0.752902 
        4.97943         10.1752        0.746882 
        4.99514         10.0492        0.740911 
        5.01086         10.0233        0.735001 
        5.02654         9.95022        0.729171 
        5.04227         9.83915        0.723387 
          5.058         9.79253        0.717662 
        5.07371         9.70418        0.712011 
        5.08942         9.66095         0.70642 
        5.10513         9.56309        0.700888 
        5.12084         9.51261        0.695413 
        5.13656         9.42517        0.689997 
        5.15225         9.33825        0.684648 
        5.16796         9.27926        0.679347 
        5.18369         9.21748        0.674098 
         5.1994         9.14269        0.668913 
        5.21509         9.06061        0.663788 
        5.23079         8.99546         0.65871 
        5.24649         8.93037        0.653689 
        5.26217          8.8542        0.648724 
        5.27788         8.82519        0.643804 
        5.29359         8.72559        0.638933 
        5.30933         8.68928        0.634106 
        5.32504         8.62663        0.629337 
        5.34073         8.56425        0.624622 
        5.35646         8.48195        0.619946 
        5.37218         8.43395        0.615317 
        5.38789         8.35564        0.610743 
        5.40357         8.29053         0.60622 
        5.41929         8.26218        0.601733 
        5.43502         8.19173        0.597291 
         5.4507         8.12297        0.592904 
        5.46639         8.06834        0.588561 
        5.48212         8.01802        0.584251 
        5.49786         7.95897        0.579979 
        5.51353         7.90706        0.575771 
        5.52921         7.85468          0.5716 
        5.54495         7.79784        0.567459 
        5.56066         7.72359        0.563362 
        5.57637         7.68765        0.559307 
        5.59207         7.63053        0.555296 
        5.60778          7.5735        0.551322 
        5.62346         7.51263        0.547393 
        5.63916         7.47019        0.543498 
        5.65487         7.42415        0.539639 
         5.6706         7.36387        0.535812 
        5.68633         7.31265        0.532022 
        5.70203         7.24874        0.528276 
        5.71773         7.21298        0.524567 
        5.73344         7.16643        0.520891 
        5.74916         7.11475        0.517247 
        5.76486         7.07118        0.513643 
        5.78054         7.01687        0.510079 
        5.79626         6.95793        0.506538 
          5.812          6.9363        0.503028 
         5.8277         6.86633        0.499561 
        5.84339         6.82249        0.496127 
        5.85911         6.76613        0.492718 
        5.87484          6.7325        0.489342 
        5.89053         6.68979        0.486005 
        5.90623         6.64795        0.482697 
        5.92195         6.60115        0.479414 
        5.93767         6.54771        0.476163 
        5.95336         6.50553        0.472948 
        5.96905         6.46727        0.469763 
        5.98476          6.4153        0.466604 
        6.00048         6.37907        0.463472 
        6.01617         6.33618        0.460373 
        6.03185         6.29176        0.457307 
        6.04756         6.25304        0.454261 
        6.06331         6.21518        0.451236 
        6.07903         6.16468        0.448245 
        6.09473         6.13292        0.445284 
        6.11044         6.09914        0.442347 
        6.12616         6.03933        0.439437 
        6.14186         6.01099        0.436556 
        6.15755         5.97377        0.433701 
        6.17326         5.93313        0.430869 
        6.18898         5.89292        0.428061 
        6.20467         5.85067        0.425284 
        6.22036          5.8169        0.422531 
         6.2361         5.77929        0.419795 
         6.2518         5.73332        0.417087 
        6.26748         5.71426         0.41441 
        6.28319          5.6692        0.411749 
        6.29893         5.63848        0.409108 
        6.31463         5.59965        0.406495 
        6.33033         5.56813        0.403906 
        6.34604         5.52205        0.401338 
        6.36177         5.49487        0.398789 
        6.37747         5.45681        0.396268 
