# k  (h/Mpc)    Pcb(k)  (Mpc/h)^3    Pcb_linear(k) (Mpc/h)^3   ShotnoiseSubtracted = true
      0.0200456         11776.2         11952.8 
      0.0350414         8919.56         8689.31 
      0.0492313         6252.62         6313.49 
      0.0637834         5059.23         5248.35 
      0.0800726         3985.29         4165.48 
       0.096163         3126.27         3022.42 
       0.111083          2540.2         2410.76 
       0.126058         2117.36         2136.42 
       0.142273          1826.2         1810.02 
       0.158546         1499.26         1429.54 
        0.17375         1311.76         1204.38 
       0.188953         1215.29         1090.54 
       0.204907         1037.98         964.908 
       0.220756          930.33         816.371 
        0.23588         826.572         710.172 
         0.2514         740.189         645.184 
       0.267535         717.382          583.78 
       0.283568         626.917         514.816 
       0.299022         597.319         458.674 
       0.314451         602.992         419.197 
       0.330372         518.248         384.566 
       0.346141         480.102         349.053 
       0.361624         458.389         317.241 
       0.377134         428.533         291.912 
       0.392932          415.64           270.1 
       0.408854           395.1          248.98 
       0.424564         381.606         229.489 
       0.440253         345.153         212.763 
       0.455999         330.181         198.219 
       0.471626         330.862         184.853 
        0.48727         314.008          172.35 
       0.502856         288.094         161.118 
       0.518488         289.118         151.096 
       0.534347         268.585         141.779 
       0.550082         260.964         133.189 
       0.565732         259.313         125.329 
       0.581496         245.277         118.131 
       0.597222         238.826          111.53 
       0.612804         232.203          105.46 
       0.628434         223.838          99.802 
       0.644267         213.851         94.5124 
       0.660051         209.969         89.6371 
       0.675724         207.594         85.1354 
       0.691403         201.982         80.9391 
       0.707174         194.984          77.002 
       0.722871         191.936         73.3424 
        0.73838         190.113         69.9598 
       0.754018         179.671          66.765 
       0.769845         179.531          63.735 
        0.78569          174.84         60.8905 
       0.801365         169.867         58.2479 
       0.817031         165.787         55.7646 
       0.832809         163.025         53.4109 
       0.848511         159.063         51.2044 
       0.864097         155.779         49.1382 
       0.879701         154.375         47.1847 
       0.895507         150.378         45.3147 
       0.911279         146.217         43.5505 
        0.92691         143.822         41.8953 
       0.942635         141.559         40.3173 
       0.958396         139.269         38.8176 
       0.974128          136.37         37.3973 
       0.989692         132.811         36.0624 
        1.00528         131.594         34.7909 
        1.02113         128.271         33.5611 
        1.03692         127.167         32.3955 
        1.05264         125.515         31.2908 
        1.06832         122.619         30.2396 
        1.08405         120.815         29.2341 
        1.09979         120.007         28.2739 
        1.11537         116.973         27.3665 
        1.13105         115.811         26.4937 
        1.14679         113.746         25.6557 
        1.16256         111.649         24.8524 
        1.17828         110.519         24.0863 
        1.19395          107.76         23.3553 
         1.2097         107.156         22.6509 
        1.22537         104.914         21.9791 
          1.241         104.176         21.3367 
        1.25666         101.166         20.7184 
        1.27241         99.7075         20.1219 
        1.28819         99.2428         19.5478 
        1.30392         97.3729          18.998 
        1.31957         95.9885         18.4717 
        1.33529         94.8059         17.9636 
        1.35108         94.1601         17.4726 
        1.36674         92.2906         17.0036 
         1.3824         91.9221         16.5522 
        1.39811         89.5131         16.1158 
        1.41389         88.5809         15.6934 
        1.42964         86.9914          15.287 
        1.44531         86.3439          14.897 
        1.46101           85.29         14.5198 
        1.47667         84.4004         14.1568 
        1.49229         83.4943         13.8073 
        1.50793         82.0277         13.4691 
        1.52367          81.388         13.1402 
        1.53953         80.2517         12.8201 
        1.55526         78.8452         12.5132 
        1.57092         78.6219         12.2176 
        1.58662         77.4986         11.9309 
        1.60235         76.2837         11.6529 
        1.61809         75.3411         11.3836 
        1.63369         74.2482         11.1253 
        1.64941         74.2301         10.8731 
        1.66519         72.4326         10.6278 
        1.68085         71.7392         10.3919 
        1.69652         70.4528         10.1631 
        1.71228         69.7707         9.93988 
        1.72806         69.4069         9.72321 
        1.74368         68.2364         9.51518 
        1.75933         67.6133         9.31284 
        1.77505         66.9844         9.11544 
        1.79081         65.8257         8.92343 
         1.8065         65.6268         8.73778 
        1.82218         63.9463         8.55759 
        1.83797         63.6498         8.38125 
        1.85367          62.791         8.21087 
        1.86928         62.2125         8.04625 
        1.88497         61.4471         7.88526 
        1.90073         60.6012         7.72808 
        1.91647         60.0309         7.57533 
        1.93218         59.4483         7.42705 
        1.94787         58.6059         7.28296 
        1.96363         57.8492         7.14212 
        1.97935         57.2305         7.00531 
        1.99499         56.6781         6.87285 
        2.01064         56.0569         6.74364 
         2.0264         55.4986         6.61694 
        2.04216          54.723         6.49356 
        2.05781         54.0547         6.37411 
        2.07353         53.3432         6.25724 
        2.08928         52.8792         6.14306 
        2.10499         52.3592         6.03203 
        2.12065         51.8162         5.92408 
        2.13633         51.3781         5.81868 
        2.15211         50.6144         5.71517 
        2.16785         49.8559         5.61447 
        2.18349         49.3395         5.51684 
        2.19916         48.8049         5.42131 
        2.21489         48.5537         5.32774 
        2.23063         47.7415         5.23632 
         2.2463         47.3371         5.14745 
        2.26194         47.0168         5.06087 
        2.27765         46.2784         4.97584 
        2.29341          45.612         4.89255 
        2.30914         45.1824         4.81133 
        2.32486         44.6087           4.732 
        2.34061          44.306         4.65434 
        2.35635         43.6296         4.57848 
        2.37203         43.2407         4.50458 
        2.38768         42.9529         4.43247 
        2.40339         42.4778         4.36168 
        2.41914         42.0607         4.29226 
        2.43483         41.2578         4.22461 
         2.4505         41.1271         4.15852 
        2.46622         40.6735         4.09363 
        2.48195         40.1838         4.03012 
        2.49759          39.719         3.96829 
        2.51328         39.3647          3.9076 
        2.52906          38.947          3.8478 
        2.54479         38.5821         3.78947 
        2.56049         38.0205         3.73246 
        2.57618         37.7561         3.67668 
        2.59189         37.2909         3.62196 
        2.60758         36.8064         3.56843 
        2.62325         36.7486         3.51605 
        2.63898         36.1856         3.46454 
        2.65468         35.8083         3.41417 
        2.67044         35.5482         3.36459 
        2.68618          35.207         3.31611 
        2.70184         34.6779         3.26878 
        2.71755         34.4439         3.22225 
        2.73329         33.9001         3.17656 
        2.74897         33.6468          3.1319 
        2.76462         33.2272          3.0882 
        2.78034         33.0167         3.04515 
        2.79607         32.5826         3.00288 
        2.81179         32.3249         2.96146 
        2.82749         31.9932         2.92087 
        2.84321         31.6102           2.881 
        2.85893         31.3127         2.84188 
        2.87462         31.0517         2.80355 
        2.89033         30.7467          2.7659 
        2.90605         30.4933          2.7289 
        2.92176         30.2784          2.6926 
        2.93747         29.9037         2.65698 
        2.95318         29.5882           2.622 
        2.96891         29.3509         2.58763 
        2.98456         29.0188         2.55403 
        3.00023         28.6604         2.52098 
        3.01596         28.4403         2.48841 
        3.03164          28.108          2.4565 
        3.04738          27.922         2.42507 
         3.0631         27.6794         2.39419 
        3.07883         27.2817         2.36385 
        3.09456         26.9917         2.33404 
        3.11026          26.734          2.3048 
        3.12596         26.4517         2.27605 
        3.14163         26.2143         2.24786 
        3.15734         26.0083         2.22009 
        3.17308         25.6768         2.19271 
        3.18879         25.4973         2.16588 
        3.20447         25.2457         2.13953 
         3.2202         24.9311         2.11353 
         3.2359         24.7244         2.08802 
        3.25157         24.5522         2.06299 
        3.26729         24.3405         2.03829 
        3.28304         23.9852         2.01395 
        3.29877         23.7767         1.99003 
        3.31446         23.5903         1.96656 
        3.33014         23.3645         1.94349 
        3.34585         23.1814         1.92075 
        3.36158          22.929         1.89834 
        3.37727         22.6928         1.87636 
        3.39294         22.5208         1.85475 
        3.40867         22.3188          1.8334 
        3.42439         22.0892          1.8124 
        3.44008         21.8402         1.79176 
        3.45578         21.7271         1.77144 
        3.47153           21.45         1.75138 
        3.48724          21.324         1.73167 
        3.50292         21.0854         1.71231 
        3.51859         20.9199         1.69325 
        3.53431         20.7374         1.67443 
        3.55007         20.5187         1.65584 
        3.56577          20.364         1.63761 
        3.58146         20.1334         1.61966 
        3.59719         19.9344         1.60194 
        3.61292         19.7824         1.58449 
        3.62859         19.5549         1.56737 
        3.64429         19.3451         1.55047 
        3.66003         19.3072         1.53376 
        3.67578         19.1048         1.51731 
        3.69146         18.8549         1.50116 
        3.70712         18.7198         1.48527 
        3.72284          18.547         1.46956 
        3.73853         18.3965          1.4541 
        3.75422         18.2331         1.43885 
        3.76993         18.0665         1.42381 
        3.78564          17.924           1.409 
        3.80137         17.7539         1.39436 
        3.81707         17.5914         1.37997 
        3.83279         17.3966         1.36577 
        3.84853         17.2556         1.35175 
        3.86424         17.0936         1.33795 
        3.87992         16.9409         1.32436 
        3.89561         16.8215         1.31096 
        3.91134         16.6561         1.29772 
        3.92704         16.5341         1.28468 
        3.94273         16.4042         1.27183 
        3.95845          16.221         1.25913 
        3.97418         16.0641          1.2466 
        3.98988         15.9385         1.23426 
        4.00554         15.8629         1.22212 
        4.02125         15.6299         1.21011 
        4.03698          15.479         1.19824 
        4.05268         15.4188         1.18655 
        4.06839         15.2645         1.17502 
         4.0841         15.1423         1.16364 
        4.09983         14.9487          1.1524 
        4.11555           14.89          1.1413 
        4.13124         14.7722         1.13039 
        4.14693         14.6459         1.11961 
        4.16266         14.5268         1.10894 
        4.17839         14.3671         1.09842 
        4.19408         14.2338         1.08806 
        4.20977         14.1503         1.07783 
        4.22551         14.0158         1.06771 
        4.24123         13.8813         1.05772 
        4.25691         13.7578         1.04789 
        4.27259         13.6501         1.03819 
        4.28831         13.5885         1.02858 
        4.30404         13.4664         1.01909 
        4.31974         13.3385         1.00974 
        4.33543         13.2004         1.00051 
        4.35116         13.1051        0.991375 
        4.36688         12.9797        0.982357 
        4.38255         12.9003        0.973485 
        4.39825         12.7836        0.964703 
        4.41398         12.6844        0.956011 
         4.4297         12.5597        0.947437 
        4.44541         12.4675        0.938968 
        4.46111         12.3817         0.93061 
        4.47683          12.259        0.922347 
        4.49251         12.1603        0.914202 
        4.50819         12.0599        0.906156 
         4.5239         11.9808        0.898196 
        4.53962         11.8866        0.890322 
        4.55535         11.7741        0.882538 
        4.57106         11.6963        0.874859 
        4.58678         11.5978        0.867269 
         4.6025         11.5005        0.859767 
        4.61821          11.405        0.852355 
        4.63391         11.3248         0.84504 
         4.6496         11.2314        0.837814 
        4.66532         11.1542        0.830662 
        4.68103         11.0434        0.823595 
        4.69673          10.943        0.816618 
        4.71241         10.8842        0.809728 
        4.72811          10.806        0.802907 
        4.74384         10.6804        0.796155 
        4.75955         10.6306        0.789491 
        4.77525         10.5481        0.782907 
        4.79096         10.4811        0.776391 
        4.80669         10.3759        0.769945 
         4.8224         10.2998        0.763579 
        4.83809         10.2095        0.757292 
        4.85379         10.1382        0.751073 
         4.8695         10.0467        0.744917 
        4.88521         9.97219        0.738834 
        4.90093         9.90494        0.732817 
        4.91663         9.79981        0.726873 
        4.93234         9.74909        0.720988 
        4.94807         9.66251        0.715165 
        4.96377         9.60544        0.709417 
        4.97943         9.51706        0.703744 
        4.99514         9.42522        0.698118 
        5.01086         9.40392        0.692549 
        5.02654         9.32179        0.687056 
        5.04227          9.2209        0.681606 
          5.058         9.15982        0.676212 
        5.07371         9.08312        0.670887 
        5.08942         9.03407        0.665619 
        5.10513         8.94744        0.660407 
        5.12084         8.91332        0.655248 
        5.13656         8.81947        0.650145 
        5.15225         8.74081        0.645105 
        5.16796         8.69108         0.64011 
        5.18369         8.61702        0.635164 
         5.1994         8.56718        0.630279 
        5.21509         8.50711        0.625449 
        5.23079          8.4344        0.620665 
        5.24649         8.35536        0.615934 
        5.26217         8.30517        0.611255 
        5.27788         8.26601        0.606619 
        5.29359         8.18602         0.60203 
        5.30933         8.13248        0.597482 
        5.32504         8.08623        0.592988 
        5.34073         8.02487        0.588546 
        5.35646         7.94989         0.58414 
        5.37218         7.89706        0.579778 
        5.38789         7.81596        0.575468 
        5.40357         7.78127        0.571206 
        5.41929         7.73389        0.566978 
        5.43502         7.67425        0.562793 
         5.4507         7.62128        0.558659 
        5.46639         7.56389        0.554567 
        5.48212         7.50913        0.550506 
        5.49786         7.46842        0.546481 
        5.51353         7.40828        0.542516 
        5.52921         7.35901        0.538586 
        5.54495         7.29677        0.534684 
        5.56066         7.23695        0.530824 
        5.57637         7.20466        0.527003 
        5.59207         7.15585        0.523223 
        5.60778         7.09059        0.519479 
        5.62346         7.04184        0.515777 
        5.63916         7.00591        0.512107 
        5.65487         6.96523         0.50847 
         5.6706         6.90304        0.504865 
        5.68633         6.86778        0.501294 
        5.70203         6.80724        0.497764 
        5.71773         6.77483        0.494269 
        5.73344         6.72309        0.490806 
        5.74916         6.66625        0.487372 
        5.76486         6.63473        0.483976 
        5.78054         6.57308        0.480618 
        5.79626         6.52804        0.477282 
          5.812         6.49697        0.473974 
         5.8277         6.44045        0.470708 
        5.84339         6.40476        0.467472 
        5.85911         6.35048         0.46426 
        5.87484          6.3218        0.461079 
        5.89053         6.27241        0.457934 
        5.90623         6.24406        0.454817 
        5.92195         6.19082        0.451724 
        5.93767         6.14947        0.448661 
        5.95336         6.10413        0.445631 
        5.96905         6.06697        0.442631 
        5.98476         6.03019        0.439654 
        6.00048         5.99012        0.436703 
        6.01617         5.95073        0.433783 
        6.03185         5.90982        0.430894 
        6.04756         5.87128        0.428024 
        6.06331         5.83695        0.425174 
        6.07903         5.78592        0.422356 
        6.09473         5.75876        0.419566 
        6.11044         5.71745        0.416798 
        6.12616          5.6699        0.414056 
        6.14186         5.64452        0.411342 
        6.15755         5.61925        0.408651 
        6.17326         5.56885        0.405983 
        6.18898         5.53778        0.403338 
        6.20467         5.49697         0.40072 
        6.22036         5.46693        0.398126 
         6.2361         5.43147        0.395549 
         6.2518         5.38939        0.392998 
        6.26748         5.36639        0.390475 
        6.28319          5.3284        0.387967 
        6.29893         5.29233        0.385479 
        6.31463         5.27586        0.383017 
        6.33033         5.22331        0.380578 
        6.34604         5.19259        0.378158 
        6.36177           5.159        0.375756 
        6.37747         5.13084         0.37338 
