# k  (h/Mpc)    Pcb(k)  (Mpc/h)^3    Pcb_linear(k) (Mpc/h)^3   ShotnoiseSubtracted = true
      0.0200456         3856.96         3917.56 
      0.0350414         2806.74         2847.93 
      0.0492313         2069.64         2069.25 
      0.0637834         1745.27         1720.15 
      0.0800726         1383.43         1365.24 
       0.096163         981.009         990.602 
       0.111083         778.081         790.129 
       0.126058         707.805         700.215 
       0.142273          607.18         593.237 
       0.158546         489.003         468.532 
        0.17375         399.362         394.738 
       0.188953         374.154         357.427 
       0.204907         346.891          316.25 
       0.220756         289.612         267.566 
        0.23588           252.7         232.759 
         0.2514           224.5          211.46 
       0.267535         209.511         191.335 
       0.283568          188.43         168.731 
       0.299022         172.026         150.331 
       0.314451         155.188         137.392 
       0.330372         144.267         126.042 
       0.346141         130.334         114.402 
       0.361624          122.14         103.976 
       0.377134         114.953         95.6744 
       0.392932          102.93         88.5257 
       0.408854         99.0346         81.6036 
       0.424564         94.2208         75.2152 
       0.440253         87.2449         69.7332 
       0.455999         82.1523         64.9664 
       0.471626         76.3766         60.5857 
        0.48727         73.5172         56.4879 
       0.502856         69.4783         52.8066 
       0.518488         66.6573         49.5219 
       0.534347         64.0314         46.4683 
       0.550082         58.7637         43.6527 
       0.565732         55.4752         41.0769 
       0.581496         53.8919         38.7177 
       0.597222         52.1318         36.5541 
       0.612804         48.9379         34.5646 
       0.628434         47.4749         32.7102 
       0.644267         46.1731         30.9765 
       0.660051         44.1589         29.3787 
       0.675724         42.0073         27.9032 
       0.691403         40.7169         26.5279 
       0.707174         39.4895         25.2375 
       0.722871         37.9768         24.0381 
        0.73838         36.7946         22.9294 
       0.754018         35.1667         21.8823 
       0.769845         34.2607         20.8892 
        0.78569         33.2198         19.9569 
       0.801365         32.0157         19.0908 
       0.817031         31.2787         18.2769 
       0.832809         30.6624         17.5055 
       0.848511         28.8688         16.7823 
       0.864097         28.3799         16.1051 
       0.879701         27.7602         15.4648 
       0.895507          27.152          14.852 
       0.911279         26.2831         14.2737 
        0.92691         25.6536         13.7312 
       0.942635         24.6791          13.214 
       0.958396         24.3004         12.7225 
       0.974128         23.5611          12.257 
       0.989692         23.3151         11.8195 
        1.00528         22.7549         11.4028 
        1.02113         21.8648         10.9997 
        1.03692         21.4257         10.6177 
        1.05264         21.0496         10.2556 
        1.06832         20.5385         9.91107 
        1.08405         20.0293         9.58151 
        1.09979         19.6293          9.2668 
        1.11537         19.2342         8.96939 
        1.13105         18.9362         8.68332 
        1.14679         18.6639         8.40867 
        1.16256         17.9815         8.14541 
        1.17828          17.942         7.89433 
        1.19395         17.3426         7.65471 
         1.2097         17.1923         7.42386 
        1.22537         16.7571         7.20368 
          1.241         16.4896         6.99312 
        1.25666         16.0866         6.79049 
        1.27241         15.7689         6.59496 
        1.28819          15.468         6.40682 
        1.30392         15.3443          6.2266 
        1.31957         15.1249         6.05413 
        1.33529         14.8625         5.88759 
        1.35108         14.5068         5.72667 
        1.36674         14.3609         5.57293 
         1.3824          14.019           5.425 
        1.39811         13.8125         5.28196 
        1.41389          13.654         5.14354 
        1.42964         13.4654         5.01033 
        1.44531         13.3181         4.88251 
        1.46101         12.9392         4.75888 
        1.47667         12.8097         4.63992 
        1.49229         12.6465         4.52535 
        1.50793         12.4564         4.41453 
        1.52367         12.2591         4.30671 
        1.53953          12.097         4.20179 
        1.55526         11.9156          4.1012 
        1.57092         11.7415         4.00433 
        1.58662         11.6251         3.91037 
        1.60235         11.4292         3.81925 
        1.61809         11.2941         3.73099 
        1.63369          11.135         3.64631 
        1.64941         10.9499         3.56366 
        1.66519         10.8776         3.48328 
        1.68085         10.6991         3.40596 
        1.69652         10.5527         3.33096 
        1.71228         10.4046          3.2578 
        1.72806         10.3507         3.18679 
        1.74368         10.1612         3.11861 
        1.75933         10.0624         3.05229 
        1.77505          9.9355          2.9876 
        1.79081         9.76445         2.92466 
         1.8065          9.7075         2.86382 
        1.82218         9.53186         2.80476 
        1.83797         9.47077         2.74696 
        1.85367         9.32321         2.69112 
        1.86928         9.31641         2.63717 
        1.88497          9.0941          2.5844 
        1.90073         9.06301         2.53289 
        1.91647         8.97836         2.48282 
        1.93218         8.88387         2.43422 
        1.94787         8.74239           2.387 
        1.96363         8.68366         2.34084 
        1.97935         8.53757           2.296 
        1.99499         8.43173         2.25259 
        2.01064         8.36183         2.21023 
         2.0264         8.29128         2.16871 
        2.04216         8.19363         2.12827 
        2.05781         8.08031         2.08912 
        2.07353         8.03233         2.05082 
        2.08928         7.95386         2.01339 
        2.10499         7.90731           1.977 
        2.12065          7.7791         1.94162 
        2.13633         7.75239         1.90708 
        2.15211         7.62631         1.87315 
        2.16785         7.56807         1.84015 
        2.18349         7.50741         1.80815 
        2.19916         7.42618         1.77684 
        2.21489         7.33603         1.74617 
        2.23063         7.27865         1.71621 
         2.2463         7.19119         1.68708 
        2.26194         7.11239         1.65871 
        2.27765         7.08722         1.63084 
        2.29341         7.00799         1.60354 
        2.30914         6.91768         1.57692 
        2.32486         6.84021         1.55092 
        2.34061         6.80602         1.52546 
        2.35635         6.77017          1.5006 
        2.37203         6.69477         1.47638 
        2.38768         6.60217         1.45275 
        2.40339         6.57155         1.42954 
        2.41914         6.47224         1.40679 
        2.43483          6.4626         1.38462 
         2.4505         6.39164         1.36296 
        2.46622         6.33785         1.34169 
        2.48195         6.26353         1.32087 
        2.49759         6.24824         1.30061 
        2.51328         6.17107         1.28072 
        2.52906         6.14682         1.26112 
        2.54479         6.06909           1.242 
        2.56049         6.03268         1.22332 
        2.57618         5.97916         1.20504 
        2.59189         5.90352          1.1871 
        2.60758           5.892         1.16956 
        2.62325         5.81859         1.15239 
        2.63898         5.75285         1.13551 
        2.65468         5.70749           1.119 
        2.67044         5.67481         1.10275 
        2.68618         5.64359         1.08686 
        2.70184          5.5808         1.07134 
        2.71755         5.53085          1.0561 
        2.73329         5.50411         1.04112 
        2.74897         5.47668         1.02648 
        2.76462          5.4314         1.01216 
        2.78034         5.35584        0.998052 
        2.79607         5.32655        0.984198 
        2.81179         5.30165        0.970623 
        2.82749         5.23246        0.957319 
        2.84321         5.23827         0.94425 
        2.85893         5.18204        0.931429 
        2.87462         5.12327        0.918867 
        2.89033         5.09023        0.906526 
        2.90605         5.04736        0.894401 
        2.92176         4.99632        0.882504 
        2.93747         4.96845        0.870829 
        2.95318         4.94465        0.859364 
        2.96891          4.9017        0.848099 
        2.98456         4.87028        0.837086 
        3.00023         4.81368        0.826253 
        3.01596         4.78907        0.815578 
        3.03164         4.77414        0.805122 
        3.04738         4.73187        0.794819 
         3.0631         4.68855        0.784699 
        3.07883         4.65725        0.774755 
        3.09456         4.62639        0.764986 
        3.11026         4.60661        0.755399 
        3.12596         4.56189        0.745978 
        3.14163         4.51892         0.73674 
        3.15734          4.4888        0.727636 
        3.17308         4.46938        0.718664 
        3.18879         4.42774        0.709868 
        3.20447         4.41492        0.701232 
         3.2202         4.35792        0.692713 
         3.2359         4.34973        0.684351 
        3.25157         4.30169        0.676146 
        3.26729          4.2889        0.668052 
        3.28304         4.25131        0.660073 
        3.29877         4.22144        0.652236 
        3.31446         4.18452        0.644543 
        3.33014         4.17329        0.636981 
        3.34585         4.14188        0.629528 
        3.36158         4.12128        0.622184 
        3.37727         4.08387        0.614979 
        3.39294         4.07221        0.607896 
        3.40867         4.02577        0.600898 
        3.42439         4.00477        0.594015 
        3.44008         3.97529        0.587252 
        3.45578         3.94849         0.58059 
        3.47153         3.92466        0.574017 
        3.48724         3.90023        0.567557 
        3.50292         3.88305        0.561211 
        3.51859         3.85012        0.554965 
        3.53431         3.81515        0.548795 
        3.55007         3.80701        0.542704 
        3.56577         3.78753        0.536729 
        3.58146         3.76051        0.530846 
        3.59719         3.73537        0.525039 
        3.61292         3.71232         0.51932 
        3.62859           3.675        0.513707 
        3.64429         3.65381        0.508167 
        3.66003         3.64347        0.502692 
        3.67578          3.6185        0.497299 
        3.69146         3.58632        0.492006 
        3.70712         3.57141        0.486799 
        3.72284         3.54153        0.481648 
        3.73853         3.53045        0.476581 
        3.75422         3.50373        0.471585 
        3.76993         3.47446        0.466656 
        3.78564         3.46131          0.4618 
        3.80137         3.44503        0.457004 
        3.81707         3.41098        0.452287 
        3.83279         3.39638        0.447633 
        3.84853         3.36734        0.443036 
        3.86424         3.35024        0.438513 
        3.87992         3.33016         0.43406 
        3.89561         3.31377        0.429669 
        3.91134         3.29225        0.425329 
        3.92704           3.271        0.421054 
        3.94273         3.24908        0.416842 
        3.95845         3.23539         0.41268 
        3.97418          3.2076        0.408574 
        3.98988         3.18954        0.404529 
        4.00554         3.16484         0.40055 
        4.02125         3.13888        0.396614 
        4.03698         3.12932        0.392723 
        4.05268          3.1047        0.388894 
        4.06839          3.0943        0.385114 
         4.0841         3.06913        0.381384 
        4.09983         3.04368        0.377699 
        4.11555         3.03153        0.374064 
        4.13124         3.01048        0.370486 
        4.14693         2.98699        0.366953 
        4.16266         2.97128        0.363457 
        4.17839         2.95526        0.360009 
        4.19408         2.92769        0.356613 
        4.20977         2.91278         0.35326 
        4.22551         2.89143        0.349942 
        4.24123         2.87637         0.34667 
        4.25691         2.85905        0.343448 
        4.27259         2.84713        0.340267 
        4.28831         2.82732        0.337119 
        4.30404           2.808        0.334008 
        4.31974         2.79503        0.330943 
        4.33543         2.77762        0.327918 
        4.35116         2.75644        0.324924 
        4.36688         2.74853        0.321969 
        4.38255         2.72736        0.319061 
        4.39825         2.71337        0.316182 
        4.41398         2.69919        0.313334 
         4.4297         2.67947        0.310523 
        4.44541         2.66383        0.307748 
        4.46111         2.64976        0.305008 
        4.47683         2.62619          0.3023 
        4.49251         2.62037        0.299631 
        4.50819         2.60288        0.296994 
         4.5239          2.5886        0.294385 
        4.53962         2.57677        0.291804 
        4.55535         2.56448        0.289253 
        4.57106         2.55003        0.286736 
        4.58678         2.53294        0.284248 
         4.6025          2.5177         0.28179 
        4.61821         2.50376         0.27936 
        4.63391         2.49076        0.276963 
         4.6496          2.4765        0.274595 
        4.66532         2.45437         0.27225 
        4.68103         2.44965        0.269934 
        4.69673         2.43436        0.267647 
        4.71241         2.41608        0.265389 
        4.72811         2.40797        0.263154 
        4.74384         2.39761        0.260941 
        4.75955         2.38489        0.258757 
        4.77525         2.37316        0.256599 
        4.79096         2.35492        0.254463 
        4.80669         2.34733         0.25235 
         4.8224           2.337        0.250264 
        4.83809         2.32254        0.248203 
        4.85379         2.30918        0.246165 
         4.8695         2.29479        0.244147 
        4.88521         2.28199        0.242154 
        4.90093         2.26708        0.240182 
        4.91663         2.25602        0.238233 
        4.93234         2.24564        0.236305 
        4.94807         2.23517        0.234396 
        4.96377         2.21876        0.232512 
        4.97943         2.21424        0.230653 
        4.99514         2.19941        0.228809 
        5.01086         2.18403        0.226984 
        5.02654         2.17776        0.225183 
        5.04227         2.17126        0.223397 
          5.058         2.15797        0.221629 
        5.07371         2.14453        0.219884 
        5.08942         2.13779        0.218157 
        5.10513         2.12351        0.216449 
        5.12084         2.11969        0.214758 
        5.13656         2.10234        0.213086 
        5.15225         2.09296        0.211434 
        5.16796         2.07804        0.209797 
        5.18369         2.07091        0.208176 
         5.1994         2.06377        0.206574 
        5.21509         2.05019        0.204992 
        5.23079         2.04289        0.203423 
        5.24649         2.03135        0.201873 
        5.26217         2.02626         0.20034 
        5.27788         2.01062         0.19882 
        5.29359         2.00849        0.197316 
        5.30933         1.99699        0.195825 
        5.32504         1.98367        0.194352 
        5.34073         1.97728        0.192896 
        5.35646         1.96398        0.191452 
        5.37218         1.95543        0.190023 
        5.38789         1.95344         0.18861 
        5.40357         1.94201        0.187213 
        5.41929         1.93302        0.185828 
        5.43502         1.92286        0.184456 
         5.4507         1.91377        0.183101 
        5.46639         1.90835         0.18176 
        5.48212         1.89624        0.180429 
        5.49786         1.89138         0.17911 
        5.51353         1.87799         0.17781 
        5.52921         1.86965        0.176522 
        5.54495          1.8632        0.175243 
        5.56066         1.85523        0.173978 
        5.57637         1.84565        0.172726 
        5.59207         1.83835        0.171487 
        5.60778         1.83003         0.17026 
        5.62346         1.82311        0.169046 
        5.63916         1.81118        0.167843 
        5.65487         1.80325        0.166652 
         5.6706         1.79977         0.16547 
        5.68633         1.78576          0.1643 
        5.70203         1.77967        0.163143 
        5.71773         1.77381        0.161997 
        5.73344         1.76329        0.160862 
        5.74916         1.75397        0.159737 
        5.76486         1.74963        0.158624 
        5.78054          1.7421        0.157523 
        5.79626         1.73222         0.15643 
          5.812         1.72849        0.155346 
         5.8277         1.71831        0.154275 
        5.84339         1.71354        0.153214 
        5.85911         1.70483        0.152162 
        5.87484          1.6995        0.151119 
        5.89053         1.69112        0.150088 
        5.90623         1.68158        0.149067 
        5.92195          1.6762        0.148053 
        5.93767         1.66896        0.147049 
        5.95336         1.66181        0.146056 
        5.96905         1.65481        0.145073 
        5.98476         1.64737        0.144097 
        6.00048         1.63918         0.14313 
        6.01617         1.63636        0.142173 
        6.03185         1.62822        0.141226 
        6.04756          1.6214        0.140285 
        6.06331         1.61405        0.139351 
        6.07903         1.60911        0.138427 
        6.09473         1.60573        0.137513 
        6.11044         1.59418        0.136606 
        6.12616         1.58807        0.135707 
        6.14186         1.58125        0.134818 
        6.15755         1.57765        0.133936 
        6.17326         1.56919        0.133061 
        6.18898         1.56511        0.132194 
        6.20467         1.55838        0.131337 
        6.22036         1.55003        0.130486 
         6.2361         1.54462        0.129641 
         6.2518          1.5396        0.128805 
        6.26748         1.53211        0.127978 
        6.28319          1.5266        0.127157 
        6.29893         1.52229        0.126341 
        6.31463         1.51448        0.125534 
        6.33033         1.50988        0.124735 
        6.34604         1.50214        0.123942 
        6.36177         1.49816        0.123155 
        6.37747         1.49247        0.122376 
