# k  (h/Mpc)    Pcb(k)  (Mpc/h)^3    Pcb_linear(k) (Mpc/h)^3   ShotnoiseSubtracted = true
      0.0200456           130.6         132.354 
      0.0350414         96.2932         96.2166 
      0.0492313         70.2138         69.9092 
      0.0637834         58.2816         58.1149 
      0.0800726         46.1924         46.1243 
       0.096163          33.556         33.4672 
       0.111083         26.7154         26.6943 
       0.126058         23.6649         23.6566 
       0.142273         20.0629         20.0423 
       0.158546         15.9149         15.8292 
        0.17375          13.335         13.3361 
       0.188953         12.0741         12.0756 
       0.204907         10.7798         10.6844 
       0.220756         9.08598         9.03966 
        0.23588         7.90399         7.86372 
         0.2514          7.1456         7.14411 
       0.267535         6.46534         6.46419 
       0.283568         5.71733         5.70055 
       0.299022         5.10646         5.07889 
       0.314451         4.62338         4.64176 
       0.330372         4.25641          4.2583 
       0.346141         3.86613         3.86505 
       0.361624          3.5241          3.5128 
       0.377134         3.25126         3.23233 
       0.392932         2.96197         2.99082 
       0.408854         2.76879         2.75695 
       0.424564         2.53886         2.54112 
       0.440253         2.35696         2.35592 
       0.455999         2.20511         2.19487 
       0.471626         2.06071         2.04687 
        0.48727         1.91037         1.90843 
       0.502856         1.78152         1.78406 
       0.518488         1.68666         1.67308 
       0.534347         1.59019         1.56992 
       0.550082         1.47491          1.4748 
       0.565732         1.37444         1.38777 
       0.581496         1.31256         1.30807 
       0.597222         1.24156         1.23497 
       0.612804         1.16902         1.16776 
       0.628434         1.11415         1.10511 
       0.644267         1.04978         1.04653 
       0.660051        0.992656         0.99255 
       0.675724        0.945909        0.942703 
       0.691403        0.902102        0.896237 
       0.707174        0.855124        0.852642 
       0.722871        0.810234        0.812119 
        0.73838        0.778719        0.774664 
       0.754018        0.746532        0.739288 
       0.769845        0.710773        0.705737 
        0.78569        0.677805        0.674239 
       0.801365        0.646627        0.644978 
       0.817031        0.620341         0.61748 
       0.832809        0.594104        0.591418 
       0.848511        0.567806        0.566985 
       0.864097        0.542561        0.544107 
       0.879701        0.520395        0.522475 
       0.895507        0.503829        0.501769 
       0.911279        0.484102        0.482234 
        0.92691        0.464251        0.463906 
       0.942635        0.447196        0.446433 
       0.958396        0.429135        0.429827 
       0.974128         0.41331          0.4141 
       0.989692        0.399599        0.399318 
        1.00528        0.386229        0.385239 
        1.02113        0.369404        0.371621 
        1.03692        0.358414        0.358715 
        1.05264        0.346111        0.346483 
        1.06832        0.334764        0.334843 
        1.08405        0.321657        0.323709 
        1.09979         0.31108        0.313076 
        1.11537        0.303345        0.303029 
        1.13105        0.293109        0.293364 
        1.14679        0.285024        0.284085 
        1.16256        0.273232         0.27519 
        1.17828        0.264923        0.266708 
        1.19395        0.256317        0.258612 
         1.2097        0.248222        0.250813 
        1.22537        0.242679        0.243374 
          1.241        0.234761        0.236261 
        1.25666        0.229011        0.229415 
        1.27241        0.221165        0.222809 
        1.28819        0.214724        0.216453 
        1.30392        0.208626        0.210364 
        1.31957        0.203077        0.204537 
        1.33529        0.196766        0.198911 
        1.35108        0.191379        0.193474 
        1.36674        0.184819         0.18828 
         1.3824        0.182097        0.183282 
        1.39811        0.176195        0.178449 
        1.41389        0.171673        0.173773 
        1.42964        0.167902        0.169273 
        1.44531        0.162148        0.164954 
        1.46101        0.158651        0.160778 
        1.47667        0.153676        0.156758 
        1.49229        0.150495        0.152888 
        1.50793        0.146159        0.149144 
        1.52367        0.142918        0.145501 
        1.53953        0.139723        0.141956 
        1.55526        0.136254        0.138558 
        1.57092        0.131945        0.135285 
        1.58662        0.129494        0.132111 
        1.60235        0.126851        0.129032 
        1.61809        0.122674        0.126051 
        1.63369        0.120777         0.12319 
        1.64941         0.11797        0.120397 
        1.66519        0.114821        0.117682 
        1.68085        0.111956        0.115069 
        1.69652        0.109317        0.112536 
        1.71228        0.107485        0.110064 
        1.72806        0.104251        0.107665 
        1.74368        0.102538        0.105361 
        1.75933        0.100228        0.103121 
        1.77505       0.0979029        0.100935 
        1.79081       0.0961355        0.098809 
         1.8065       0.0933564       0.0967533 
        1.82218       0.0917379        0.094758 
        1.83797       0.0896186       0.0928055 
        1.85367       0.0877747       0.0909188 
        1.86928       0.0862306        0.089096 
        1.88497       0.0845225       0.0873133 
        1.90073       0.0825281       0.0855729 
        1.91647       0.0806753       0.0838815 
        1.93218       0.0789784       0.0822396 
        1.94787       0.0773256        0.080644 
        1.96363       0.0759936       0.0790846 
        1.97935       0.0741506       0.0775696 
        1.99499       0.0729187        0.076103 
        2.01064       0.0716593       0.0746722 
         2.0264       0.0701977       0.0732692 
        2.04216       0.0687533       0.0719031 
        2.05781       0.0675014       0.0705804 
        2.07353       0.0658009       0.0692864 
        2.08928       0.0647214        0.068022 
        2.10499       0.0632813       0.0667925 
        2.12065       0.0625048       0.0655972 
        2.13633       0.0609949       0.0644302 
        2.15211       0.0602707        0.063284 
        2.16785       0.0590269        0.062169 
        2.18349       0.0575033       0.0610878 
        2.19916       0.0570558       0.0600301 
        2.21489       0.0560332        0.058994 
        2.23063       0.0548804       0.0579817 
         2.2463        0.053691       0.0569976 
        2.26194       0.0527232       0.0560389 
        2.27765       0.0517862       0.0550974 
        2.29341       0.0511385       0.0541751 
        2.30914       0.0499813       0.0532758 
        2.32486       0.0491014       0.0523974 
        2.34061       0.0483413       0.0515374 
        2.35635       0.0474243       0.0506975 
        2.37203       0.0466521       0.0498792 
        2.38768       0.0458355       0.0490807 
        2.40339       0.0449978       0.0482967 
        2.41914       0.0444377       0.0475281 
        2.43483       0.0434241        0.046779 
         2.4505       0.0426958       0.0460473 
        2.46622       0.0420603       0.0453287 
        2.48195       0.0412259       0.0446254 
        2.49759       0.0407811       0.0439408 
        2.51328       0.0402215       0.0432688 
        2.52906       0.0394638       0.0426066 
        2.54479       0.0387733       0.0419607 
        2.56049       0.0381885       0.0413295 
        2.57618       0.0375641       0.0407118 
        2.59189       0.0369747       0.0401058 
        2.60758       0.0364919       0.0395132 
        2.62325       0.0358079       0.0389332 
        2.63898       0.0352673       0.0383628 
        2.65468       0.0346005       0.0378051 
        2.67044       0.0342721       0.0372561 
        2.68618       0.0336688       0.0367192 
        2.70184       0.0331269       0.0361951 
        2.71755       0.0324824       0.0356799 
        2.73329       0.0321014        0.035174 
        2.74897       0.0317026       0.0346795 
        2.76462       0.0311265       0.0341956 
        2.78034       0.0307106       0.0337189 
        2.79607       0.0302533       0.0332509 
        2.81179       0.0298213       0.0327922 
        2.82749       0.0293343       0.0323428 
        2.84321       0.0289188       0.0319012 
        2.85893       0.0284842       0.0314681 
        2.87462       0.0281737       0.0310437 
        2.89033       0.0277619       0.0306267 
        2.90605       0.0272313       0.0302171 
        2.92176       0.0269772       0.0298152 
        2.93747       0.0265643       0.0294207 
        2.95318       0.0261051       0.0290334 
        2.96891       0.0258349       0.0286528 
        2.98456       0.0255441       0.0282807 
        3.00023       0.0250681       0.0279147 
        3.01596       0.0246837       0.0275541 
        3.03164        0.024497       0.0272008 
        3.04738       0.0241107       0.0268527 
         3.0631       0.0236706       0.0265109 
        3.07883       0.0233676       0.0261749 
        3.09456       0.0232014       0.0258448 
        3.11026       0.0227865        0.025521 
        3.12596       0.0225847       0.0252027 
        3.14163       0.0222274       0.0248906 
        3.15734       0.0219503        0.024583 
        3.17308       0.0216582       0.0242799 
        3.18879       0.0213749       0.0239827 
        3.20447       0.0211575       0.0236909 
         3.2202       0.0208453       0.0234031 
         3.2359       0.0206266       0.0231206 
        3.25157       0.0203175       0.0228434 
        3.26729       0.0201113       0.0225699 
        3.28304       0.0198241       0.0223004 
        3.29877       0.0196286       0.0220356 
        3.31446       0.0193433       0.0217757 
        3.33014       0.0191135       0.0215202 
        3.34585       0.0188976       0.0212684 
        3.36158        0.018597       0.0210203 
        3.37727       0.0184437       0.0207769 
        3.39294       0.0182438       0.0205376 
        3.40867       0.0180339       0.0203012 
        3.42439       0.0178315       0.0200686 
        3.44008        0.017614       0.0198402 
        3.45578       0.0174478       0.0196151 
        3.47153       0.0172005        0.019393 
        3.48724       0.0171032       0.0191747 
        3.50292       0.0167983       0.0189604 
        3.51859       0.0165831       0.0187493 
        3.53431       0.0165037       0.0185409 
        3.55007       0.0163175       0.0183351 
        3.56577       0.0161901       0.0181332 
        3.58146       0.0158982       0.0179345 
        3.59719       0.0157762       0.0177383 
        3.61292       0.0155724       0.0175451 
        3.62859       0.0154157       0.0173555 
        3.64429       0.0153101       0.0171683 
        3.66003       0.0151273       0.0169833 
        3.67578       0.0149684       0.0168011 
        3.69146       0.0148588       0.0166223 
        3.70712        0.014724       0.0164464 
        3.72284       0.0145254       0.0162724 
        3.73853       0.0143605       0.0161012 
        3.75422       0.0143038       0.0159324 
        3.76993       0.0140997       0.0157659 
        3.78564       0.0140231       0.0156018 
        3.80137       0.0138697       0.0154398 
        3.81707       0.0136812       0.0152804 
        3.83279       0.0135841       0.0151232 
        3.84853       0.0134661       0.0149679 
        3.86424       0.0133081       0.0148151 
        3.87992       0.0132138       0.0146646 
        3.89561       0.0131156       0.0145162 
        3.91134       0.0130041       0.0143696 
        3.92704       0.0128348       0.0142252 
        3.94273       0.0127193       0.0140829 
        3.95845       0.0125894       0.0139423 
        3.97418       0.0124958       0.0138036 
        3.98988       0.0123766       0.0136669 
        4.00554       0.0122207       0.0135325 
        4.02125       0.0120649       0.0133995 
        4.03698       0.0119593       0.0132681 
        4.05268       0.0117731       0.0131387 
        4.06839       0.0115995        0.013011 
         4.0841       0.0114671        0.012885 
        4.09983       0.0112915       0.0127605 
        4.11555       0.0111848       0.0126376 
        4.13124       0.0110081       0.0125168 
        4.14693       0.0108651       0.0123974 
        4.16266       0.0107287       0.0122793 
        4.17839       0.0105909       0.0121628 
        4.19408        0.010492       0.0120481 
        4.20977       0.0103561       0.0119348 
        4.22551       0.0102169       0.0118227 
        4.24123       0.0101076       0.0117121 
        4.25691       0.0100174       0.0116033 
        4.27259      0.00990244       0.0114958 
        4.28831      0.00982959       0.0113895 
        4.30404      0.00972148       0.0112844 
        4.31974      0.00960689       0.0111808 
        4.33543      0.00952356       0.0110786 
        4.35116      0.00944202       0.0109775 
        4.36688      0.00936586       0.0108776 
        4.38255      0.00930425       0.0107794 
        4.39825      0.00925065       0.0106821 
        4.41398      0.00920721       0.0105859 
         4.4297      0.00914067       0.0104909 
        4.44541      0.00907587       0.0103972 
        4.46111      0.00901538       0.0103046 
        4.47683      0.00899224       0.0102131 
        4.49251      0.00892296       0.0101229 
        4.50819      0.00888791       0.0100339 
         4.5239      0.00886304      0.00994571 
        4.53962      0.00884707      0.00985852 
        4.55535      0.00882225      0.00977233 
        4.57106      0.00882924      0.00968729 
        4.58678      0.00877006      0.00960325 
         4.6025      0.00878857      0.00952018 
        4.61821      0.00877886      0.00943811 
        4.63391      0.00876673      0.00935712 
         4.6496      0.00878315       0.0092771 
        4.66532      0.00877341       0.0091979 
        4.68103      0.00879453      0.00911966 
        4.69673      0.00880513       0.0090424 
        4.71241      0.00885643      0.00896611 
        4.72811      0.00883419      0.00889057 
        4.74384      0.00887476      0.00881581 
        4.75955      0.00889799      0.00874202 
        4.77525       0.0089549      0.00866912 
        4.79096      0.00900682      0.00859696 
        4.80669      0.00900378      0.00852558 
         4.8224      0.00910688       0.0084551 
        4.83809      0.00912655      0.00838549 
        4.85379      0.00921006      0.00831661 
         4.8695      0.00924783      0.00824846 
        4.88521       0.0093071      0.00818109 
        4.90093      0.00938422      0.00811447 
        4.91663      0.00951989      0.00804865 
        4.93234      0.00956578      0.00798349 
        4.94807      0.00965303      0.00791901 
        4.96377      0.00971234      0.00785536 
        4.97943      0.00982203      0.00779254 
        4.99514      0.00991812      0.00773025 
        5.01086        0.010004      0.00766859 
        5.02654       0.0101586      0.00760776 
        5.04227       0.0102703      0.00754741 
          5.058       0.0103926      0.00748768 
        5.07371       0.0105048      0.00742872 
        5.08942       0.0107154      0.00737039 
        5.10513       0.0107732      0.00731267 
        5.12084       0.0108962      0.00725555 
        5.13656       0.0110773      0.00719904 
        5.15225       0.0112132      0.00714323 
        5.16796        0.011424      0.00708793 
        5.18369       0.0115348      0.00703316 
         5.1994       0.0117353      0.00697906 
        5.21509       0.0119436      0.00692559 
        5.23079         0.01206      0.00687261 
        5.24649       0.0122969      0.00682022 
        5.26217       0.0124773      0.00676842 
        5.27788       0.0127191      0.00671708 
        5.29359       0.0128829      0.00666627 
        5.30933       0.0131891      0.00661591 
        5.32504       0.0133268      0.00656615 
        5.34073       0.0136268      0.00651695 
        5.35646       0.0138237      0.00646817 
        5.37218       0.0140991      0.00641987 
        5.38789       0.0143592      0.00637214 
        5.40357       0.0145711      0.00632496 
        5.41929       0.0148303      0.00627814 
        5.43502       0.0151344      0.00623179 
         5.4507       0.0154599      0.00618603 
        5.46639       0.0158515      0.00614071 
        5.48212        0.015945      0.00609574 
        5.49786         0.01632      0.00605117 
        5.51353       0.0167411      0.00600727 
        5.52921        0.017082      0.00596375 
        5.54495       0.0174454      0.00592054 
        5.56066       0.0177696      0.00587781 
        5.57637       0.0181625       0.0058355 
        5.59207       0.0184825      0.00579364 
        5.60778        0.018881      0.00575218 
        5.62346       0.0193434      0.00571118 
        5.63916       0.0197032      0.00567055 
        5.65487       0.0201962      0.00563028 
         5.6706       0.0204758      0.00559036 
        5.68633       0.0210501      0.00555082 
        5.70203       0.0215006      0.00551173 
        5.71773       0.0220184      0.00547303 
        5.73344       0.0224418      0.00543468 
        5.74916       0.0231045      0.00539666 
        5.76486       0.0235431      0.00535906 
        5.78054       0.0239329      0.00532187 
        5.79626       0.0245976      0.00528493 
          5.812       0.0251213      0.00524831 
         5.8277        0.025756      0.00521214 
        5.84339       0.0262974      0.00517631 
        5.85911       0.0271015      0.00514074 
        5.87484       0.0277196      0.00510552 
        5.89053       0.0283167       0.0050707 
        5.90623       0.0291072      0.00503618 
        5.92195       0.0299129      0.00500193 
        5.93767       0.0304635      0.00496801 
        5.95336       0.0312829      0.00493447 
        5.96905       0.0320396      0.00490124 
        5.98476       0.0325318      0.00486828 
        6.00048       0.0334986       0.0048356 
        6.01617       0.0342927      0.00480328 
        6.03185       0.0352001      0.00477128 
        6.04756       0.0360931       0.0047395 
        6.06331       0.0369548      0.00470794 
        6.07903        0.038132      0.00467674 
        6.09473       0.0388768      0.00464584 
        6.11044       0.0400437       0.0046152 
        6.12616       0.0412451      0.00458484 
        6.14186       0.0420054      0.00455478 
        6.15755       0.0431012      0.00452499 
        6.17326       0.0439354      0.00449545 
        6.18898       0.0454823      0.00446615 
        6.20467       0.0469412      0.00443717 
        6.22036        0.047915      0.00440845 
         6.2361       0.0491973       0.0043799 
         6.2518       0.0506227      0.00435165 
        6.26748       0.0515295      0.00432372 
        6.28319       0.0534374      0.00429595 
        6.29893       0.0547693       0.0042684 
        6.31463       0.0562486      0.00424114 
        6.33033        0.057628      0.00421413 
        6.34604       0.0592568      0.00418733 
        6.36177       0.0611439      0.00416074 
        6.37747       0.0625319      0.00413443 
