# k  (h/Mpc)    Pcb(k)  (Mpc/h)^3    Pcb_linear(k) (Mpc/h)^3   ShotnoiseSubtracted = true
      0.0200456         292.034           295.8 
      0.0350414          216.82         215.037 
      0.0492313         156.887         156.242 
      0.0637834         129.203         129.882 
      0.0800726         102.337         103.084 
       0.096163         75.6006         74.7967 
       0.111083         60.4668         59.6598 
       0.126058         52.6676         52.8707 
       0.142273         44.5077         44.7931 
       0.158546         35.5037         35.3772 
        0.17375         30.1036         29.8052 
       0.188953         27.0363          26.988 
       0.204907           23.56         23.8789 
       0.220756         20.2447          20.203 
        0.23588         17.6223         17.5748 
         0.2514         15.9962         15.9665 
       0.267535         14.4989          14.447 
       0.283568         12.7878         12.7403 
       0.299022         11.4194         11.3509 
       0.314451         10.5468          10.374 
       0.330372         9.59241         9.51698 
       0.346141         8.71261          8.6381 
       0.361624         7.90587         7.85086 
       0.377134         7.25227         7.22403 
       0.392932         6.84414         6.68425 
       0.408854         6.20519         6.16159 
       0.424564         5.80927         5.67922 
       0.440253         5.33871          5.2653 
       0.455999         4.92671         4.90537 
       0.471626         4.59752         4.57461 
        0.48727         4.35345         4.26519 
       0.502856         4.07617         3.98723 
       0.518488         3.76536         3.73922 
       0.534347         3.51716         3.50865 
       0.550082         3.35101         3.29606 
       0.565732         3.18568         3.10156 
       0.581496         2.97944         2.92343 
       0.597222         2.80882         2.76007 
       0.612804         2.64973         2.60985 
       0.628434          2.5148         2.46983 
       0.644267         2.39283         2.33892 
       0.660051         2.26933         2.21828 
       0.675724         2.13955         2.10687 
       0.691403         2.03955         2.00302 
       0.707174         1.93958         1.90559 
       0.722871         1.88132         1.81503 
        0.73838         1.75958         1.73132 
       0.754018         1.67944         1.65225 
       0.769845         1.59021         1.57727 
        0.78569          1.5384         1.50687 
       0.801365          1.4741         1.44148 
       0.817031         1.41512         1.38002 
       0.832809         1.34392         1.32178 
       0.848511         1.29437         1.26717 
       0.864097         1.24782         1.21604 
       0.879701         1.20531         1.16769 
       0.895507         1.14255         1.12142 
       0.911279         1.10716         1.07776 
        0.92691         1.07316         1.03679 
       0.942635         1.01813        0.997744 
       0.958396        0.984618        0.960631 
       0.974128        0.950247        0.925482 
       0.989692        0.915422        0.892446 
        1.00528        0.878909        0.860981 
        1.02113        0.856906        0.830546 
        1.03692        0.830078          0.8017 
        1.05264        0.793327        0.774363 
        1.06832        0.769845        0.748348 
        1.08405        0.739861        0.723465 
        1.09979         0.72001        0.699702 
        1.11537        0.692631        0.677246 
        1.13105         0.66669        0.655646 
        1.14679        0.651097        0.634908 
        1.16256        0.631666         0.61503 
        1.17828        0.613989        0.596072 
        1.19395        0.594459        0.577979 
         1.2097         0.57455        0.560549 
        1.22537        0.555326        0.543923 
          1.241        0.540542        0.528025 
        1.25666        0.528338        0.512725 
        1.27241        0.510512        0.497961 
        1.28819        0.494226        0.483756 
        1.30392        0.482439        0.470148 
        1.31957        0.468009        0.457126 
        1.33529        0.455241         0.44455 
        1.35108         0.44176          0.4324 
        1.36674        0.429763        0.420792 
         1.3824        0.420595        0.409622 
        1.39811        0.406637        0.398821 
        1.41389        0.398071         0.38837 
        1.42964        0.387194        0.378312 
        1.44531        0.376143         0.36866 
        1.46101        0.365192        0.359326 
        1.47667        0.357382        0.350343 
        1.49229        0.347233        0.341692 
        1.50793        0.340054        0.333325 
        1.52367        0.329875        0.325184 
        1.53953        0.321502        0.317262 
        1.55526         0.31442        0.309667 
        1.57092        0.309534        0.302353 
        1.58662        0.301396        0.295258 
        1.60235        0.293816        0.288378 
        1.61809        0.285642        0.281714 
        1.63369         0.27846         0.27532 
        1.64941        0.273152        0.269079 
        1.66519        0.267562         0.26301 
        1.68085        0.259885        0.257171 
        1.69652        0.254679        0.251509 
        1.71228        0.248209        0.245985 
        1.72806        0.243733        0.240623 
        1.74368        0.237859        0.235475 
        1.75933        0.233257        0.230467 
        1.77505        0.228662        0.225582 
        1.79081        0.222008        0.220831 
         1.8065        0.218763        0.216236 
        1.82218        0.212619        0.211777 
        1.83797        0.207553        0.207413 
        1.85367        0.204249        0.203197 
        1.86928         0.19921        0.199123 
        1.88497        0.195023        0.195139 
        1.90073        0.191122        0.191249 
        1.91647        0.188052        0.187469 
        1.93218        0.184969        0.183799 
        1.94787        0.179651        0.180233 
        1.96363         0.17648        0.176748 
        1.97935        0.172794        0.173362 
        1.99499        0.169185        0.170084 
        2.01064        0.166183        0.166887 
         2.0264        0.163206        0.163751 
        2.04216        0.159177        0.160698 
        2.05781        0.156303        0.157742 
        2.07353        0.153715         0.15485 
        2.08928        0.151138        0.152024 
        2.10499        0.147488        0.149276 
        2.12065        0.145042        0.146605 
        2.13633         0.14238        0.143997 
        2.15211        0.140012        0.141435 
        2.16785        0.136795        0.138943 
        2.18349        0.134645        0.136527 
        2.19916        0.131602        0.134163 
        2.21489        0.129149        0.131847 
        2.23063         0.12713        0.129585 
         2.2463        0.125055        0.127385 
        2.26194        0.122888        0.125243 
        2.27765        0.120518        0.123139 
        2.29341        0.118129        0.121077 
        2.30914        0.115954        0.119067 
        2.32486        0.113983        0.117104 
        2.34061        0.111979        0.115182 
        2.35635        0.110121        0.113305 
        2.37203         0.10918        0.111476 
        2.38768        0.106652        0.109692 
        2.40339        0.104865         0.10794 
        2.41914        0.102914        0.106222 
        2.43483        0.101475        0.104548 
         2.4505       0.0994691        0.102912 
        2.46622          0.0979        0.101306 
        2.48195       0.0963101       0.0997344 
        2.49759        0.094883       0.0982044 
        2.51328       0.0924203       0.0967025 
        2.52906       0.0915756       0.0952225 
        2.54479       0.0900425       0.0937791 
        2.56049       0.0883008       0.0923683 
        2.57618       0.0874593       0.0909879 
        2.59189       0.0855362       0.0896336 
        2.60758        0.084603        0.088309 
        2.62325       0.0829382       0.0870127 
        2.63898       0.0820096        0.085738 
        2.65468       0.0803228       0.0844915 
        2.67044       0.0791817       0.0832645 
        2.68618       0.0778861       0.0820647 
        2.70184       0.0769961       0.0808933 
        2.71755       0.0755826       0.0797419 
        2.73329       0.0744386       0.0786112 
        2.74897       0.0734173        0.077506 
        2.76462       0.0720454       0.0764246 
        2.78034       0.0711769       0.0753593 
        2.79607       0.0702554       0.0743132 
        2.81179       0.0688714       0.0732882 
        2.82749       0.0681078       0.0722837 
        2.84321       0.0670031       0.0712969 
        2.85893       0.0658327       0.0703288 
        2.87462       0.0652641       0.0693803 
        2.89033       0.0640285       0.0684485 
        2.90605       0.0632567        0.067533 
        2.92176        0.062508       0.0666346 
        2.93747       0.0613401       0.0657532 
        2.95318       0.0607853       0.0648874 
        2.96891       0.0598051       0.0640369 
        2.98456       0.0589323       0.0632053 
        3.00023       0.0583392       0.0623874 
        3.01596       0.0571318       0.0615813 
        3.03164       0.0564362       0.0607918 
        3.04738       0.0557125       0.0600139 
         3.0631       0.0546958       0.0592498 
        3.07883       0.0541727        0.058499 
        3.09456       0.0535332       0.0577613 
        3.11026       0.0526586       0.0570374 
        3.12596       0.0522425       0.0563261 
        3.14163       0.0513514       0.0556285 
        3.15734       0.0508859       0.0549411 
        3.17308        0.050094       0.0542637 
        3.18879       0.0494088       0.0535996 
        3.20447       0.0486363       0.0529475 
         3.2202       0.0481606       0.0523043 
         3.2359       0.0476308       0.0516728 
        3.25157       0.0470142       0.0510533 
        3.26729       0.0463497       0.0504421 
        3.28304       0.0459747       0.0498397 
        3.29877       0.0452125        0.049248 
        3.31446       0.0446116       0.0486671 
        3.33014       0.0442845       0.0480961 
        3.34585       0.0435783       0.0475334 
        3.36158        0.043094       0.0469788 
        3.37727       0.0424908       0.0464348 
        3.39294       0.0421134          0.0459 
        3.40867       0.0416733       0.0453716 
        3.42439       0.0411907       0.0448519 
        3.44008       0.0407537       0.0443413 
        3.45578       0.0403363       0.0438382 
        3.47153       0.0398968       0.0433419 
        3.48724       0.0393533       0.0428541 
        3.50292       0.0390923        0.042375 
        3.51859        0.038562       0.0419034 
        3.53431       0.0380999       0.0414375 
        3.55007       0.0377586       0.0409776 
        3.56577       0.0373402       0.0405264 
        3.58146       0.0369584       0.0400823 
        3.59719       0.0365112       0.0396437 
        3.61292       0.0360602       0.0392119 
        3.62859       0.0357369       0.0387882 
        3.64429       0.0354426       0.0383698 
        3.66003       0.0351531       0.0379564 
        3.67578       0.0348239       0.0375492 
        3.69146        0.034509       0.0371496 
        3.70712       0.0341243       0.0367564 
        3.72284       0.0336845       0.0363675 
        3.73853       0.0335478       0.0359849 
        3.75422       0.0330575       0.0356077 
        3.76993       0.0328045       0.0352355 
        3.78564       0.0325113       0.0348688 
        3.80137        0.032284       0.0345067 
        3.81707       0.0318742       0.0341506 
        3.83279       0.0315922       0.0337991 
        3.84853       0.0313218       0.0334521 
        3.86424       0.0311683       0.0331105 
        3.87992       0.0308823       0.0327743 
        3.89561       0.0304428       0.0324427 
        3.91134       0.0302498        0.032115 
        3.92704       0.0299185       0.0317922 
        3.94273       0.0296712       0.0314742 
        3.95845       0.0294314         0.03116 
        3.97418       0.0291298       0.0308499 
        3.98988         0.02875       0.0305445 
        4.00554        0.028593       0.0302441 
        4.02125       0.0282276       0.0299468 
        4.03698       0.0278114       0.0296531 
        4.05268       0.0275735        0.029364 
        4.06839       0.0271278       0.0290785 
         4.0841       0.0267059       0.0287969 
        4.09983       0.0263004       0.0285187 
        4.11555        0.025959       0.0282442 
        4.13124       0.0255634       0.0279741 
        4.14693       0.0252529       0.0277073 
        4.16266       0.0248512       0.0274433 
        4.17839       0.0245693        0.027183 
        4.19408       0.0242645       0.0269266 
        4.20977       0.0239439       0.0266734 
        4.22551       0.0236651       0.0264228 
        4.24123       0.0233689       0.0261757 
        4.25691       0.0231526       0.0259325 
        4.27259       0.0229085       0.0256923 
        4.28831       0.0226869       0.0254546 
        4.30404       0.0223984       0.0252197 
        4.31974       0.0221987       0.0249883 
        4.33543       0.0219624       0.0247599 
        4.35116       0.0217425       0.0245338 
        4.36688       0.0216297       0.0243107 
        4.38255       0.0213701       0.0240911 
        4.39825       0.0213133       0.0238738 
        4.41398       0.0211316       0.0236587 
         4.4297       0.0210018       0.0234465 
        4.44541       0.0208195       0.0232369 
        4.46111       0.0206588       0.0230301 
        4.47683       0.0206381       0.0228256 
        4.49251       0.0205054        0.022624 
        4.50819        0.020428       0.0224249 
         4.5239       0.0203112       0.0222279 
        4.53962       0.0202665       0.0220331 
        4.55535       0.0202153       0.0218404 
        4.57106       0.0202035       0.0216504 
        4.58678       0.0200685       0.0214625 
         4.6025       0.0200116       0.0212769 
        4.61821       0.0200674       0.0210935 
        4.63391       0.0200246       0.0209125 
         4.6496       0.0199805       0.0207336 
        4.66532       0.0199528       0.0205566 
        4.68103        0.020097       0.0203818 
        4.69673       0.0200363       0.0202091 
        4.71241       0.0201042       0.0200386 
        4.72811       0.0200582       0.0198698 
        4.74384         0.02012       0.0197027 
        4.75955       0.0202351       0.0195378 
        4.77525       0.0203089       0.0193748 
        4.79096       0.0203703       0.0192136 
        4.80669        0.020489        0.019054 
         4.8224       0.0205723       0.0188965 
        4.83809       0.0206442       0.0187409 
        4.85379       0.0208667        0.018587 
         4.8695       0.0209505       0.0184347 
        4.88521       0.0210658       0.0182841 
        4.90093       0.0212001       0.0181352 
        4.91663       0.0213577       0.0179881 
        4.93234       0.0215345       0.0178425 
        4.94807        0.021737       0.0176984 
        4.96377       0.0218854       0.0175561 
        4.97943       0.0222322       0.0174157 
        4.99514       0.0222917       0.0172765 
        5.01086       0.0225652       0.0171387 
        5.02654       0.0227763       0.0170028 
        5.04227       0.0230141       0.0168679 
          5.058       0.0232552       0.0167344 
        5.07371       0.0234744       0.0166026 
        5.08942       0.0237868       0.0164723 
        5.10513       0.0241056       0.0163433 
        5.12084       0.0244097       0.0162156 
        5.13656       0.0248039       0.0160893 
        5.15225       0.0250776       0.0159646 
        5.16796       0.0254155        0.015841 
        5.18369       0.0257667       0.0157186 
         5.1994       0.0261397       0.0155977 
        5.21509       0.0266001       0.0154782 
        5.23079       0.0268941       0.0153598 
        5.24649       0.0273576       0.0152427 
        5.26217       0.0277325       0.0151269 
        5.27788        0.028264       0.0150122 
        5.29359        0.028609       0.0148986 
        5.30933       0.0291389       0.0147861 
        5.32504       0.0296303       0.0146748 
        5.34073       0.0301823       0.0145649 
        5.35646       0.0305904       0.0144559 
        5.37218        0.031132       0.0143479 
        5.38789        0.031582       0.0142413 
        5.40357       0.0323565       0.0141358 
        5.41929       0.0330047       0.0140312 
        5.43502       0.0334816       0.0139276 
         5.4507       0.0341226       0.0138253 
        5.46639       0.0347468        0.013724 
        5.48212       0.0354059       0.0136235 
        5.49786       0.0361601       0.0135239 
        5.51353        0.037058       0.0134258 
        5.52921        0.037427       0.0133285 
        5.54495       0.0383616        0.013232 
        5.56066       0.0392253       0.0131365 
        5.57637       0.0400769       0.0130419 
        5.59207       0.0407795       0.0129484 
        5.60778       0.0414169       0.0128557 
        5.62346       0.0424297       0.0127641 
        5.63916       0.0433616       0.0126732 
        5.65487       0.0441878       0.0125833 
         5.6706       0.0450339        0.012494 
        5.68633       0.0459076       0.0124057 
        5.70203       0.0470723       0.0123183 
        5.71773       0.0483474       0.0122318 
        5.73344       0.0492881       0.0121461 
        5.74916       0.0505056       0.0120611 
        5.76486       0.0517328       0.0119771 
        5.78054       0.0532795        0.011894 
        5.79626       0.0538065       0.0118114 
          5.812       0.0554597       0.0117296 
         5.8277       0.0564463       0.0116487 
        5.84339       0.0578977       0.0115687 
        5.85911       0.0591409       0.0114892 
        5.87484       0.0603222       0.0114105 
        5.89053       0.0622756       0.0113326 
        5.90623        0.063464       0.0112555 
        5.92195       0.0649608       0.0111789 
        5.93767       0.0668582       0.0111031 
        5.95336       0.0676451       0.0110282 
        5.96905       0.0697074       0.0109539 
        5.98476       0.0708837       0.0108802 
        6.00048       0.0730217       0.0108072 
        6.01617       0.0751029        0.010735 
        6.03185       0.0766473       0.0106635 
        6.04756       0.0786337       0.0105924 
        6.06331       0.0811122       0.0105219 
        6.07903       0.0825244       0.0104522 
        6.09473       0.0843381       0.0103831 
        6.11044       0.0868264       0.0103146 
        6.12616       0.0888058       0.0102468 
        6.14186       0.0912236       0.0101796 
        6.15755       0.0934391        0.010113 
        6.17326       0.0957802        0.010047 
        6.18898       0.0987457      0.00998151 
        6.20467        0.100668      0.00991674 
        6.22036         0.10425      0.00985255 
         6.2361        0.106273      0.00978875 
         6.2518        0.109014      0.00972562 
        6.26748        0.110613      0.00966319 
        6.28319        0.114393      0.00960113 
        6.29893        0.117152      0.00953956 
        6.31463        0.120525      0.00947864 
        6.33033        0.123465      0.00941827 
        6.34604        0.127033      0.00935838 
        6.36177        0.129735      0.00929895 
        6.37747        0.132698      0.00924015 
