# k  (h/Mpc)    Pcb(k)  (Mpc/h)^3    Pcb_linear(k) (Mpc/h)^3   ShotnoiseSubtracted = true
      0.0200456         26608.8         27294.9 
      0.0350414         18804.2         19842.5 
      0.0492313         14032.9         14417.2 
      0.0637834         12210.5         11984.9 
      0.0800726         9622.17          9512.1 
       0.096163         6658.22         6901.85 
       0.111083         5387.96          5505.1 
       0.126058         4947.26         4878.64 
       0.142273         4288.17         4133.28 
       0.158546         3819.12         3264.42 
        0.17375         3068.39         2750.27 
       0.188953         3007.83         2490.31 
       0.204907         2824.05         2203.42 
       0.220756         2460.66         1864.22 
        0.23588         2217.29         1621.71 
         0.2514         1940.35         1473.31 
       0.267535         1946.15         1333.09 
       0.283568         1765.14         1175.61 
       0.299022         1679.03         1047.41 
       0.314451         1598.13         957.259 
       0.330372         1460.44         878.177 
       0.346141         1430.32          797.08 
       0.361624         1374.36         724.436 
       0.377134         1286.06         666.596 
       0.392932         1227.78         616.788 
       0.408854         1212.34         568.559 
       0.424564         1114.77         524.049 
       0.440253          1092.5         485.854 
       0.455999         1071.86         452.643 
       0.471626         1032.54         422.121 
        0.48727         991.741          393.57 
       0.502856         956.595         367.921 
       0.518488         956.411         345.036 
       0.534347         897.239          323.76 
       0.550082         884.011         304.143 
       0.565732         871.542         286.196 
       0.581496         830.599         269.759 
       0.597222         809.536         254.685 
       0.612804         799.619         240.823 
       0.628434         778.254         227.903 
       0.644267          758.65         215.824 
       0.660051         743.368         204.691 
       0.675724         732.649         194.411 
       0.691403         712.196         184.829 
       0.707174          687.84         175.838 
       0.722871         674.648         167.481 
        0.73838         663.627         159.757 
       0.754018         652.162         152.461 
       0.769845         641.725         145.542 
        0.78569         631.677         139.047 
       0.801365         613.564         133.012 
       0.817031         603.104         127.341 
       0.832809         594.622         121.967 
       0.848511         582.585         116.928 
       0.864097         563.315          112.21 
       0.879701         555.157         107.749 
       0.895507         554.006         103.479 
       0.911279         542.107         99.4499 
        0.92691         533.161           95.67 
       0.942635          518.15         92.0667 
       0.958396         507.789         88.6421 
       0.974128         502.464         85.3987 
       0.989692          498.63         82.3503 
        1.00528         482.233         79.4469 
        1.02113         479.427         76.6385 
        1.03692         470.013         73.9768 
        1.05264         462.769         71.4542 
        1.06832         452.391         69.0537 
        1.08405         446.038         66.7576 
        1.09979         439.617         64.5649 
        1.11537         433.078         62.4928 
        1.13105         426.279         60.4996 
        1.14679         414.647          58.586 
        1.16256         406.965         56.7518 
        1.17828         405.364         55.0024 
        1.19395         397.502          53.333 
         1.2097         386.403         51.7245 
        1.22537         380.997         50.1905 
          1.241         374.439         48.7234 
        1.25666         371.972         47.3116 
        1.27241         364.471         45.9493 
        1.28819         356.647         44.6385 
        1.30392         351.628         43.3828 
        1.31957          345.84         42.1812 
        1.33529         343.586         41.0208 
        1.35108         335.592         39.8996 
        1.36674         330.209         38.8285 
         1.3824         326.227         37.7978 
        1.39811         320.261         36.8012 
        1.41389         316.915         35.8368 
        1.42964         311.845         34.9087 
        1.44531         309.273         34.0181 
        1.46101         301.088         33.1567 
        1.47667         296.669         32.3279 
        1.49229         293.702         31.5296 
        1.50793         286.382         30.7575 
        1.52367         284.923         30.0063 
        1.53953          278.44         29.2753 
        1.55526          276.17         28.5745 
        1.57092         272.708         27.8995 
        1.58662         268.858         27.2449 
        1.60235         264.434           26.61 
        1.61809         259.936         25.9951 
        1.63369         257.258         25.4051 
        1.64941         252.217         24.8292 
        1.66519         250.409         24.2692 
        1.68085         247.507         23.7305 
        1.69652         243.873         23.2079 
        1.71228         237.712         22.6982 
        1.72806         234.583         22.2034 
        1.74368          230.91         21.7284 
        1.75933         229.436         21.2663 
        1.77505          226.18         20.8156 
        1.79081          223.28         20.3771 
         1.8065          218.05         19.9532 
        1.82218         215.535         19.5417 
        1.83797         214.707          19.139 
        1.85367         210.726         18.7499 
        1.86928         206.606          18.374 
        1.88497         204.924         18.0064 
        1.90073         201.142         17.6475 
        1.91647         199.669         17.2987 
        1.93218         195.999         16.9601 
        1.94787         193.035          16.631 
        1.96363         190.524         16.3094 
        1.97935         187.588          15.997 
        1.99499         185.541         15.6945 
        2.01064          182.95         15.3995 
         2.0264          181.31         15.1101 
        2.04216         178.847         14.8284 
        2.05781         176.455         14.5556 
        2.07353         174.145         14.2887 
        2.08928         170.371          14.028 
        2.10499         169.492         13.7744 
        2.12065         167.295         13.5279 
        2.13633         164.495         13.2873 
        2.15211          162.26         13.0509 
        2.16785         161.197         12.8209 
        2.18349         159.158          12.598 
        2.19916         156.608         12.3799 
        2.21489          154.99         12.1662 
        2.23063         152.856         11.9574 
         2.2463         150.439         11.7545 
        2.26194         148.183         11.5568 
        2.27765         146.701         11.3626 
        2.29341         144.543         11.1724 
        2.30914         143.296         10.9869 
        2.32486         141.638         10.8058 
        2.34061         139.466         10.6284 
        2.35635         138.023         10.4552 
        2.37203         136.232         10.2865 
        2.38768         134.417         10.1218 
        2.40339         132.786         9.96011 
        2.41914         131.308          9.8016 
        2.43483          129.34         9.64711 
         2.4505          128.21         9.49621 
        2.46622         126.554         9.34802 
        2.48195          124.57         9.20298 
        2.49759          123.43         9.06179 
        2.51328         122.559         8.92321 
        2.52906         120.967         8.78664 
        2.54479         118.883         8.65345 
        2.56049         117.028         8.52327 
        2.57618         116.189         8.39589 
        2.59189         114.955         8.27092 
        2.60758           113.4         8.14869 
        2.62325         111.803         8.02909 
        2.63898          110.82         7.91146 
        2.65468         109.364         7.79644 
        2.67044         107.933         7.68322 
        2.68618         106.927         7.57251 
        2.70184         105.881         7.46442 
        2.71755         104.489         7.35817 
        2.73329         103.301         7.25383 
        2.74897         102.091         7.15185 
        2.76462         100.887         7.05206 
        2.78034         99.5696         6.95377 
        2.79607           98.43         6.85724 
        2.81179         97.8232         6.76266 
        2.82749         96.7416         6.66997 
        2.84321         95.0038         6.57891 
        2.85893          94.284         6.48958 
        2.87462         93.3164         6.40206 
        2.89033         92.0054         6.31607 
        2.90605          91.227         6.23159 
        2.92176         90.0061          6.1487 
        2.93747         89.1928         6.06736 
        2.95318         88.5078         5.98748 
        2.96891         87.5636         5.90899 
        2.98456         86.5608         5.83226 
        3.00023         85.7068         5.75678 
        3.01596         84.5366         5.68241 
        3.03164         83.7035         5.60956 
        3.04738         82.7909         5.53777 
         3.0631         81.9331         5.46726 
        3.07883         80.7771         5.39798 
        3.09456         79.9743         5.32991 
        3.11026         79.4371         5.26312 
        3.12596         78.6147         5.19748 
        3.14163         77.7145         5.13311 
        3.15734         76.9519         5.06969 
        3.17308         76.1533         5.00718 
        3.18879         75.2742         4.94589 
        3.20447         74.4489         4.88572 
         3.2202          73.649         4.82637 
         3.2359         72.9784          4.7681 
        3.25157         72.4188         4.71094 
        3.26729         71.5174         4.65454 
        3.28304         70.8201         4.59895 
        3.29877         69.9007         4.54435 
        3.31446         69.5121         4.49075 
        3.33014          68.584         4.43806 
        3.34585         67.8749         4.38613 
        3.36158         67.1813         4.33496 
        3.37727         66.5775         4.28477 
        3.39294         65.6988         4.23542 
        3.40867          65.269         4.18666 
        3.42439         64.5899          4.1387 
        3.44008         63.7876         4.09158 
        3.45578         63.2061         4.04517 
        3.47153         62.5832         3.99937 
        3.48724          62.087         3.95436 
        3.50292         61.4979         3.91015 
        3.51859         60.8547         3.86663 
        3.53431          60.157         3.82364 
        3.55007         59.6298          3.7812 
        3.56577         59.0515         3.73957 
        3.58146         58.4718         3.69859 
        3.59719         57.9376         3.65812 
        3.61292         57.2947         3.61827 
        3.62859         56.7573         3.57917 
        3.64429         56.3276         3.54057 
        3.66003         55.7614         3.50242 
        3.67578         55.0145         3.46485 
        3.69146         54.6933         3.42797 
        3.70712         54.2721         3.39169 
        3.72284         53.6816         3.35581 
        3.73853         53.2409          3.3205 
        3.75422          52.646         3.28569 
        3.76993          52.265         3.25135 
        3.78564         51.6608         3.21751 
        3.80137         51.2198          3.1841 
        3.81707          50.733         3.15124 
        3.83279         50.2931         3.11881 
        3.84853         49.8147         3.08678 
        3.86424         49.3907         3.05527 
        3.87992         48.9781         3.02424 
        3.89561         48.5333         2.99365 
        3.91134         48.1262         2.96341 
        3.92704         47.6557         2.93362 
        3.94273         47.2636         2.90428 
        3.95845         46.7673         2.87528 
        3.97418          46.329         2.84667 
        3.98988         45.9165         2.81849 
        4.00554         45.5723         2.79077 
        4.02125         45.0656         2.76334 
        4.03698         44.5697         2.73624 
        4.05268         44.2915         2.70956 
        4.06839         43.8205         2.68322 
         4.0841         43.4849         2.65723 
        4.09983         43.1448         2.63155 
        4.11555         42.6418         2.60623 
        4.13124         42.3098          2.5813 
        4.14693          42.021         2.55668 
        4.16266         41.6434         2.53233 
        4.17839         41.2708          2.5083 
        4.19408         40.8794         2.48464 
        4.20977         40.4976         2.46128 
        4.22551         40.2712         2.43816 
        4.24123         39.7999         2.41536 
        4.25691         39.5591         2.39292 
        4.27259         39.1076         2.37075 
        4.28831         38.8758         2.34882 
        4.30404         38.5319         2.32715 
        4.31974         38.2273         2.30579 
        4.33543         37.8657         2.28472 
        4.35116         37.5401         2.26386 
        4.36688         37.2869         2.24326 
        4.38255         36.9239           2.223 
        4.39825         36.6086         2.20295 
        4.41398         36.2927          2.1831 
         4.4297         35.9786         2.16352 
        4.44541         35.6221         2.14418 
        4.46111         35.3712          2.1251 
        4.47683         35.0336         2.10623 
        4.49251         34.8231         2.08763 
        4.50819         34.4877         2.06926 
         4.5239         34.3132         2.05108 
        4.53962         33.8905          2.0331 
        4.55535         33.6808         2.01532 
        4.57106         33.3734         1.99779 
        4.58678         32.9969         1.98045 
         4.6025         32.8623         1.96332 
        4.61821         32.5655          1.9464 
        4.63391         32.2102         1.92969 
         4.6496         31.9475         1.91319 
        4.66532         31.7039         1.89686 
        4.68103         31.4914         1.88072 
        4.69673         31.1972         1.86479 
        4.71241         30.9385         1.84906 
        4.72811         30.7957         1.83348 
        4.74384         30.4286         1.81806 
        4.75955         30.2067         1.80284 
        4.77525         30.0068         1.78781 
        4.79096         29.6976         1.77293 
        4.80669         29.5131         1.75821 
         4.8224         29.3124         1.74367 
        4.83809         29.0462         1.72932 
        4.85379         28.7967         1.71511 
         4.8695          28.566         1.70106 
        4.88521          28.357         1.68717 
        4.90093         28.1566         1.67343 
        4.91663         27.8722         1.65985 
        4.93234         27.6526         1.64641 
        4.94807         27.4674         1.63312 
        4.96377         27.2503         1.61999 
        4.97943         27.0666         1.60704 
        4.99514         26.7425         1.59419 
        5.01086         26.6563         1.58147 
        5.02654         26.3983         1.56893 
        5.04227         26.2119         1.55648 
          5.058         26.0227         1.54417 
        5.07371         25.7793         1.53201 
        5.08942         25.6226         1.51998 
        5.10513         25.3676         1.50807 
        5.12084         25.2333         1.49629 
        5.13656         25.0024         1.48464 
        5.15225         24.8278         1.47313 
        5.16796         24.6214         1.46172 
        5.18369         24.4885         1.45043 
         5.1994         24.2541         1.43927 
        5.21509         24.0833         1.42825 
        5.23079         23.8798         1.41732 
        5.24649          23.656         1.40652 
        5.26217          23.533         1.39583 
        5.27788         23.3519         1.38525 
        5.29359         23.1725         1.37477 
        5.30933         23.0249         1.36438 
        5.32504         22.8104         1.35412 
        5.34073         22.6436         1.34397 
        5.35646         22.5263         1.33391 
        5.37218         22.3396         1.32395 
        5.38789         22.1077         1.31411 
        5.40357          21.969         1.30438 
        5.41929         21.8542         1.29472 
        5.43502           21.69         1.28517 
         5.4507         21.5298         1.27573 
        5.46639         21.3817         1.26638 
        5.48212         21.2282         1.25711 
        5.49786         21.0454         1.24792 
        5.51353         20.8824         1.23886 
        5.52921         20.6907         1.22989 
        5.54495         20.5793         1.22098 
        5.56066         20.4594         1.21216 
        5.57637         20.2786         1.20344 
        5.59207         20.1081         1.19481 
        5.60778         20.0002         1.18626 
        5.62346         19.8224          1.1778 
        5.63916         19.7007         1.16942 
        5.65487         19.5569         1.16112 
         5.6706         19.3755         1.15289 
        5.68633         19.2681         1.14473 
        5.70203         19.0986         1.13667 
        5.71773         18.9655         1.12869 
        5.73344         18.8321         1.12078 
        5.74916         18.6952         1.11294 
        5.76486          18.601         1.10518 
        5.78054          18.453         1.09752 
        5.79626         18.3417          1.0899 
          5.812          18.173         1.08235 
         5.8277         18.0879         1.07489 
        5.84339         17.9562          1.0675 
        5.85911         17.8275         1.06016 
        5.87484         17.6834          1.0529 
        5.89053         17.5599         1.04572 
        5.90623         17.4534          1.0386 
        5.92195         17.3523         1.03153 
        5.93767         17.2436         1.02454 
        5.95336         17.1142         1.01762 
        5.96905         16.9546         1.01077 
        5.98476         16.8595         1.00397 
        6.00048         16.7204        0.997234 
        6.01617         16.5819        0.990567 
        6.03185         16.5345        0.983969 
        6.04756         16.3777        0.977415 
        6.06331         16.2647        0.970906 
        6.07903         16.1207        0.964471 
        6.09473         16.0328          0.9581 
        6.11044         15.9334         0.95178 
        6.12616         15.8154        0.945519 
        6.14186         15.7323         0.93932 
        6.15755         15.6136        0.933177 
        6.17326         15.5126        0.927084 
        6.18898         15.3868        0.921043 
        6.20467         15.2758        0.915066 
        6.22036         15.1828        0.909142 
         6.2361         15.0811        0.903256 
         6.2518         14.9781         0.89743 
        6.26748         14.8769        0.891669 
        6.28319         14.7778        0.885943 
        6.29893         14.6778        0.880262 
        6.31463         14.6004         0.87464 
        6.33033         14.4761        0.869069 
        6.34604         14.3936        0.863543 
        6.36177         14.3029        0.858059 
        6.37747         14.2045        0.852633 
