# k  (h/Mpc)    Pcb(k)  (Mpc/h)^3    Pcb_linear(k) (Mpc/h)^3   ShotnoiseSubtracted = true
      0.0200456         15793.4           16047 
      0.0350414         12001.7         11665.6 
      0.0492313         8352.66         8476.01 
      0.0637834         6745.13         7046.03 
      0.0800726         5304.83         5592.26 
       0.096163         4206.09         4057.67 
       0.111083         3422.53          3236.5 
       0.126058         2839.34          2868.2 
       0.142273         2465.66            2430 
       0.158546         2025.42         1919.19 
        0.17375         1786.99         1616.92 
       0.188953         1671.98         1464.08 
       0.204907         1432.68         1295.41 
       0.220756         1288.43            1096 
        0.23588         1147.89         953.422 
         0.2514         1030.71         866.175 
       0.267535         999.817         783.739 
       0.283568         879.696         691.153 
       0.299022         840.082         615.781 
       0.314451         862.636         562.783 
       0.330372          745.82          516.29 
       0.346141         688.445         468.612 
       0.361624         659.563         425.904 
       0.377134         624.845         391.899 
       0.392932         601.962         362.616 
       0.408854         573.758         334.262 
       0.424564         557.519         308.094 
       0.440253         508.903         285.639 
       0.455999         487.348         266.113 
       0.471626         494.472         248.169 
        0.48727         467.159         231.384 
       0.502856         435.236         216.305 
       0.518488         432.832          202.85 
       0.534347         405.754         190.342 
       0.550082         390.116         178.809 
       0.565732         387.357         168.258 
       0.581496         375.025         158.594 
       0.597222         364.241         149.732 
       0.612804         355.454         141.582 
       0.628434         341.381         133.987 
       0.644267         328.131         126.885 
       0.660051         323.579          120.34 
       0.675724         318.431         114.296 
       0.691403         310.682         108.663 
       0.707174         298.911         103.377 
       0.722871         294.279          98.464 
        0.73838         290.764         93.9227 
       0.754018         279.019         89.6336 
       0.769845         277.846         85.5658 
        0.78569         271.337         81.7469 
       0.801365         263.607         78.1992 
       0.817031         259.572         74.8653 
       0.832809         255.029         71.7055 
       0.848511         248.572         68.7431 
       0.864097         242.615         65.9692 
       0.879701         241.423         63.3465 
       0.895507         235.154         60.8361 
       0.911279         228.772         58.4676 
        0.92691         226.372         56.2454 
       0.942635          224.58          54.127 
       0.958396         218.691         52.1136 
       0.974128         215.344         50.2068 
       0.989692         207.968         48.4146 
        1.00528         207.473         46.7077 
        1.02113         204.059         45.0566 
        1.03692         199.517         43.4917 
        1.05264         196.344         42.0087 
        1.06832         195.904         40.5974 
        1.08405         190.234         39.2475 
        1.09979         189.002         37.9584 
        1.11537         185.169         36.7402 
        1.13105         182.056         35.5684 
        1.14679         180.203         34.4434 
        1.16256         177.453          33.365 
        1.17828         175.452         32.3365 
        1.19395         170.815          31.355 
         1.2097         169.993         30.4094 
        1.22537         168.601         29.5075 
          1.241         164.324          28.645 
        1.25666         162.259          27.815 
        1.27241         158.604         27.0141 
        1.28819         157.269         26.2434 
        1.30392         155.045         25.5052 
        1.31957         151.414         24.7988 
        1.33529         149.775         24.1166 
        1.35108         148.035         23.4574 
        1.36674          145.44         22.8277 
         1.3824          144.63         22.2217 
        1.39811         141.367         21.6358 
        1.41389         139.421         21.0688 
        1.42964         137.345         20.5232 
        1.44531         135.988         19.9996 
        1.46101         133.106         19.4932 
        1.47667         132.846         19.0059 
        1.49229         130.686         18.5366 
        1.50793          128.27         18.0827 
        1.52367         126.697          17.641 
        1.53953         124.566         17.2112 
        1.55526         123.963         16.7992 
        1.57092         122.224         16.4024 
        1.58662         119.917         16.0175 
        1.60235         118.386         15.6443 
        1.61809         117.241         15.2828 
        1.63369         115.231         14.9359 
        1.64941         114.698         14.5974 
        1.66519         112.737         14.2681 
        1.68085         110.732         13.9514 
        1.69652         109.745         13.6442 
        1.71228         108.761         13.3445 
        1.72806         107.338         13.0536 
        1.74368         105.543         12.7744 
        1.75933         104.762         12.5027 
        1.77505         102.854         12.2377 
        1.79081         101.625         11.9799 
         1.8065         99.8832         11.7307 
        1.82218         98.8639         11.4888 
        1.83797         98.4882          11.252 
        1.85367         96.4032         11.0233 
        1.86928         96.0211         10.8023 
        1.88497         94.3139         10.5861 
        1.90073         93.5943         10.3751 
        1.91647         91.9143         10.1701 
        1.93218         90.7961         9.97099 
        1.94787         89.5835         9.77755 
        1.96363         88.7459         9.58847 
        1.97935         87.8989         9.40479 
        1.99499         87.0395         9.22697 
        2.01064         85.0281          9.0535 
         2.0264         84.5083          8.8834 
        2.04216         82.9139         8.71776 
        2.05781         82.4465          8.5574 
        2.07353         81.3966          8.4005 
        2.08928         80.2318          8.2472 
        2.10499         79.1946         8.09814 
        2.12065         78.8157         7.95322 
        2.13633         77.7818         7.81172 
        2.15211          76.467         7.67276 
        2.16785         75.3469         7.53757 
        2.18349           74.48         7.40648 
        2.19916         73.6781         7.27825 
        2.21489         72.7222         7.15262 
        2.23063         71.8058         7.02988 
         2.2463         71.3499         6.91058 
        2.26194         70.3461         6.79434 
        2.27765         69.5041         6.68019 
        2.29341         68.7021         6.56836 
        2.30914          67.893         6.45933 
        2.32486           66.41         6.35283 
        2.34061         66.1109         6.24856 
        2.35635           65.38         6.14672 
        2.37203         64.3909         6.04751 
        2.38768         63.8079          5.9507 
        2.40339         63.0697         5.85565 
        2.41914          62.076         5.76247 
        2.43483         61.7205         5.67164 
         2.4505         60.8211         5.58292 
        2.46622         60.3974          5.4958 
        2.48195         59.4749         5.41053 
        2.49759         58.8532         5.32752 
        2.51328         58.2324         5.24605 
        2.52906         57.5445         5.16576 
        2.54479         56.8402         5.08745 
        2.56049         56.1196         5.01092 
        2.57618         55.4262         4.93603 
        2.59189         55.0284         4.86256 
        2.60758         54.2511          4.7907 
        2.62325         53.7464         4.72038 
        2.63898         53.1488         4.65123 
        2.65468         52.5912         4.58361 
        2.67044         52.0322         4.51705 
        2.68618         51.5532         4.45196 
        2.70184          50.773         4.38841 
        2.71755         50.1327         4.32595 
        2.73329         49.8138          4.2646 
        2.74897         49.3853         4.20465 
        2.76462          48.859         4.14598 
        2.78034         48.2052         4.08819 
        2.79607         47.4677         4.03144 
        2.81179         47.0459         3.97584 
        2.82749         46.6687         3.92134 
        2.84321          46.288         3.86781 
        2.85893         45.6876         3.81529 
        2.87462         44.9659         3.76384 
        2.89033         44.6094         3.71329 
        2.90605          44.044         3.66362 
        2.92176         43.7176         3.61489 
        2.93747         43.2095         3.56707 
        2.95318         42.7915          3.5201 
        2.96891         42.2926         3.47396 
        2.98456         41.9449         3.42885 
        3.00023         41.2988         3.38447 
        3.01596         41.0514         3.34075 
        3.03164         40.5327         3.29792 
        3.04738         40.1245         3.25571 
         3.0631         39.8777         3.21426 
        3.07883         39.3738         3.17353 
        3.09456         38.9281         3.13351 
        3.11026         38.4705         3.09424 
        3.12596         38.0942         3.05565 
        3.14163         37.7411         3.01781 
        3.15734          37.396         2.98052 
        3.17308         37.1089         2.94377 
        3.18879          36.672         2.90774 
        3.20447         36.1458         2.87237 
         3.2202          35.835         2.83747 
         3.2359         35.5905         2.80322 
        3.25157         35.0875         2.76961 
        3.26729          34.873         2.73645 
        3.28304         34.5465         2.70377 
        3.29877         34.0196         2.67167 
        3.31446         33.8189         2.64016 
        3.33014         33.3538         2.60918 
        3.34585         33.0091         2.57865 
        3.36158         32.7225         2.54857 
        3.37727         32.3902         2.51906 
        3.39294         32.0929         2.49005 
        3.40867         31.8434         2.46138 
        3.42439         31.4878         2.43319 
        3.44008         31.2211         2.40549 
        3.45578         30.8893          2.3782 
        3.47153         30.6958         2.35127 
        3.48724         30.2884         2.32481 
        3.50292         30.0697         2.29882 
        3.51859         29.7453         2.27323 
        3.53431         29.4762         2.24796 
        3.55007         29.0393         2.22301 
        3.56577         28.8597         2.19853 
        3.58146         28.5794         2.17444 
        3.59719         28.3155         2.15065 
        3.61292         28.1368         2.12722 
        3.62859         27.7613         2.10423 
        3.64429         27.4933         2.08154 
        3.66003         27.2603         2.05911 
        3.67578         27.0335         2.03702 
        3.69146         26.8533         2.01534 
        3.70712         26.4591         1.99401 
        3.72284          26.298         1.97291 
        3.73853         26.0807         1.95216 
        3.75422         25.8452         1.93169 
        3.76993         25.5502          1.9115 
        3.78564         25.2988         1.89161 
        3.80137         25.1223         1.87197 
        3.81707         24.8532         1.85265 
        3.83279         24.5781         1.83358 
        3.84853         24.4298         1.81475 
        3.86424         24.0425         1.79623 
        3.87992         23.8891         1.77798 
        3.89561           23.77            1.76 
        3.91134         23.4584         1.74222 
        3.92704         23.2488         1.72471 
        3.94273         22.9977         1.70746 
        3.95845         22.8598         1.69041 
        3.97418         22.6802         1.67359 
        3.98988         22.4493         1.65702 
        4.00554         22.1874         1.64072 
        4.02125         22.0169          1.6246 
        4.03698         21.8418         1.60866 
        4.05268         21.6428         1.59298 
        4.06839         21.4436         1.57749 
         4.0841          21.276         1.56221 
        4.09983         21.0307         1.54712 
        4.11555         20.8923         1.53223 
        4.13124          20.762         1.51758 
        4.14693         20.5795          1.5031 
        4.16266         20.3492         1.48878 
        4.17839         20.2005         1.47466 
        4.19408         19.9573         1.46075 
        4.20977         19.8482         1.44701 
        4.22551         19.6887         1.43342 
        4.24123          19.481         1.42002 
        4.25691         19.3309         1.40682 
        4.27259         19.1811         1.39379 
        4.28831         19.0013          1.3809 
        4.30404         18.7952         1.36815 
        4.31974         18.6812          1.3556 
        4.33543         18.5541         1.34321 
        4.35116         18.3767         1.33095 
        4.36688         18.2166         1.31884 
        4.38255           18.02         1.30693 
        4.39825         17.9281         1.29514 
        4.41398         17.7254         1.28347 
         4.4297         17.6447         1.27196 
        4.44541         17.4454         1.26059 
        4.46111         17.2253         1.24937 
        4.47683          17.135         1.23827 
        4.49251         17.0395         1.22734 
        4.50819          16.881         1.21654 
         4.5239         16.7491         1.20585 
        4.53962         16.6549         1.19528 
        4.55535          16.469         1.18483 
        4.57106         16.3569         1.17452 
        4.58678         16.1809         1.16433 
         4.6025         16.0156         1.15426 
        4.61821         15.9589         1.14431 
        4.63391         15.7846         1.13449 
         4.6496         15.6593         1.12479 
        4.66532         15.5386         1.11518 
        4.68103         15.4224          1.1057 
        4.69673          15.274         1.09633 
        4.71241         15.2013         1.08708 
        4.72811         15.0428         1.07792 
        4.74384         14.9002         1.06886 
        4.75955         14.8067         1.05991 
        4.77525         14.6891         1.05107 
        4.79096         14.5666         1.04232 
        4.80669         14.4794         1.03367 
         4.8224         14.3599         1.02512 
        4.83809         14.2145         1.01668 
        4.85379         14.1114         1.00833 
         4.8695           14.02         1.00007 
        4.88521         13.8835        0.991902 
        4.90093         13.7522        0.983825 
        4.91663         13.6932        0.975845 
        4.93234         13.5714        0.967944 
        4.94807         13.4697        0.960126 
        4.96377         13.3706        0.952409 
        4.97943         13.2731        0.944793 
        4.99514         13.1566         0.93724 
        5.01086         13.0698        0.929764 
        5.02654         12.9584        0.922389 
        5.04227         12.8643        0.915072 
          5.058         12.7454        0.907831 
        5.07371          12.669        0.900682 
        5.08942         12.5539         0.89361 
        5.10513         12.4804        0.886612 
        5.12084         12.3784        0.879686 
        5.13656         12.2915        0.872835 
        5.15225         12.1917        0.866069 
        5.16796         12.0953        0.859363 
        5.18369         11.9976        0.852723 
         5.1994         11.9187        0.846164 
        5.21509         11.8251         0.83968 
        5.23079          11.731        0.833257 
        5.24649         11.6554        0.826906 
        5.26217         11.5603        0.820625 
        5.27788         11.4661        0.814401 
        5.29359         11.3812         0.80824 
        5.30933         11.3068        0.802134 
        5.32504         11.2143        0.796101 
        5.34073         11.1563        0.790137 
        5.35646         11.0855        0.784222 
        5.37218         10.9706        0.778366 
        5.38789         10.8941        0.772579 
        5.40357         10.8107        0.766858 
        5.41929         10.7408        0.761182 
        5.43502         10.6679        0.755563 
         5.4507         10.5858        0.750014 
        5.46639         10.4842         0.74452 
        5.48212         10.4331        0.739068 
        5.49786         10.3698        0.733664 
        5.51353         10.2897        0.728341 
        5.52921          10.222        0.723065 
        5.54495         10.1265        0.717826 
        5.56066          10.055        0.712644 
        5.57637         10.0087        0.707515 
        5.59207         9.92756         0.70244 
        5.60778         9.85231        0.697413 
        5.62346         9.77565        0.692442 
        5.63916         9.71836        0.687515 
        5.65487         9.65223        0.682634 
         5.6706         9.57276        0.677794 
        5.68633          9.4912        0.672999 
        5.70203         9.43603         0.66826 
        5.71773          9.3631        0.663568 
        5.73344         9.31652        0.658919 
        5.74916         9.26009        0.654309 
        5.76486         9.18748         0.64975 
        5.78054         9.12121        0.645241 
        5.79626          9.0547        0.640763 
          5.812         8.97979        0.636322 
         5.8277         8.93067        0.631937 
        5.84339         8.84124        0.627592 
        5.85911         8.80912        0.623281 
        5.87484         8.73116         0.61901 
        5.89053         8.67783        0.614788 
        5.90623         8.63365        0.610603 
        5.92195         8.56737         0.60645 
        5.93767         8.49993        0.602338 
        5.95336         8.43497        0.598271 
        5.96905         8.40011        0.594243 
        5.98476         8.32418        0.590246 
        6.00048         8.27166        0.586284 
        6.01617         8.21848        0.582365 
        6.03185         8.17541        0.578486 
        6.04756         8.11591        0.574632 
        6.06331         8.05914        0.570806 
        6.07903          8.0001        0.567023 
        6.09473         7.94468        0.563277 
        6.11044         7.89577        0.559562 
        6.12616         7.85152        0.555881 
        6.14186         7.80559        0.552236 
        6.15755         7.75465        0.548625 
        6.17326         7.67791        0.545042 
        6.18898         7.64822        0.541491 
        6.20467         7.59469        0.537977 
        6.22036         7.53122        0.534494 
         6.2361         7.49472        0.531033 
         6.2518         7.44172        0.527609 
        6.26748         7.39446        0.524222 
        6.28319         7.35703        0.520855 
        6.29893         7.30044        0.517515 
        6.31463         7.24276         0.51421 
        6.33033         7.19987        0.510935 
        6.34604          7.1481        0.507686 
        6.36177         7.11791        0.504462 
        6.37747         7.06331        0.501272 
