# k  (h/Mpc)    Pcb(k)  (Mpc/h)^3    Pcb_linear(k) (Mpc/h)^3   ShotnoiseSubtracted = true
      0.0200456         703.149         712.177 
      0.0350414         523.217         517.729 
      0.0492313         377.552         376.172 
      0.0637834         310.193         312.708 
      0.0800726         245.616         248.189 
       0.096163         182.535         180.083 
       0.111083         146.254         143.638 
       0.126058         126.692         127.293 
       0.142273         107.061         107.845 
       0.158546         85.6859          85.175 
        0.17375         72.8932         71.7599 
       0.188953         65.4448          64.977 
       0.204907         56.6462         57.4914 
       0.220756         49.0173         48.6412 
        0.23588         42.7019         42.3136 
         0.2514         38.7533         38.4415 
       0.267535         35.2829         34.7829 
       0.283568         31.0849         30.6739 
       0.299022          27.883         27.3288 
       0.314451         25.9062         24.9767 
       0.330372         23.4543         22.9133 
       0.346141         21.3273         20.7973 
       0.361624         19.3788         18.9019 
       0.377134         17.7612         17.3928 
       0.392932         16.9194         16.0932 
       0.408854         15.2902         14.8348 
       0.424564         14.4389         13.6734 
       0.440253         13.2131         12.6769 
       0.455999         12.1352         11.8103 
       0.471626         11.3587         11.0139 
        0.48727         10.8584          10.269 
       0.502856           10.17         9.59976 
       0.518488         9.36939         9.00264 
       0.534347         8.75585         8.44752 
       0.550082         8.37759         7.93568 
       0.565732         7.99158         7.46741 
       0.581496         7.49384         7.03853 
       0.597222          7.0573         6.64521 
       0.612804         6.65066         6.28354 
       0.628434         6.37706         5.94642 
       0.644267         6.06152         5.63126 
       0.660051         5.74113         5.34078 
       0.675724          5.4143         5.07256 
       0.691403         5.19677         4.82253 
       0.707174         4.94083         4.58795 
       0.722871         4.81534          4.3699 
        0.73838         4.49088         4.16836 
       0.754018         4.28969         3.97801 
       0.769845         4.06589         3.79747 
        0.78569         3.95594         3.62799 
       0.801365         3.78265         3.47054 
       0.817031         3.64613         3.32258 
       0.832809         3.45536         3.18234 
       0.848511         3.34751         3.05087 
       0.864097           3.226         2.92776 
       0.879701         3.12923         2.81137 
       0.895507         2.97868         2.69995 
       0.911279         2.88059         2.59484 
        0.92691         2.79587         2.49621 
       0.942635         2.65827          2.4022 
       0.958396         2.57382         2.31284 
       0.974128         2.49598         2.22822 
       0.989692         2.39272         2.14868 
        1.00528         2.32015         2.07292 
        1.02113         2.25682         1.99964 
        1.03692         2.19421          1.9302 
        1.05264         2.09465         1.86438 
        1.06832         2.03906         1.80174 
        1.08405           1.966         1.74183 
        1.09979         1.91902         1.68462 
        1.11537         1.85339         1.63056 
        1.13105         1.78345         1.57855 
        1.14679         1.74092         1.52862 
        1.16256         1.68465         1.48076 
        1.17828         1.65344         1.43512 
        1.19395         1.59318         1.39156 
         1.2097         1.54567         1.34959 
        1.22537         1.49355         1.30956 
          1.241         1.46086         1.27129 
        1.25666         1.43289         1.23445 
        1.27241         1.39055          1.1989 
        1.28819         1.33947          1.1647 
        1.30392         1.30734         1.13194 
        1.31957         1.28034         1.10059 
        1.33529         1.23072         1.07031 
        1.35108         1.20595         1.04106 
        1.36674         1.17148         1.01311 
         1.3824         1.15542        0.986216 
        1.39811         1.11982        0.960213 
        1.41389          1.0917         0.93505 
        1.42964         1.06397        0.910834 
        1.44531         1.04179        0.887597 
        1.46101         1.01014        0.865122 
        1.47667        0.992363        0.843495 
        1.49229        0.958431        0.822668 
        1.50793        0.938621        0.802522 
        1.52367        0.914743        0.782922 
        1.53953        0.892874        0.763847 
        1.55526        0.880723        0.745562 
        1.57092        0.865792        0.727952 
        1.58662        0.849681        0.710871 
        1.60235        0.821872        0.694306 
        1.61809        0.804651        0.678261 
        1.63369         0.78133        0.662867 
        1.64941        0.769805        0.647842 
        1.66519        0.756482         0.63323 
        1.68085        0.735406        0.619173 
        1.69652        0.720749        0.605539 
        1.71228        0.704113         0.59224 
        1.72806        0.690915         0.57933 
        1.74368        0.677545        0.566936 
        1.75933        0.665236         0.55488 
        1.77505         0.65367        0.543118 
        1.79081        0.632411        0.531678 
         1.8065        0.627408        0.520617 
        1.82218         0.60987         0.50988 
        1.83797        0.594774        0.499374 
        1.85367        0.589072        0.489222 
        1.86928        0.576697        0.479413 
        1.88497        0.562013        0.469821 
        1.90073        0.556393        0.460456 
        1.91647        0.541901        0.451355 
        1.93218        0.533376         0.44252 
        1.94787         0.52328        0.433935 
        1.96363        0.514626        0.425544 
        1.97935        0.503496        0.417392 
        1.99499        0.495383          0.4095 
        2.01064        0.486668        0.401801 
         2.0264        0.474349        0.394252 
        2.04216        0.467548        0.386901 
        2.05781         0.46066        0.379784 
        2.07353        0.451547        0.372821 
        2.08928        0.444633        0.366017 
        2.10499        0.435581        0.359402 
        2.12065         0.42834         0.35297 
        2.13633        0.421764         0.34669 
        2.15211         0.41266        0.340523 
        2.16785        0.407415        0.334523 
        2.18349        0.400761        0.328705 
        2.19916        0.393359        0.323014 
        2.21489        0.385789        0.317439 
        2.23063        0.379091        0.311992 
         2.2463        0.373954        0.306697 
        2.26194        0.368726        0.301538 
        2.27765        0.361611        0.296472 
        2.29341        0.355989        0.291509 
        2.30914        0.348461         0.28667 
        2.32486        0.343739        0.281943 
        2.34061        0.337265        0.277316 
        2.35635        0.332754        0.272796 
        2.37203        0.329726        0.268393 
        2.38768        0.323361        0.264096 
        2.40339        0.318088        0.259878 
        2.41914        0.313756        0.255743 
        2.43483        0.308142        0.251712 
         2.4505        0.303637        0.247774 
        2.46622        0.299353        0.243908 
        2.48195        0.293466        0.240123 
        2.49759        0.292425         0.23644 
        2.51328        0.285231        0.232824 
        2.52906        0.280744         0.22926 
        2.54479        0.277019        0.225785 
        2.56049        0.272257        0.222388 
        2.57618        0.270021        0.219065 
        2.59189        0.264419        0.215804 
        2.60758        0.262457        0.212615 
        2.62325        0.258267        0.209494 
        2.63898        0.255432        0.206425 
        2.65468        0.249459        0.203424 
        2.67044        0.246892         0.20047 
        2.68618        0.243558        0.197581 
        2.70184        0.240109        0.194761 
        2.71755        0.236053        0.191989 
        2.73329        0.234918        0.189266 
        2.74897        0.229569        0.186606 
        2.76462        0.227578        0.184002 
        2.78034        0.223736        0.181437 
        2.79607        0.221702        0.178919 
        2.81179        0.216886        0.176451 
        2.82749        0.215385        0.174032 
        2.84321         0.21267        0.171656 
        2.85893        0.209364        0.169325 
        2.87462        0.206282        0.167042 
        2.89033        0.203896        0.164798 
        2.90605        0.201513        0.162594 
        2.92176        0.199896        0.160431 
        2.93747        0.196154        0.158309 
        2.95318        0.193988        0.156225 
        2.96891        0.191757        0.154177 
        2.98456        0.189905        0.152175 
        3.00023        0.186853        0.150205 
        3.01596        0.184421        0.148265 
        3.03164        0.182048        0.146364 
        3.04738        0.180465        0.144491 
         3.0631        0.178279        0.142651 
        3.07883        0.175938        0.140844 
        3.09456        0.173884        0.139068 
        3.11026        0.171256        0.137325 
        3.12596         0.16897        0.135612 
        3.14163        0.167647        0.133933 
        3.15734        0.165973        0.132278 
        3.17308        0.163778        0.130647 
        3.18879        0.161788        0.129048 
        3.20447        0.159597        0.127478 
         3.2202        0.158512        0.125929 
         3.2359        0.156228        0.124409 
        3.25157        0.154081        0.122917 
        3.26729        0.153028        0.121446 
        3.28304         0.15138        0.119995 
        3.29877        0.149248        0.118571 
        3.31446        0.148282        0.117172 
        3.33014        0.146462        0.115797 
        3.34585        0.144234        0.114443 
        3.36158         0.14303        0.113107 
        3.37727        0.142013        0.111798 
        3.39294        0.140488         0.11051 
        3.40867        0.138532        0.109238 
        3.42439        0.137547        0.107987 
        3.44008        0.136269        0.106757 
        3.45578        0.134606        0.105546 
        3.47153        0.133564        0.104351 
        3.48724        0.132171        0.103177 
        3.50292         0.13118        0.102023 
        3.51859        0.129551        0.100888 
        3.53431        0.128113       0.0997661 
        3.55007        0.127071       0.0986587 
        3.56577        0.126294       0.0975725 
        3.58146        0.124737       0.0965032 
        3.59719        0.123499       0.0954473 
        3.61292        0.122478       0.0944077 
        3.62859        0.121535       0.0933874 
        3.64429        0.119827       0.0923803 
        3.66003        0.119355       0.0913849 
        3.67578        0.118053       0.0904045 
        3.69146        0.117055       0.0894423 
        3.70712        0.115999       0.0884958 
        3.72284        0.115307       0.0875594 
        3.73853        0.114328       0.0866382 
        3.75422        0.113024         0.08573 
        3.76993        0.112096        0.084834 
        3.78564        0.111274       0.0839511 
        3.80137        0.110649       0.0830793 
        3.81707        0.108996       0.0822218 
        3.83279        0.108394       0.0813757 
        3.84853        0.107485       0.0805401 
        3.86424        0.106527       0.0797178 
        3.87992        0.105655       0.0789083 
        3.89561        0.104865       0.0781099 
        3.91134        0.103855        0.077321 
        3.92704        0.102922       0.0765439 
        3.94273        0.102051       0.0757782 
        3.95845        0.100938       0.0750216 
        3.97418        0.100372       0.0742751 
        3.98988       0.0989076       0.0735398 
        4.00554       0.0984025       0.0728165 
        4.02125       0.0972557       0.0721008 
        4.03698       0.0957997       0.0713936 
        4.05268       0.0951109       0.0706975 
        4.06839       0.0936503       0.0700102 
         4.0841       0.0924299       0.0693322 
        4.09983       0.0913757       0.0686623 
        4.11555       0.0901083       0.0680015 
        4.13124       0.0890502       0.0673511 
        4.14693       0.0879824       0.0667087 
        4.16266       0.0868637       0.0660732 
        4.17839       0.0859016       0.0654464 
        4.19408        0.084748       0.0648291 
        4.20977       0.0839768       0.0642195 
        4.22551       0.0831738       0.0636163 
        4.24123       0.0820869       0.0630214 
        4.25691       0.0813259       0.0624358 
        4.27259       0.0805145       0.0618574 
        4.28831       0.0800371       0.0612852 
        4.30404       0.0787005       0.0607197 
        4.31974       0.0782498       0.0601625 
        4.33543       0.0775446       0.0596127 
        4.35116       0.0770391       0.0590683 
        4.36688       0.0762211        0.058531 
        4.38255        0.075671       0.0580024 
        4.39825       0.0752647       0.0574791 
        4.41398        0.074557       0.0569613 
         4.4297       0.0741626       0.0564504 
        4.44541       0.0735859       0.0559458 
        4.46111       0.0730378       0.0554478 
        4.47683         0.07258       0.0549555 
        4.49251       0.0722315       0.0544702 
        4.50819       0.0720221       0.0539908 
         4.5239       0.0714689       0.0535165 
        4.53962       0.0711188       0.0530474 
        4.55535        0.071046       0.0525836 
        4.57106       0.0706164        0.052126 
        4.58678       0.0704367       0.0516738 
         4.6025       0.0702343       0.0512268 
        4.61821       0.0701087       0.0507852 
        4.63391       0.0699034       0.0503494 
         4.6496        0.069728       0.0499188 
        4.66532       0.0696414       0.0494927 
        4.68103       0.0695976       0.0490716 
        4.69673       0.0694445       0.0486559 
        4.71241       0.0697486       0.0482454 
        4.72811       0.0694634        0.047839 
        4.74384       0.0692923       0.0474367 
        4.75955       0.0693877       0.0470397 
        4.77525       0.0696152       0.0466474 
        4.79096       0.0696512       0.0462591 
        4.80669       0.0694667        0.045875 
         4.8224       0.0698672       0.0454958 
        4.83809       0.0699501       0.0451212 
        4.85379       0.0701047       0.0447506 
         4.8695       0.0703762       0.0443838 
        4.88521         0.07059       0.0440214 
        4.90093       0.0710786       0.0436629 
        4.91663       0.0711853       0.0433087 
        4.93234       0.0713708       0.0429581 
        4.94807       0.0717348       0.0426111 
        4.96377       0.0721468       0.0422686 
        4.97943       0.0728758       0.0419306 
        4.99514       0.0730103       0.0415954 
        5.01086        0.073232       0.0412636 
        5.02654       0.0740817       0.0409363 
        5.04227       0.0744829       0.0406116 
          5.058       0.0748001       0.0402902 
        5.07371       0.0754552        0.039973 
        5.08942       0.0763012       0.0396591 
        5.10513       0.0769161       0.0393485 
        5.12084       0.0774569       0.0390411 
        5.13656       0.0780143       0.0387371 
        5.15225       0.0789709       0.0384368 
        5.16796       0.0796948       0.0381392 
        5.18369       0.0803553       0.0378445 
         5.1994       0.0811174       0.0375534 
        5.21509        0.082073       0.0372656 
        5.23079       0.0828216       0.0369806 
        5.24649       0.0837997       0.0366987 
        5.26217        0.084772         0.03642 
        5.27788       0.0857678       0.0361437 
        5.29359       0.0867738       0.0358703 
        5.30933       0.0877289       0.0355993 
        5.32504       0.0888837       0.0353316 
        5.34073       0.0896446       0.0350669 
        5.35646        0.091096       0.0348043 
        5.37218       0.0922896       0.0345445 
        5.38789       0.0935297       0.0342876 
        5.40357       0.0944413       0.0340337 
        5.41929       0.0957117       0.0337818 
        5.43502       0.0974863       0.0335324 
         5.4507       0.0988775       0.0332862 
        5.46639        0.100022       0.0330423 
        5.48212        0.101352       0.0328004 
        5.49786        0.103114       0.0325605 
        5.51353        0.105291       0.0323243 
        5.52921        0.105785       0.0320902 
        5.54495        0.108341       0.0318576 
        5.56066        0.109672       0.0316277 
        5.57637        0.111259          0.0314 
        5.59207        0.112457       0.0311748 
        5.60778        0.114718       0.0309517 
        5.62346        0.116313       0.0307311 
        5.63916        0.118278       0.0305125 
        5.65487        0.120734       0.0302958 
         5.6706        0.121851        0.030081 
        5.68633        0.124474       0.0298682 
        5.70203        0.126543       0.0296579 
        5.71773        0.128772       0.0294497 
        5.73344        0.131207       0.0292433 
        5.74916        0.133642       0.0290387 
        5.76486         0.13561       0.0288364 
        5.78054        0.137553       0.0286363 
        5.79626        0.140555       0.0284375 
          5.812        0.142361       0.0282405 
         5.8277        0.144879       0.0280458 
        5.84339        0.147636        0.027853 
        5.85911        0.149805       0.0276617 
        5.87484        0.152504       0.0274721 
        5.89053        0.154735       0.0272847 
        5.90623        0.159234        0.027099 
        5.92195        0.160652       0.0269147 
        5.93767        0.163544       0.0267322 
        5.95336        0.166653       0.0265517 
        5.96905        0.169911       0.0263729 
        5.98476        0.171936       0.0261956 
        6.00048        0.175719       0.0260197 
        6.01617        0.178581       0.0258458 
        6.03185         0.18162       0.0256736 
        6.04756          0.1844       0.0255026 
        6.06331        0.189002       0.0253328 
        6.07903        0.192403       0.0251649 
        6.09473        0.194422       0.0249986 
        6.11044        0.200064       0.0248338 
        6.12616        0.200582       0.0246704 
        6.14186        0.205153       0.0245086 
        6.15755        0.209235       0.0243484 
        6.17326        0.213256       0.0241894 
        6.18898        0.215983       0.0240318 
        6.20467        0.219657       0.0238758 
        6.22036        0.222898       0.0237213 
         6.2361         0.22523       0.0235677 
         6.2518        0.230507       0.0234157 
        6.26748        0.235184       0.0232654 
        6.28319        0.239696       0.0231159 
        6.29893        0.243806       0.0229677 
        6.31463        0.247526        0.022821 
        6.33033        0.250163       0.0226757 
        6.34604        0.255559       0.0225315 
        6.36177        0.259121       0.0223884 
        6.37747        0.263113       0.0222468 
