# k  (h/Mpc)    Pcb(k)  (Mpc/h)^3    Pcb_linear(k) (Mpc/h)^3   ShotnoiseSubtracted = true
      0.0200456         6476.75         6586.87 
      0.0350414         4689.34         4788.43 
      0.0492313         3468.82         3479.18 
      0.0637834         2942.38         2892.21 
      0.0800726          2331.2         2295.48 
       0.096163         1641.87         1665.57 
       0.111083         1302.77          1328.5 
       0.126058         1193.27         1177.32 
       0.142273         1027.39         997.451 
       0.158546         838.947         787.777 
        0.17375         679.314         663.702 
       0.188953         645.189         600.967 
       0.204907         602.698         531.733 
       0.220756         506.024         449.878 
        0.23588         442.803         391.355 
         0.2514         390.439         355.542 
       0.267535         370.958         321.705 
       0.283568         335.459           283.7 
       0.299022         308.972         252.762 
       0.314451         283.272         231.008 
       0.330372         262.529         211.924 
       0.346141          236.37         192.353 
       0.361624         224.746         174.822 
       0.377134         210.941         160.864 
       0.392932         193.153         148.845 
       0.408854         185.305         137.206 
       0.424564         177.544         126.465 
       0.440253         166.947         117.247 
       0.455999         157.116         109.233 
       0.471626          145.25         101.867 
        0.48727         140.979         94.9771 
       0.502856         134.831         88.7875 
       0.518488         131.019         83.2647 
       0.534347         125.159         78.1305 
       0.550082         115.809         73.3965 
       0.565732         111.434         69.0655 
       0.581496         107.047         65.0989 
       0.597222         103.585          61.461 
       0.612804         98.5096         58.1159 
       0.628434         96.3463          54.998 
       0.644267         93.1044         52.0831 
       0.660051         90.6618         49.3965 
       0.675724         87.3708         46.9157 
       0.691403         84.7415         44.6032 
       0.707174         81.7401         42.4336 
       0.722871         79.8948         40.4169 
        0.73838         78.1549         38.5528 
       0.754018         74.3306         36.7923 
       0.769845         72.8654         35.1225 
        0.78569         71.0156          33.555 
       0.801365         68.6574         32.0988 
       0.817031         66.5945         30.7303 
       0.832809         65.7845         29.4332 
       0.848511         62.8537         28.2173 
       0.864097         61.3653         27.0787 
       0.879701          60.529         26.0021 
       0.895507         59.5015         24.9717 
       0.911279         58.1766         23.9995 
        0.92691         56.6781         23.0873 
       0.942635         54.7894         22.2177 
       0.958396         54.5687         21.3913 
       0.974128         53.1175         20.6086 
       0.989692         52.1084         19.8729 
        1.00528         51.0389         19.1723 
        1.02113         49.6751         18.4945 
        1.03692         48.5748         17.8522 
        1.05264         48.1617         17.2435 
        1.06832         46.8986         16.6642 
        1.08405         46.3198         16.1101 
        1.09979         45.6136         15.5809 
        1.11537         43.9454         15.0809 
        1.13105         44.2092         14.5999 
        1.14679         43.3416         14.1381 
        1.16256         42.3834         13.6955 
        1.17828         41.4415         13.2733 
        1.19395         40.9002         12.8704 
         1.2097         40.3328         12.4823 
        1.22537         39.9838         12.1121 
          1.241         38.9789          11.758 
        1.25666         38.1366         11.4173 
        1.27241         37.8719         11.0886 
        1.28819          36.841         10.7723 
        1.30392         36.4236         10.4692 
        1.31957         36.1874         10.1793 
        1.33529         35.8113         9.89923 
        1.35108         35.1937         9.62866 
        1.36674         34.5561         9.37017 
         1.3824         33.7836         9.12144 
        1.39811         33.6996         8.88093 
        1.41389         33.1848         8.64821 
        1.42964         32.5918         8.42423 
        1.44531         32.3279         8.20931 
        1.46101          31.549         8.00145 
        1.47667         31.4226         7.80142 
        1.49229         31.1263         7.60879 
        1.50793         30.5935         7.42246 
        1.52367         30.2975         7.24119 
        1.53953         30.0348         7.06477 
        1.55526         29.4223         6.89565 
        1.57092         29.1034         6.73277 
        1.58662           28.73         6.57479 
        1.60235         28.4385         6.42158 
        1.61809         28.0505         6.27318 
        1.63369         27.7274         6.13081 
        1.64941         27.2535         5.99184 
        1.66519         27.0949         5.85669 
        1.68085         26.7265         5.72668 
        1.69652         26.4323         5.60059 
        1.71228         26.2183         5.47758 
        1.72806          25.794         5.35818 
        1.74368         25.4589         5.24354 
        1.75933         25.1924         5.13204 
        1.77505         25.0484         5.02326 
        1.79081         24.6395         4.91745 
         1.8065          24.464         4.81514 
        1.82218         24.1907         4.71584 
        1.83797         23.8377         4.61867 
        1.85367         23.5849         4.52477 
        1.86928         23.3613         4.43406 
        1.88497         22.9936         4.34534 
        1.90073         23.0265         4.25872 
        1.91647         22.6147         4.17455 
        1.93218         22.4315         4.09283 
        1.94787         22.2464         4.01343 
        1.96363          22.062         3.93582 
        1.97935         21.8144         3.86042 
        1.99499         21.5471         3.78743 
        2.01064         21.3966         3.71623 
         2.0264         21.0274         3.64641 
        2.04216         20.8749         3.57842 
        2.05781         20.6524         3.51259 
        2.07353         20.4642         3.44819 
        2.08928         20.3834         3.38526 
        2.10499         20.0976         3.32408 
        2.12065         19.7743         3.26459 
        2.13633         19.7448         3.20651 
        2.15211         19.3892         3.14947 
        2.16785         19.3328         3.09398 
        2.18349         19.1432         3.04017 
        2.19916         18.9402         2.98753 
        2.21489         18.7449         2.93597 
        2.23063         18.5882         2.88559 
         2.2463           18.42         2.83661 
        2.26194         18.3057          2.7889 
        2.27765         18.0414         2.74204 
        2.29341         17.8318         2.69614 
        2.30914         17.7284         2.65139 
        2.32486         17.6185         2.60767 
        2.34061         17.4159         2.56487 
        2.35635         17.1734         2.52307 
        2.37203         17.0937         2.48235 
        2.38768         16.9547         2.44261 
        2.40339         16.7426         2.40359 
        2.41914         16.5975         2.36534 
        2.43483         16.4608         2.32806 
         2.4505         16.2742         2.29164 
        2.46622         16.1568         2.25588 
        2.48195         15.9871         2.22088 
        2.49759         15.8629         2.18681 
        2.51328         15.7126         2.15337 
        2.52906          15.605         2.12041 
        2.54479         15.4584         2.08827 
        2.56049         15.3379         2.05685 
        2.57618         15.2288         2.02611 
        2.59189         15.0632         1.99596 
        2.60758         14.9479         1.96646 
        2.62325         14.8437          1.9376 
        2.63898         14.6633         1.90921 
        2.65468         14.5914         1.88145 
        2.67044         14.4132         1.85413 
        2.68618         14.3211         1.82741 
        2.70184         14.1848         1.80133 
        2.71755         14.0359         1.77569 
        2.73329         13.9394         1.75051 
        2.74897         13.7966          1.7259 
        2.76462          13.791         1.70182 
        2.78034          13.567          1.6781 
        2.79607         13.4508          1.6548 
        2.81179         13.3371         1.63198 
        2.82749           13.25         1.60961 
        2.84321         13.0982         1.58764 
        2.85893         13.0209         1.56608 
        2.87462         12.9228         1.54496 
        2.89033           12.75         1.52421 
        2.90605         12.6797         1.50382 
        2.92176         12.5949         1.48382 
        2.93747          12.493         1.46419 
        2.95318         12.3532         1.44491 
        2.96891         12.2472         1.42597 
        2.98456         12.1752         1.40745 
        3.00023         12.0937         1.38924 
        3.01596         11.9748         1.37129 
        3.03164         11.8922         1.35371 
        3.04738         11.7627         1.33639 
         3.0631         11.6775         1.31937 
        3.07883         11.5559         1.30265 
        3.09456         11.5013         1.28623 
        3.11026         11.3368         1.27011 
        3.12596         11.3266         1.25427 
        3.14163         11.2112         1.23873 
        3.15734         11.1051         1.22343 
        3.17308         11.0375         1.20834 
        3.18879         10.9823         1.19355 
        3.20447          10.836         1.17903 
         3.2202         10.7567         1.16471 
         3.2359         10.7185         1.15065 
        3.25157           10.62         1.13685 
        3.26729         10.5146         1.12324 
        3.28304         10.4183         1.10983 
        3.29877         10.3247         1.09665 
        3.31446         10.2767         1.08372 
        3.33014           10.17           1.071 
        3.34585          10.139         1.05847 
        3.36158         10.0527         1.04612 
        3.37727         9.95077         1.03401 
        3.39294         9.87613          1.0221 
        3.40867         9.75398         1.01033 
        3.42439         9.71113         0.99876 
        3.44008         9.63855         0.98739 
        3.45578         9.56645        0.976188 
        3.47153         9.52606        0.965136 
        3.48724         9.44331        0.954274 
        3.50292          9.3477        0.943604 
        3.51859         9.29595        0.933103 
        3.53431         9.20977        0.922729 
        3.55007          9.1483        0.912487 
        3.56577         9.09025        0.902441 
        3.58146         9.01743         0.89255 
        3.59719          8.9343        0.882785 
        3.61292         8.86764        0.873169 
        3.62859         8.78462        0.863733 
        3.64429         8.74048        0.854418 
        3.66003         8.65368        0.845212 
        3.67578         8.57159        0.836145 
        3.69146         8.54298        0.827245 
        3.70712         8.48351         0.81849 
        3.72284         8.39866         0.80983 
        3.73853         8.34369         0.80131 
        3.75422         8.28253         0.79291 
        3.76993         8.21942        0.784623 
        3.78564         8.14514        0.776457 
        3.80137          8.1003        0.768394 
        3.81707         8.01865        0.760463 
        3.83279         7.99984        0.752637 
        3.84853         7.92039        0.744909 
        3.86424         7.83577        0.737304 
        3.87992         7.77612        0.729817 
        3.89561         7.74701        0.722433 
        3.91134         7.67794        0.715136 
        3.92704         7.62502        0.707948 
        3.94273         7.56245        0.700867 
        3.95845          7.5223        0.693869 
        3.97418          7.4406        0.686965 
        3.98988         7.40261        0.680164 
        4.00554         7.33322        0.673474 
        4.02125         7.28562        0.666855 
        4.03698          7.2413        0.660314 
        4.05268         7.19015        0.653876 
        4.06839         7.12286        0.647519 
         4.0841         7.07776        0.641249 
        4.09983         7.04766        0.635052 
        4.11555         6.99402         0.62894 
        4.13124         6.94105        0.622925 
        4.14693         6.86848        0.616984 
        4.16266         6.82183        0.611106 
        4.17839         6.77083        0.605309 
        4.19408         6.71154        0.599599 
        4.20977         6.66339        0.593961 
        4.22551         6.61344        0.588382 
        4.24123         6.56596         0.58288 
        4.25691         6.51701        0.577464 
        4.27259         6.47741        0.572115 
        4.28831         6.42743        0.566822 
        4.30404         6.37094        0.561592 
        4.31974         6.33076        0.556438 
        4.33543         6.28375        0.551353 
        4.35116         6.24364        0.546318 
        4.36688         6.18917        0.541349 
        4.38255         6.13849         0.53646 
        4.39825         6.09482         0.53162 
        4.41398          6.0614        0.526831 
         4.4297         6.03885        0.522105 
        4.44541         5.97115        0.517439 
        4.46111         5.96047        0.512833 
        4.47683         5.87909        0.508279 
        4.49251         5.86796         0.50379 
        4.50819         5.80744        0.499357 
         4.5239         5.76264         0.49497 
        4.53962         5.73983        0.490631 
        4.55535         5.67977        0.486342 
        4.57106         5.64834         0.48211 
        4.58678         5.61509        0.477927 
         4.6025         5.56251        0.473793 
        4.61821         5.52987        0.469709 
        4.63391         5.49757        0.465678 
         4.6496         5.45062        0.461695 
        4.66532         5.43188        0.457754 
        4.68103         5.36763         0.45386 
        4.69673         5.35119        0.450015 
        4.71241         5.30739        0.446218 
        4.72811         5.26639        0.442459 
        4.74384         5.23501        0.438738 
        4.75955         5.19084        0.435066 
        4.77525         5.16147        0.431438 
        4.79096         5.12549        0.427847 
        4.80669         5.09324        0.424295 
         4.8224         5.06417        0.420787 
        4.83809         5.01799        0.417322 
        4.85379         4.97452        0.413895 
         4.8695         4.95584        0.410503 
        4.88521         4.92552         0.40715 
        4.90093         4.87749        0.403835 
        4.91663          4.8547        0.400559 
        4.93234         4.83056        0.397316 
        4.94807         4.78202        0.394107 
        4.96377         4.75368        0.390939 
        4.97943         4.71683        0.387813 
        4.99514         4.68477        0.384713 
        5.01086         4.65333        0.381644 
        5.02654         4.63619        0.378617 
        5.04227         4.59944        0.375613 
          5.058         4.56247        0.372641 
        5.07371          4.5409        0.369707 
        5.08942         4.50908        0.366804 
        5.10513         4.48257        0.363931 
        5.12084         4.45505        0.361088 
        5.13656         4.42676        0.358276 
        5.15225         4.39485        0.355499 
        5.16796         4.36493        0.352746 
        5.18369         4.33037        0.350021 
         5.1994          4.3082        0.347328 
        5.21509         4.28017        0.344667 
        5.23079         4.25572         0.34203 
        5.24649         4.22067        0.339423 
        5.26217         4.20165        0.336845 
        5.27788         4.16933         0.33429 
        5.29359         4.13899        0.331762 
        5.30933         4.11475        0.329255 
        5.32504         4.09452        0.326779 
        5.34073         4.05958        0.324331 
        5.35646         4.03681        0.321903 
        5.37218         4.00992        0.319499 
        5.38789         3.99051        0.317124 
        5.40357         3.96336        0.314775 
        5.41929         3.93234        0.312446 
        5.43502         3.91788        0.310139 
         5.4507         3.88043        0.307861 
        5.46639         3.86249        0.305606 
        5.48212         3.84766        0.303368 
        5.49786         3.82341         0.30115 
        5.51353         3.78891        0.298965 
        5.52921         3.76646        0.296799 
        5.54495         3.73532        0.294649 
        5.56066         3.72432        0.292522 
        5.57637         3.69639        0.290416 
        5.59207         3.67643        0.288333 
        5.60778         3.65339         0.28627 
        5.62346         3.61963         0.28423 
        5.63916          3.6038        0.282207 
        5.65487          3.5843        0.280204 
         5.6706          3.5671        0.278217 
        5.68633         3.54083        0.276249 
        5.70203         3.51281        0.274304 
        5.71773         3.50384        0.272378 
        5.73344         3.48066        0.270469 
        5.74916         3.45975        0.268577 
        5.76486         3.43596        0.266705 
        5.78054         3.41317        0.264855 
        5.79626         3.39997        0.263016 
          5.812         3.38135        0.261194 
         5.8277         3.36452        0.259394 
        5.84339         3.33728         0.25761 
        5.85911         3.31964         0.25584 
        5.87484         3.30207        0.254088 
        5.89053         3.27417        0.252354 
        5.90623         3.25574        0.250637 
        5.92195          3.2398        0.248932 
        5.93767         3.22561        0.247244 
        5.95336         3.20699        0.245575 
        5.96905         3.18776        0.243921 
        5.98476          3.1675        0.242281 
        6.00048         3.14452        0.240655 
        6.01617         3.13164        0.239046 
        6.03185         3.10826        0.237453 
        6.04756         3.09434        0.235872 
        6.06331         3.06899        0.234301 
        6.07903         3.05862        0.232748 
        6.09473          3.0413        0.231211 
        6.11044         3.01962        0.229686 
        6.12616         3.00499        0.228175 
        6.14186         2.99237        0.226679 
        6.15755         2.96867        0.225196 
        6.17326         2.96005        0.223726 
        6.18898         2.93898        0.222268 
        6.20467         2.91843        0.220826 
        6.22036         2.89937        0.219396 
         6.2361         2.88983        0.217975 
         6.2518         2.87125         0.21657 
        6.26748         2.85396        0.215179 
        6.28319         2.83892        0.213798 
        6.29893         2.82462        0.212427 
        6.31463         2.80989         0.21107 
        6.33033          2.7994        0.209725 
        6.34604          2.7777        0.208392 
        6.36177         2.76223        0.207069 
        6.37747         2.74784        0.205759 
