# k  (h/Mpc)    Pcb(k)  (Mpc/h)^3    Pcb_linear(k) (Mpc/h)^3   ShotnoiseSubtracted = true
      0.0200456         14252.2         14545.4 
      0.0350414         10203.2           10574 
      0.0492313         7586.08         7682.87 
      0.0637834         6513.26          6386.7 
      0.0800726         5149.17         5068.97 
       0.096163         3586.84         3677.98 
       0.111083         2860.89         2933.65 
       0.126058         2638.02         2599.81 
       0.142273         2281.08         2202.61 
       0.158546         1936.33          1739.6 
        0.17375         1549.44         1465.61 
       0.188953          1503.4         1327.08 
       0.204907         1412.88         1174.19 
       0.220756         1209.46          993.44 
        0.23588         1069.42         864.206 
         0.2514         931.022         785.123 
       0.267535         916.804         710.401 
       0.283568         831.229         626.479 
       0.299022         779.161          558.16 
       0.314451         737.885          510.12 
       0.330372         679.653         467.978 
       0.346141         625.252         424.761 
       0.361624         601.216          386.05 
       0.377134         558.007         355.227 
       0.392932         534.717         328.685 
       0.408854         515.372         302.984 
       0.424564         485.301         279.264 
       0.440253          474.08          258.91 
       0.455999         447.133         241.212 
       0.471626         421.932         224.947 
        0.48727         407.903         209.732 
       0.502856         395.651         196.064 
       0.518488         391.749         183.868 
       0.534347         366.395         172.531 
       0.550082         348.692         162.077 
       0.565732         346.647         152.513 
       0.581496         326.721         143.754 
       0.597222          321.14         135.721 
       0.612804         311.236         128.334 
       0.628434         299.271         121.449 
       0.644267         290.597         115.012 
       0.660051         284.849         109.079 
       0.675724         280.213         103.601 
       0.691403         271.846         98.4946 
       0.707174         261.795         93.7036 
       0.722871         258.646         89.2502 
        0.73838         254.251          85.134 
       0.754018         247.476         81.2462 
       0.769845         238.995          77.559 
        0.78569         238.656         74.0975 
       0.801365         230.271         70.8818 
       0.817031         223.312         67.8598 
       0.832809         221.153         64.9957 
       0.848511         215.186         62.3105 
       0.864097         212.377         59.7962 
       0.879701         208.425         57.4189 
       0.895507         203.181         55.1434 
       0.911279         197.016         52.9966 
        0.92691         197.041         50.9823 
       0.942635         191.976         49.0621 
       0.958396         190.599         47.2371 
       0.974128         186.201         45.5087 
       0.989692         181.816         43.8842 
        1.00528         179.497          42.337 
        1.02113          178.11         40.8404 
        1.03692         172.936          39.422 
        1.05264          169.55         38.0778 
        1.06832         166.623         36.7985 
        1.08405         163.985         35.5749 
        1.09979         162.811         34.4064 
        1.11537          158.23         33.3022 
        1.13105         156.216         32.2401 
        1.14679         155.953         31.2203 
        1.16256         153.168         30.2429 
        1.17828         149.952         29.3106 
        1.19395         147.713          28.421 
         1.2097         146.626         27.5639 
        1.22537         143.888         26.7463 
          1.241         141.849         25.9646 
        1.25666         139.496         25.2122 
        1.27241         137.069         24.4862 
        1.28819         135.563         23.7877 
        1.30392         133.511         23.1186 
        1.31957         132.491         22.4782 
        1.33529         128.944         21.8599 
        1.35108         128.142         21.2624 
        1.36674         126.857         20.6916 
         1.3824         124.336         20.1423 
        1.39811         123.767         19.6112 
        1.41389         121.485         19.0973 
        1.42964         118.911         18.6027 
        1.44531         116.832         18.1281 
        1.46101         115.718         17.6691 
        1.47667         114.354         17.2274 
        1.49229         112.741          16.802 
        1.50793         111.789         16.3906 
        1.52367         110.354         15.9903 
        1.53953         108.177         15.6007 
        1.55526         107.203         15.2272 
        1.57092         105.938         14.8676 
        1.58662         104.009         14.5187 
        1.60235         103.513         14.1804 
        1.61809         101.434         13.8527 
        1.63369         100.652         13.5383 
        1.64941         99.7596         13.2314 
        1.66519         97.5988          12.933 
        1.68085         97.0656         12.6459 
        1.69652         94.5989         12.3674 
        1.71228         94.7807         12.0958 
        1.72806         93.3766         11.8322 
        1.74368         92.1468          11.579 
        1.75933         90.7934         11.3328 
        1.77505         89.8181         11.0926 
        1.79081         88.4453         10.8589 
         1.8065         87.4504          10.633 
        1.82218           85.82         10.4137 
        1.83797         84.8548         10.1991 
        1.85367         84.0288         9.99179 
        1.86928         83.5219         9.79147 
        1.88497         81.7923         9.59555 
        1.90073         81.2738         9.40429 
        1.91647          80.189         9.21841 
        1.93218         79.0472         9.03796 
        1.94787         78.3779         8.86262 
        1.96363         77.0047         8.69124 
        1.97935         76.3172         8.52474 
        1.99499         75.3709         8.36356 
        2.01064         74.6092         8.20632 
         2.0264         73.1853         8.05214 
        2.04216         72.4392           7.902 
        2.05781         71.6131         7.75664 
        2.07353         70.3441         7.61443 
        2.08928         69.4385         7.47547 
        2.10499         68.9011         7.34036 
        2.12065         68.4561           7.209 
        2.13633         67.5455         7.08074 
        2.15211         66.7244         6.95478 
        2.16785          65.958         6.83224 
        2.18349         65.2154         6.71343 
        2.19916         64.3457         6.59719 
        2.21489         63.6698         6.48332 
        2.23063         63.1728         6.37207 
         2.2463         62.2083         6.26393 
        2.26194         61.6508         6.15857 
        2.27765         61.0154         6.05509 
        2.29341         60.2114         5.95373 
        2.30914         59.2897          5.8549 
        2.32486          58.532         5.75837 
        2.34061         57.9819         5.66385 
        2.35635         57.4585         5.57155 
        2.37203         56.5232         5.48162 
        2.38768         55.9648         5.39386 
        2.40339         55.2669         5.30771 
        2.41914         54.8795         5.22325 
        2.43483         54.5464         5.14092 
         2.4505         53.8473          5.0605 
        2.46622         53.2037         4.98153 
        2.48195         52.5501         4.90424 
        2.49759         51.7034           4.829 
        2.51328          51.265         4.75515 
        2.52906         50.8633         4.68238 
        2.54479         50.2206          4.6114 
        2.56049         49.5677         4.54203 
        2.57618         49.1661         4.47415 
        2.59189         48.5947         4.40755 
        2.60758         48.2562         4.34242 
        2.62325         47.5773         4.27868 
        2.63898         47.1537           4.216 
        2.65468         46.6149          4.1547 
        2.67044         45.8553         4.09437 
        2.68618         45.6083         4.03537 
        2.70184         44.9167         3.97777 
        2.71755         44.7911         3.92115 
        2.73329         43.9726         3.86555 
        2.74897         43.5996          3.8112 
        2.76462         43.1129         3.75802 
        2.78034         42.8283         3.70564 
        2.79607         42.2182          3.6542 
        2.81179         41.8264          3.6038 
        2.82749         41.1786          3.5544 
        2.84321         40.9091         3.50588 
        2.85893         40.4503         3.45828 
        2.87462         39.9349         3.41164 
        2.89033         39.5747         3.36582 
        2.90605         39.1971          3.3208 
        2.92176         38.8064         3.27663 
        2.93747         38.4067         3.23328 
        2.95318         37.9862         3.19071 
        2.96891         37.4094         3.14888 
        2.98456         37.2497           3.108 
        3.00023         36.8129         3.06777 
        3.01596         36.4447         3.02814 
        3.03164         35.9909         2.98932 
        3.04738         35.7999         2.95106 
         3.0631         35.2544         2.91349 
        3.07883         34.9601         2.87657 
        3.09456         34.6063         2.84029 
        3.11026         34.2053          2.8047 
        3.12596         33.9471         2.76972 
        3.14163          33.546         2.73542 
        3.15734         33.0893         2.70162 
        3.17308         32.9395         2.66831 
        3.18879         32.6721         2.63565 
        3.20447         32.1948         2.60359 
         3.2202         31.8128         2.57196 
         3.2359         31.6022         2.54091 
        3.25157         31.2734         2.51045 
        3.26729         31.0191         2.48039 
        3.28304         30.6509         2.45077 
        3.29877         30.3546         2.42167 
        3.31446         30.1163         2.39311 
        3.33014         29.7738         2.36503 
        3.34585         29.5352         2.33736 
        3.36158         29.2155         2.31009 
        3.37727         28.8904         2.28334 
        3.39294         28.6138         2.25704 
        3.40867         28.3504         2.23106 
        3.42439         28.0973          2.2055 
        3.44008         27.9079         2.18039 
        3.45578         27.4302         2.15566 
        3.47153         27.2321         2.13125 
        3.48724         26.9842         2.10727 
        3.50292         26.6962          2.0837 
        3.51859         26.4795         2.06052 
        3.53431         26.3057         2.03761 
        3.55007         25.9981         2.01499 
        3.56577         25.7431         1.99281 
        3.58146         25.5487         1.97097 
        3.59719         25.2349          1.9494 
        3.61292         25.0247         1.92817 
        3.62859          24.802         1.90733 
        3.64429         24.5099         1.88676 
        3.66003         24.2914         1.86643 
        3.67578          24.159         1.84641 
        3.69146         23.8909         1.82676 
        3.70712         23.6429         1.80742 
        3.72284         23.5081          1.7883 
        3.73853         23.2797         1.76949 
        3.75422         23.0106         1.75094 
        3.76993         22.8499         1.73264 
        3.78564         22.5418          1.7146 
        3.80137         22.4128          1.6968 
        3.81707         22.2218         1.67929 
        3.83279         21.9199           1.662 
        3.84853         21.6789         1.64494 
        3.86424         21.5302         1.62814 
        3.87992         21.3554         1.61161 
        3.89561         21.1804         1.59531 
        3.91134         21.0058         1.57919 
        3.92704         20.8022         1.56332 
        3.94273         20.5744         1.54768 
        3.95845          20.413         1.53223 
        3.97418         20.2691         1.51698 
        3.98988         20.0606         1.50197 
        4.00554         19.9163         1.48719 
        4.02125         19.7418         1.47258 
        4.03698         19.4707         1.45813 
        4.05268         19.3386         1.44392 
        4.06839         19.1501         1.42988 
         4.0841         19.0647         1.41603 
        4.09983          18.866         1.40235 
        4.11555         18.7031         1.38885 
        4.13124         18.4623         1.37557 
        4.14693         18.2881         1.36245 
        4.16266         18.1631         1.34947 
        4.17839         17.9884         1.33667 
        4.19408         17.8058         1.32406 
        4.20977          17.736         1.31161 
        4.22551         17.5647         1.29929 
        4.24123         17.3855         1.28714 
        4.25691         17.2794         1.27518 
        4.27259         17.0945         1.26337 
        4.28831         16.9455         1.25168 
        4.30404         16.7965         1.24013 
        4.31974         16.6261         1.22875 
        4.33543         16.5304         1.21752 
        4.35116         16.3932          1.2064 
        4.36688         16.2159         1.19543 
        4.38255         16.1027         1.18463 
        4.39825         15.9991         1.17395 
        4.41398         15.8236         1.16337 
         4.4297         15.7009         1.15293 
        4.44541         15.5979         1.14263 
        4.46111          15.446         1.13246 
        4.47683         15.3026          1.1224 
        4.49251         15.2248         1.11249 
        4.50819         15.0495          1.1027 
         4.5239         14.9598         1.09301 
        4.53962         14.8042         1.08343 
        4.55535         14.7057         1.07396 
        4.57106         14.5631         1.06461 
        4.58678         14.4988         1.05538 
         4.6025         14.3315         1.04625 
        4.61821         14.2148         1.03723 
        4.63391          14.121         1.02833 
         4.6496         13.9739         1.01953 
        4.66532         13.8402         1.01083 
        4.68103         13.7475         1.00223 
        4.69673         13.6903        0.993741 
        4.71241         13.5547        0.985357 
        4.72811         13.4286        0.977056 
        4.74384         13.3281         0.96884 
        4.75955         13.2193        0.960731 
        4.77525         13.1315        0.952719 
        4.79096         13.0266        0.944788 
        4.80669          12.916        0.936944 
         4.8224         12.7977        0.929198 
        4.83809         12.7134        0.921548 
        4.85379         12.5924        0.913979 
         4.8695         12.5425        0.906489 
        4.88521         12.4007        0.899086 
        4.90093         12.3059        0.891764 
        4.91663         12.2492        0.884531 
        4.93234         12.0973        0.877369 
        4.94807         12.0385        0.870283 
        4.96377         11.9271        0.863288 
        4.97943         11.8531        0.856384 
        4.99514         11.7338        0.849538 
        5.01086         11.6764        0.842762 
        5.02654         11.5585        0.836077 
        5.04227         11.4922        0.829445 
          5.058         11.4122        0.822881 
        5.07371         11.3201        0.816401 
        5.08942         11.2189         0.80999 
        5.10513         11.1329        0.803648 
        5.12084         11.0546         0.79737 
        5.13656         10.9704         0.79116 
        5.15225         10.8789        0.785027 
        5.16796         10.8244        0.778949 
        5.18369         10.7132        0.772929 
         5.1994         10.6561        0.766985 
        5.21509         10.5618        0.761108 
        5.23079         10.5057        0.755285 
        5.24649         10.4313        0.749529 
        5.26217         10.3188        0.743836 
        5.27788         10.2476        0.738194 
        5.29359          10.197        0.732609 
        5.30933         10.1188        0.727075 
        5.32504          10.048        0.721606 
        5.34073         9.95389          0.7162 
        5.35646         9.89129        0.710838 
        5.37218         9.82015        0.705531 
        5.38789         9.74287        0.700285 
        5.40357          9.6752          0.6951 
        5.41929         9.58566        0.689955 
        5.43502         9.56082        0.684861 
         5.4507         9.46147        0.679832 
        5.46639         9.39934        0.674852 
        5.48212         9.33798         0.66991 
        5.49786         9.25876        0.665011 
        5.51353         9.18999        0.660186 
        5.52921           9.122        0.655404 
        5.54495         9.05022        0.650655 
        5.56066         8.98614        0.645959 
        5.57637         8.91898        0.641309 
        5.59207         8.87113        0.636709 
        5.60778         8.79325        0.632153 
        5.62346         8.73663        0.627647 
        5.63916         8.67466        0.623182 
        5.65487         8.61478        0.618757 
         5.6706         8.56214         0.61437 
        5.68633         8.48933        0.610023 
        5.70203         8.44898        0.605728 
        5.71773         8.37966        0.601475 
        5.73344         8.32012        0.597261 
        5.74916          8.2449        0.593082 
        5.76486         8.22705         0.58895 
        5.78054         8.14338        0.584863 
        5.79626         8.07472        0.580804 
          5.812         8.04036        0.576779 
         5.8277         7.97786        0.572803 
        5.84339         7.92767        0.568866 
        5.85911         7.86657        0.564957 
        5.87484         7.81525        0.561086 
        5.89053         7.76087        0.557259 
        5.90623         7.70078        0.553466 
        5.92195         7.66458        0.549702 
        5.93767         7.61315        0.545975 
        5.95336         7.55431        0.542288 
        5.96905         7.48493        0.538637 
        5.98476         7.46139        0.535014 
        6.00048         7.40878        0.531423 
        6.01617         7.36096         0.52787 
        6.03185         7.30296        0.524354 
        6.04756         7.24577        0.520861 
        6.06331         7.21297        0.517393 
        6.07903         7.17122        0.513964 
        6.09473         7.09851        0.510568 
        6.11044         7.06824        0.507201 
        6.12616         7.01838        0.503864 
        6.14186         6.96922        0.500561 
        6.15755         6.91529        0.497287 
        6.17326         6.87878         0.49404 
        6.18898         6.83821        0.490821 
        6.20467         6.78786        0.487636 
        6.22036         6.74262        0.484479 
         6.2361         6.70539        0.481342 
         6.2518         6.65368        0.478238 
        6.26748         6.60131        0.475168 
        6.28319         6.56449        0.472116 
        6.29893         6.53404        0.469089 
        6.31463         6.49225        0.466093 
        6.33033         6.44916        0.463124 
        6.34604          6.4039        0.460179 
        6.36177         6.35295        0.457257 
        6.37747         6.33177        0.454366 
