# k  (h/Mpc)    Pcb(k)  (Mpc/h)^3    Pcb_linear(k) (Mpc/h)^3   ShotnoiseSubtracted = true
      0.0200456         2225.36         2258.41 
      0.0350414         1625.87         1641.78 
      0.0492313         1195.36         1192.89 
      0.0637834         1003.19         991.638 
      0.0800726         795.329         787.039 
       0.096163         567.524         571.065 
       0.111083         450.314         455.496 
       0.126058         406.802         403.662 
       0.142273         347.713         341.991 
       0.158546         277.758         270.101 
        0.17375         228.573          227.56 
       0.188953          211.71          206.05 
       0.204907         194.545         182.313 
       0.220756         162.189         154.247 
        0.23588         141.303         134.182 
         0.2514         126.279         121.903 
       0.267535         116.354         110.301 
       0.283568         104.017         97.2708 
       0.299022         94.2989         86.6633 
       0.314451         84.4687         79.2044 
       0.330372         78.5385         72.6611 
       0.346141         71.2104          65.951 
       0.361624         65.9681         59.9405 
       0.377134         61.9118         55.1547 
       0.392932         54.9952         51.0335 
       0.408854         52.9039         47.0431 
       0.424564         49.6505         43.3603 
       0.440253         45.7325            40.2 
       0.455999          43.099          37.452 
       0.471626         40.3692         34.9266 
        0.48727         38.3069         32.5643 
       0.502856         35.8706         30.4421 
       0.518488         34.2624         28.5485 
       0.534347         32.8424         26.7882 
       0.550082         30.0078         25.1651 
       0.565732         27.9359         23.6801 
       0.581496         27.3458         22.3201 
       0.597222         26.3758         21.0728 
       0.612804         24.5722         19.9259 
       0.628434           23.68         18.8569 
       0.644267         22.9745         17.8574 
       0.660051         21.7303         16.9363 
       0.675724         20.6045         16.0857 
       0.691403         19.9357         15.2929 
       0.707174         19.1611          14.549 
       0.722871         18.3903         13.8575 
        0.73838         17.6935         13.2184 
       0.754018         17.0371         12.6148 
       0.769845         16.3885         12.0423 
        0.78569         15.8585         11.5048 
       0.801365         15.2309         11.0055 
       0.817031         14.7919         10.5363 
       0.832809         14.4479         10.0916 
       0.848511         13.5629          9.6747 
       0.864097         13.2609         9.28432 
       0.879701         12.8722         8.91521 
       0.895507         12.3569          8.5619 
       0.911279         12.1163         8.22857 
        0.92691           11.74         7.91582 
       0.942635         11.2355         7.61767 
       0.958396         10.9396         7.33432 
       0.974128         10.6449         7.06596 
       0.989692         10.5201         6.81373 
        1.00528           10.16          6.5735 
        1.02113         9.74546         6.34113 
        1.03692         9.53457          6.1209 
        1.05264          9.3041         5.91218 
        1.06832         9.08207         5.71356 
        1.08405         8.76094         5.52358 
        1.09979         8.56614         5.34215 
        1.11537         8.41974          5.1707 
        1.13105         8.18671         5.00579 
        1.14679         8.03382         4.84746 
        1.16256         7.76808         4.69569 
        1.17828         7.68897         4.55095 
        1.19395         7.41213         4.41281 
         1.2097          7.2469         4.27973 
        1.22537          7.0622          4.1528 
          1.241         6.95267         4.03142 
        1.25666         6.85321          3.9146 
        1.27241         6.64026         3.80188 
        1.28819         6.48522         3.69343 
        1.30392         6.40063         3.58953 
        1.31957         6.26171         3.49011 
        1.33529           6.138          3.3941 
        1.35108         5.97559         3.30133 
        1.36674          5.9388          3.2127 
         1.3824         5.71884         3.12742 
        1.39811         5.64478         3.04496 
        1.41389         5.55258         2.96516 
        1.42964         5.45571         2.88837 
        1.44531         5.35385         2.81468 
        1.46101         5.24252         2.74341 
        1.47667         5.13998         2.67483 
        1.49229          5.0882         2.60879 
        1.50793         4.94643          2.5449 
        1.52367         4.90199         2.48275 
        1.53953         4.78875         2.42226 
        1.55526         4.70652         2.36427 
        1.57092          4.6566         2.30843 
        1.58662         4.54446         2.25426 
        1.60235         4.48648         2.20173 
        1.61809         4.40633         2.15085 
        1.63369         4.33092         2.10204 
        1.64941         4.26753         2.05439 
        1.66519         4.21466         2.00805 
        1.68085         4.12649         1.96348 
        1.69652         4.05425         1.92024 
        1.71228         4.00508         1.87807 
        1.72806         3.93843         1.83713 
        1.74368         3.86851         1.79783 
        1.75933         3.82876         1.75959 
        1.77505         3.77454          1.7223 
        1.79081         3.69552         1.68602 
         1.8065         3.65913         1.65094 
        1.82218         3.61492          1.6169 
        1.83797         3.57688         1.58358 
        1.85367         3.50586         1.55139 
        1.86928         3.46875         1.52028 
        1.88497         3.41149         1.48986 
        1.90073         3.35136         1.46017 
        1.91647         3.30887         1.43131 
        1.93218         3.28363         1.40329 
        1.94787         3.24984         1.37606 
        1.96363         3.18924         1.34945 
        1.97935         3.14504          1.3236 
        1.99499         3.08962         1.29858 
        2.01064         3.06565         1.27416 
         2.0264         3.02469         1.25022 
        2.04216         2.99558         1.22691 
        2.05781         2.94973         1.20434 
        2.07353         2.91817         1.18226 
        2.08928         2.88999         1.16069 
        2.10499         2.84439         1.13971 
        2.12065         2.82677         1.11931 
        2.13633         2.77965          1.0994 
        2.15211         2.74612         1.07984 
        2.16785         2.72008         1.06082 
        2.18349         2.68753         1.04237 
        2.19916         2.63761         1.02432 
        2.21489         2.62624         1.00664 
        2.23063         2.58095        0.989365 
         2.2463         2.56334        0.972575 
        2.26194         2.52764        0.956216 
        2.27765         2.51106         0.94015 
        2.29341         2.47562        0.924412 
        2.30914         2.44656        0.909067 
        2.32486         2.43332        0.894079 
        2.34061          2.3998        0.879404 
        2.35635         2.36405        0.865072 
        2.37203         2.35662        0.851109 
        2.38768         2.32745        0.837484 
        2.40339         2.30319        0.824108 
        2.41914         2.27515        0.810993 
        2.43483         2.25882         0.79821 
         2.4505          2.2229        0.785724 
        2.46622         2.21778        0.773462 
        2.48195         2.18203        0.761462 
        2.49759         2.16323         0.74978 
        2.51328         2.14162        0.738313 
        2.52906         2.13164        0.727014 
        2.54479         2.09981        0.715993 
        2.56049         2.08327        0.705223 
        2.57618         2.06407        0.694683 
        2.59189         2.05571        0.684343 
        2.60758         2.02245         0.67423 
        2.62325         2.00653        0.664333 
        2.63898         1.98353        0.654601 
        2.65468         1.96717        0.645084 
        2.67044         1.95619        0.635716 
        2.68618         1.92917        0.626555 
        2.70184         1.91501        0.617612 
        2.71755         1.89937        0.608821 
        2.73329          1.8792        0.600188 
        2.74897         1.86714         0.59175 
        2.76462         1.84818        0.583494 
        2.78034         1.83589         0.57536 
        2.79607         1.81389        0.567374 
        2.81179         1.80219        0.559548 
        2.82749         1.78395        0.551878 
        2.84321         1.77198        0.544344 
        2.85893         1.75778        0.536953 
        2.87462         1.74073        0.529711 
        2.89033         1.72006        0.522597 
        2.90605         1.70786        0.515607 
        2.92176         1.69712        0.508749 
        2.93747          1.6816        0.502018 
        2.95318         1.66828        0.495409 
        2.96891         1.65799        0.488915 
        2.98456         1.64362        0.482566 
        3.00023         1.62971        0.476321 
        3.01596         1.61928        0.470167 
        3.03164         1.60935        0.464139 
        3.04738         1.58831          0.4582 
         3.0631         1.57624        0.452366 
        3.07883         1.56828        0.446633 
        3.09456         1.55978        0.441001 
        3.11026         1.54356        0.435475 
        3.12596         1.53185        0.430044 
        3.14163         1.52221        0.424718 
        3.15734         1.51038         0.41947 
        3.17308         1.49567        0.414298 
        3.18879         1.49173        0.409227 
        3.20447          1.4784        0.404249 
         3.2202         1.46482        0.399337 
         3.2359         1.45386        0.394517 
        3.25157         1.44737        0.389787 
        3.26729         1.43102         0.38512 
        3.28304         1.42977        0.380521 
        3.29877         1.41108        0.376003 
        3.31446         1.40154        0.371568 
        3.33014          1.3992        0.367209 
        3.34585         1.38802        0.362912 
        3.36158         1.37349        0.358678 
        3.37727         1.36961        0.354525 
        3.39294         1.35414        0.350442 
        3.40867         1.34367        0.346408 
        3.42439         1.33849        0.342439 
        3.44008         1.33202        0.338541 
        3.45578         1.32328          0.3347 
        3.47153         1.31139        0.330911 
        3.48724         1.30208        0.327187 
        3.50292         1.29658        0.323529 
        3.51859         1.29129        0.319928 
        3.53431         1.28027        0.316371 
        3.55007         1.27069         0.31286 
        3.56577         1.26403        0.309415 
        3.58146         1.25867        0.306024 
        3.59719         1.24624        0.302676 
        3.61292         1.24403        0.299379 
        3.62859         1.23274        0.296144 
        3.64429         1.22411         0.29295 
        3.66003         1.21514        0.289793 
        3.67578         1.20834        0.286685 
        3.69146         1.20363        0.283633 
        3.70712         1.19123        0.280631 
        3.72284         1.18939        0.277662 
        3.73853         1.17952        0.274741 
        3.75422         1.17404        0.271861 
        3.76993         1.16774        0.269019 
        3.78564         1.15995         0.26622 
        3.80137         1.14986        0.263455 
        3.81707         1.14757        0.260736 
        3.83279         1.13656        0.258053 
        3.84853         1.13185        0.255403 
        3.86424         1.12305        0.252796 
        3.87992         1.12321        0.250228 
        3.89561         1.11214        0.247697 
        3.91134         1.10645        0.245195 
        3.92704         1.09906         0.24273 
        3.94273         1.09513        0.240302 
        3.95845           1.088        0.237903 
        3.97418         1.07986        0.235536 
        3.98988          1.0734        0.233204 
        4.00554         1.06647         0.23091 
        4.02125         1.06075        0.228641 
        4.03698         1.05148        0.226398 
        4.05268         1.04521        0.224191 
        4.06839         1.03374        0.222011 
         4.0841         1.03065        0.219861 
        4.09983         1.02308        0.217737 
        4.11555         1.01722        0.215641 
        4.13124         1.00875        0.213579 
        4.14693         1.00032        0.211542 
        4.16266        0.993742        0.209527 
        4.17839         0.99007        0.207539 
        4.19408        0.984407        0.205582 
        4.20977        0.974894        0.203648 
        4.22551        0.972434        0.201735 
        4.24123         0.96585        0.199849 
        4.25691         0.95801        0.197992 
        4.27259        0.954788        0.196158 
        4.28831        0.948166        0.194343 
        4.30404        0.943792         0.19255 
        4.31974        0.934366        0.190783 
        4.33543        0.930722        0.189039 
        4.35116        0.927376        0.187313 
        4.36688        0.920143        0.185609 
        4.38255        0.914431        0.183933 
        4.39825        0.913095        0.182274 
        4.41398        0.906138        0.180632 
         4.4297        0.901082        0.179011 
        4.44541        0.896919        0.177411 
        4.46111        0.894769        0.175832 
        4.47683        0.890933        0.174271 
        4.49251        0.884897        0.172732 
        4.50819        0.881211        0.171212 
         4.5239        0.875422        0.169708 
        4.53962        0.873856         0.16822 
        4.55535        0.866215        0.166749 
        4.57106        0.866188        0.165298 
        4.58678        0.860605        0.163864 
         4.6025        0.857483        0.162447 
        4.61821        0.853379        0.161047 
        4.63391        0.849019        0.159664 
         4.6496        0.843869        0.158299 
        4.66532        0.842634        0.156948 
        4.68103        0.838089        0.155613 
        4.69673        0.835337        0.154294 
        4.71241        0.831787        0.152992 
        4.72811        0.829902        0.151704 
        4.74384        0.824623        0.150428 
        4.75955        0.821262        0.149169 
        4.77525        0.817843        0.147925 
        4.79096        0.815337        0.146694 
        4.80669        0.814244        0.145476 
         4.8224        0.810409        0.144273 
        4.83809        0.808324        0.143085 
        4.85379        0.805367         0.14191 
         4.8695        0.804021        0.140747 
        4.88521         0.79695        0.139597 
        4.90093        0.797228        0.138461 
        4.91663        0.796696        0.137338 
        4.93234        0.791049        0.136226 
        4.94807        0.789831        0.135125 
        4.96377        0.786157        0.134039 
        4.97943         0.78518        0.132967 
        4.99514        0.783625        0.131904 
        5.01086        0.780562        0.130852 
        5.02654        0.780141        0.129814 
        5.04227         0.77564        0.128785 
          5.058        0.774468        0.127765 
        5.07371        0.773121        0.126759 
        5.08942        0.769777        0.125764 
        5.10513        0.768522        0.124779 
        5.12084        0.767484        0.123804 
        5.13656        0.765796         0.12284 
        5.15225         0.76408        0.121888 
        5.16796        0.761577        0.120944 
        5.18369        0.759073         0.12001 
         5.1994        0.758779        0.119087 
        5.21509        0.756891        0.118174 
        5.23079        0.755707         0.11727 
        5.24649        0.754714        0.116376 
        5.26217        0.750328        0.115492 
        5.27788        0.752431        0.114616 
        5.29359        0.749739        0.113749 
        5.30933         0.74728         0.11289 
        5.32504        0.748119        0.112041 
        5.34073        0.746836        0.111202 
        5.35646        0.744146        0.110369 
        5.37218        0.743263        0.109545 
        5.38789        0.743352        0.108731 
        5.40357        0.740283        0.107925 
        5.41929        0.740361        0.107127 
        5.43502        0.739549        0.106336 
         5.4507        0.739484        0.105555 
        5.46639        0.737323        0.104782 
        5.48212        0.735399        0.104014 
        5.49786        0.733943        0.103254 
        5.51353        0.733367        0.102505 
        5.52921        0.732648        0.101762 
        5.54495        0.732439        0.101025 
        5.56066         0.73037        0.100295 
        5.57637        0.731767       0.0995735 
        5.59207        0.730254       0.0988594 
        5.60778        0.727746       0.0981519 
        5.62346        0.728896       0.0974523 
        5.63916        0.727301       0.0967589 
        5.65487        0.726425       0.0960719 
         5.6706        0.728526       0.0953907 
        5.68633        0.725924       0.0947159 
        5.70203        0.725339        0.094049 
        5.71773         0.72475       0.0933887 
        5.73344        0.722355       0.0927343 
        5.74916        0.723102       0.0920855 
        5.76486        0.722416       0.0914439 
        5.78054         0.72118       0.0908094 
        5.79626         0.71981       0.0901791 
          5.812        0.720978       0.0895541 
         5.8277        0.720109       0.0889369 
        5.84339        0.718827       0.0883255 
        5.85911        0.718181       0.0877187 
        5.87484        0.718342       0.0871177 
        5.89053        0.717785       0.0865235 
        5.90623        0.716649       0.0859345 
        5.92195        0.715846         0.08535 
        5.93767        0.713593       0.0847713 
        5.95336        0.715017       0.0841989 
        5.96905        0.714806        0.083632 
        5.98476        0.712084       0.0830695 
        6.00048        0.714415        0.082512 
        6.01617        0.712556       0.0819603 
        6.03185        0.711697       0.0814144 
        6.04756        0.712254       0.0808721 
        6.06331        0.712562       0.0803336 
        6.07903        0.710698       0.0798011 
        6.09473        0.710549       0.0792739 
        6.11044        0.711214       0.0787511 
        6.12616         0.70929        0.078233 
        6.14186        0.709248       0.0777201 
        6.15755        0.709202       0.0772118 
        6.17326        0.708333       0.0767077 
        6.18898         0.70794       0.0762078 
        6.20467        0.708707       0.0757133 
        6.22036        0.705197       0.0752232 
         6.2361         0.70632       0.0747361 
         6.2518        0.706663       0.0742541 
        6.26748        0.705541       0.0737774 
        6.28319        0.705215       0.0733036 
        6.29893        0.704834       0.0728336 
        6.31463        0.704444       0.0723684 
        6.33033        0.703921       0.0719075 
        6.34604        0.704264       0.0714502 
        6.36177         0.70332       0.0709965 
        6.37747        0.703075       0.0705476 
