# k  (h/Mpc)    Pcb(k)  (Mpc/h)^3    Pcb_linear(k) (Mpc/h)^3   ShotnoiseSubtracted = true
      0.0200456         435.171          440.77 
      0.0350414          323.38         320.425 
      0.0492313         233.738         232.815 
      0.0637834         192.307         193.537 
      0.0800726           152.3         153.605 
       0.096163         112.777         111.454 
       0.111083          90.264         88.8986 
       0.126058         78.4476         78.7823 
       0.142273         66.2881         66.7459 
       0.158546         52.9443         52.7153 
        0.17375         44.9519         44.4126 
       0.188953         40.3604         40.2146 
       0.204907         35.0718         35.5817 
       0.220756         30.2213         30.1043 
        0.23588         26.3134         26.1881 
         0.2514         23.8852         23.7916 
       0.267535          21.683         21.5274 
       0.283568         19.1162         18.9842 
       0.299022         17.0962          16.914 
       0.314451         15.8278         15.4582 
       0.330372           14.37         14.1812 
       0.346141         13.0566         12.8716 
       0.361624          11.851         11.6985 
       0.377134         10.8674         10.7645 
       0.392932         10.2963         9.96015 
       0.408854         9.31728         9.18134 
       0.424564         8.75466         8.46257 
       0.440253         8.03035         7.84578 
       0.455999         7.39585         7.30946 
       0.471626         6.90868         6.81659 
        0.48727         6.56734         6.35554 
       0.502856         6.15024         5.94135 
       0.518488         5.67159         5.57178 
       0.534347         5.29737         5.22822 
       0.550082         5.05713         4.91143 
       0.565732         4.81495         4.62162 
       0.581496         4.50639         4.35619 
       0.597222         4.24674         4.11276 
       0.612804         4.00347         3.88892 
       0.628434         3.81339         3.68027 
       0.644267         3.62792         3.48522 
       0.660051         3.43899         3.30544 
       0.675724         3.24122         3.13943 
       0.691403         3.09702         2.98469 
       0.707174         2.94452         2.83951 
       0.722871         2.86402         2.70456 
        0.73838         2.67284         2.57982 
       0.754018         2.55253         2.46201 
       0.769845         2.41551         2.35028 
        0.78569         2.34331         2.24538 
       0.801365         2.24378         2.14794 
       0.817031         2.15758         2.05636 
       0.832809         2.04594         1.96957 
       0.848511         1.97516          1.8882 
       0.864097         1.90421         1.81201 
       0.879701         1.84228         1.73997 
       0.895507         1.74781         1.67102 
       0.911279         1.69354         1.60596 
        0.92691         1.64301         1.54492 
       0.942635         1.55792         1.48673 
       0.958396         1.50766         1.43143 
       0.974128         1.45754         1.37905 
       0.989692         1.40202         1.32983 
        1.00528         1.35009         1.28294 
        1.02113         1.31589         1.23759 
        1.03692         1.27686         1.19461 
        1.05264         1.21856         1.15387 
        1.06832         1.18432         1.11511 
        1.08405         1.13837         1.07803 
        1.09979         1.10977         1.04262 
        1.11537         1.06887         1.00916 
        1.13105          1.0278        0.976974 
        1.14679         1.00438        0.946072 
        1.16256        0.973242        0.916452 
        1.17828          0.9493        0.888203 
        1.19395        0.917524        0.861243 
         1.2097        0.887899         0.83527 
        1.22537        0.858064        0.810497 
          1.241        0.836723        0.786807 
        1.25666        0.819068        0.764008 
        1.27241         0.79209        0.742009 
        1.28819        0.765538        0.720841 
        1.30392        0.747225        0.700564 
        1.31957         0.72719         0.68116 
        1.33529        0.703945        0.662422 
        1.35108        0.685959        0.644316 
        1.36674        0.666207        0.627019 
         1.3824        0.654792        0.610375 
        1.39811        0.633347        0.594281 
        1.41389        0.618743        0.578708 
        1.42964        0.602333         0.56372 
        1.44531        0.586585        0.549338 
        1.46101        0.568927        0.535429 
        1.47667        0.557731        0.522044 
        1.49229        0.540336        0.509154 
        1.50793        0.529947        0.496685 
        1.52367        0.514098        0.484555 
        1.53953        0.501721        0.472749 
        1.55526        0.491724        0.461432 
        1.57092        0.484514        0.450534 
        1.58662        0.472646        0.439962 
        1.60235         0.45981        0.429709 
        1.61809        0.447581        0.419779 
        1.63369        0.435637        0.410252 
        1.64941        0.428235        0.400953 
        1.66519        0.419948        0.391909 
        1.68085        0.407803        0.383209 
        1.69652        0.399549        0.374772 
        1.71228        0.389844        0.366541 
        1.72806        0.382635        0.358551 
        1.74368        0.374056         0.35088 
        1.75933        0.366836        0.343418 
        1.77505        0.359966        0.336139 
        1.79081        0.348751        0.329058 
         1.8065         0.34486        0.322212 
        1.82218        0.334944        0.315568 
        1.83797        0.326252        0.309065 
        1.85367        0.322604        0.302782 
        1.86928        0.314923        0.296712 
        1.88497        0.307397        0.290775 
        1.90073        0.302602        0.284979 
        1.91647        0.296569        0.279346 
        1.93218        0.291562        0.273878 
        1.94787        0.284444        0.268565 
        1.96363        0.279267        0.263371 
        1.97935        0.273367        0.258326 
        1.99499        0.268084        0.253442 
        2.01064         0.26345        0.248677 
         2.0264        0.257754        0.244005 
        2.04216        0.252066        0.239455 
        2.05781        0.248281         0.23505 
        2.07353        0.243759        0.230741 
        2.08928        0.239836         0.22653 
        2.10499        0.234086        0.222436 
        2.12065        0.230319        0.218455 
        2.13633        0.226404        0.214568 
        2.15211        0.222211        0.210751 
        2.16785        0.217988        0.207038 
        2.18349        0.214534        0.203438 
        2.19916        0.209659        0.199915 
        2.21489        0.205752        0.196465 
        2.23063        0.202345        0.193093 
         2.2463        0.199322        0.189816 
        2.26194        0.196098        0.186624 
        2.27765         0.19203        0.183488 
        2.29341        0.188825        0.180416 
        2.30914        0.184951        0.177421 
        2.32486        0.181998        0.174496 
        2.34061        0.178885        0.171632 
        2.35635        0.176027        0.168835 
        2.37203        0.174445         0.16611 
        2.38768        0.170477        0.163451 
        2.40339        0.167674         0.16084 
        2.41914        0.164986         0.15828 
        2.43483        0.162194        0.155786 
         2.4505        0.159266        0.153349 
        2.46622        0.156963        0.150956 
        2.48195        0.154185        0.148614 
        2.49759        0.152666        0.146334 
        2.51328        0.148549        0.144096 
        2.52906        0.146823         0.14189 
        2.54479        0.144575         0.13974 
        2.56049        0.141702        0.137637 
        2.57618        0.140613         0.13558 
        2.59189        0.137573        0.133562 
        2.60758        0.136188        0.131589 
        2.62325        0.133704        0.129657 
        2.63898        0.132218        0.127758 
        2.65468        0.129248          0.1259 
        2.67044        0.127626        0.124072 
        2.68618        0.125563        0.122284 
        2.70184        0.124079        0.120539 
        2.71755        0.121725        0.118823 
        2.73329        0.120437        0.117138 
        2.74897        0.118314        0.115491 
        2.76462        0.116584         0.11388 
        2.78034        0.114909        0.112292 
        2.79607        0.113531        0.110734 
        2.81179        0.111041        0.109206 
        2.82749        0.110071        0.107709 
        2.84321        0.108504        0.106239 
        2.85893        0.106512        0.104796 
        2.87462        0.105569        0.103383 
        2.89033        0.103521        0.101995 
        2.90605        0.102525         0.10063 
        2.92176        0.101265       0.0992918 
        2.93747       0.0994978       0.0979783 
        2.95318       0.0984473       0.0966883 
        2.96891       0.0970757       0.0954209 
        2.98456       0.0959372       0.0941819 
        3.00023       0.0945652        0.092963 
        3.01596       0.0928635       0.0917619 
        3.03164       0.0916007       0.0905855 
        3.04738       0.0906732       0.0894263 
         3.0631        0.089299       0.0882877 
        3.07883       0.0881632       0.0871689 
        3.09456       0.0871138       0.0860697 
        3.11026       0.0856435       0.0849911 
        3.12596       0.0848906       0.0839311 
        3.14163       0.0836862       0.0828917 
        3.15734       0.0829067       0.0818674 
        3.17308       0.0816011        0.080858 
        3.18879       0.0806169       0.0798684 
        3.20447       0.0793889       0.0788967 
         3.2202       0.0786572       0.0779382 
         3.2359       0.0776881       0.0769973 
        3.25157       0.0767324       0.0760743 
        3.26729       0.0757206       0.0751635 
        3.28304        0.075086       0.0742659 
        3.29877       0.0738177       0.0733841 
        3.31446       0.0730382       0.0725185 
        3.33014       0.0724152       0.0716677 
        3.34585       0.0711834       0.0708292 
        3.36158       0.0704436       0.0700028 
        3.37727       0.0696815       0.0691923 
        3.39294       0.0690473       0.0683953 
        3.40867       0.0681605        0.067608 
        3.42439       0.0674238       0.0668335 
        3.44008       0.0668056       0.0660727 
        3.45578       0.0661514       0.0653231 
        3.47153       0.0654434       0.0645835 
        3.48724       0.0646386       0.0638566 
        3.50292       0.0640674       0.0631427 
        3.51859       0.0632484         0.06244 
        3.53431       0.0626197       0.0617458 
        3.55007       0.0619929       0.0610604 
        3.56577       0.0614186       0.0603882 
        3.58146       0.0607339       0.0597263 
        3.59719       0.0600054       0.0590729 
        3.61292       0.0593778       0.0584294 
        3.62859       0.0588728        0.057798 
        3.64429       0.0582144       0.0571747 
        3.66003       0.0579732       0.0565586 
        3.67578       0.0573189       0.0559519 
        3.69146       0.0567654       0.0553563 
        3.70712       0.0562015       0.0547705 
        3.72284       0.0555351        0.054191 
        3.73853       0.0553144       0.0536209 
        3.75422       0.0545664       0.0530587 
        3.76993       0.0541243       0.0525042 
        3.78564       0.0537703       0.0519578 
        3.80137       0.0533573       0.0514183 
        3.81707       0.0525136       0.0508875 
        3.83279       0.0522001       0.0503638 
        3.84853       0.0517446       0.0498467 
        3.86424       0.0513882       0.0493378 
        3.87992       0.0509579       0.0488368 
        3.89561       0.0503053       0.0483427 
        3.91134       0.0499365       0.0478544 
        3.92704       0.0494392       0.0473734 
        3.94273       0.0489731       0.0468995 
        3.95845       0.0485695       0.0464313 
        3.97418       0.0481545       0.0459693 
        3.98988       0.0474771       0.0455142 
        4.00554       0.0471849       0.0450665 
        4.02125       0.0467377       0.0446236 
        4.03698       0.0459409       0.0441859 
        4.05268       0.0456023       0.0437551 
        4.06839       0.0448639       0.0433297 
         4.0841       0.0440773       0.0429101 
        4.09983       0.0434919       0.0424955 
        4.11555       0.0429091       0.0420865 
        4.13124       0.0422903        0.041684 
        4.14693       0.0418004       0.0412864 
        4.16266       0.0410825       0.0408931 
        4.17839       0.0406657       0.0405051 
        4.19408       0.0401374       0.0401231 
        4.20977       0.0396785       0.0397458 
        4.22551       0.0391977       0.0393725 
        4.24123       0.0386819       0.0390043 
        4.25691       0.0383141       0.0386419 
        4.27259       0.0378946       0.0382839 
        4.28831       0.0376088       0.0379297 
        4.30404       0.0371356       0.0375797 
        4.31974       0.0367555       0.0372349 
        4.33543       0.0364098       0.0368946 
        4.35116       0.0361474       0.0365577 
        4.36688       0.0357589       0.0362252 
        4.38255       0.0354394        0.035898 
        4.39825       0.0352807       0.0355742 
        4.41398       0.0349077       0.0352537 
         4.4297       0.0347591       0.0349375 
        4.44541       0.0345625       0.0346252 
        4.46111       0.0342221        0.034317 
        4.47683       0.0340999       0.0340123 
        4.49251       0.0339733       0.0337119 
        4.50819       0.0337161       0.0334152 
         4.5239       0.0335792       0.0331217 
        4.53962       0.0335439       0.0328313 
        4.55535       0.0334543       0.0325443 
        4.57106       0.0332854       0.0322611 
        4.58678       0.0332409       0.0319812 
         4.6025       0.0330252       0.0317046 
        4.61821       0.0331134       0.0314313 
        4.63391       0.0330143       0.0311615 
         4.6496       0.0328661        0.030895 
        4.66532       0.0329585       0.0306313 
        4.68103       0.0330951       0.0303707 
        4.69673       0.0329836       0.0301134 
        4.71241       0.0330376       0.0298594 
        4.72811       0.0329821       0.0296078 
        4.74384       0.0330688       0.0293588 
        4.75955       0.0331766       0.0291131 
        4.77525       0.0332877       0.0288703 
        4.79096        0.033395         0.02863 
        4.80669        0.033503       0.0283923 
         4.8224       0.0335963       0.0281576 
        4.83809       0.0336808       0.0279257 
        4.85379       0.0339576       0.0276964 
         4.8695       0.0341229       0.0274694 
        4.88521       0.0343276       0.0272451 
        4.90093       0.0345525       0.0270232 
        4.91663       0.0348683        0.026804 
        4.93234        0.034842        0.026587 
        4.94807       0.0352772       0.0263723 
        4.96377       0.0354531       0.0261603 
        4.97943       0.0358593       0.0259511 
        4.99514       0.0360516       0.0257436 
        5.01086       0.0364423       0.0255383 
        5.02654       0.0367256       0.0253357 
        5.04227       0.0370858       0.0251347 
          5.058       0.0374598       0.0249358 
        5.07371       0.0377667       0.0247395 
        5.08942       0.0382848       0.0245452 
        5.10513       0.0385817        0.024353 
        5.12084       0.0391681       0.0241628 
        5.13656       0.0396582       0.0239746 
        5.15225       0.0400479       0.0237887 
        5.16796       0.0406317       0.0236045 
        5.18369       0.0411385       0.0234221 
         5.1994       0.0415757        0.023242 
        5.21509       0.0423489       0.0230639 
        5.23079       0.0426685       0.0228875 
        5.24649        0.043437        0.022713 
        5.26217        0.043917       0.0225405 
        5.27788       0.0448624       0.0223695 
        5.29359       0.0454468       0.0222003 
        5.30933        0.046146       0.0220326 
        5.32504       0.0468223       0.0218669 
        5.34073       0.0473646       0.0217031 
        5.35646       0.0481557       0.0215406 
        5.37218       0.0491282       0.0213798 
        5.38789        0.049856       0.0212208 
        5.40357       0.0507208       0.0210637 
        5.41929       0.0517826       0.0209078 
        5.43502       0.0526696       0.0207534 
         5.4507       0.0534353        0.020601 
        5.46639       0.0541419       0.0204501 
        5.48212       0.0552285       0.0203003 
        5.49786       0.0566508       0.0201519 
        5.51353       0.0577002       0.0200057 
        5.52921       0.0583777       0.0198608 
        5.54495       0.0595156       0.0197169 
        5.56066       0.0608224       0.0195745 
        5.57637       0.0621376       0.0194336 
        5.59207       0.0629615       0.0192943 
        5.60778       0.0641162       0.0191562 
        5.62346       0.0653643       0.0190197 
        5.63916       0.0670688       0.0188843 
        5.65487       0.0683663       0.0187502 
         5.6706       0.0692209       0.0186173 
        5.68633       0.0707157       0.0184856 
        5.70203       0.0722164       0.0183554 
        5.71773       0.0741201       0.0182266 
        5.73344       0.0759591       0.0180988 
        5.74916       0.0774822       0.0179722 
        5.76486        0.079133        0.017847 
        5.78054       0.0810926       0.0177232 
        5.79626       0.0822048       0.0176001 
          5.812       0.0845152       0.0174782 
         5.8277       0.0858062       0.0173577 
        5.84339       0.0878856       0.0172384 
        5.85911       0.0895298       0.0171199 
        5.87484        0.091358       0.0170026 
        5.89053       0.0940126       0.0168867 
        5.90623       0.0960429       0.0167717 
        5.92195       0.0980189       0.0166577 
        5.93767        0.100059       0.0165447 
        5.95336        0.102027        0.016433 
        5.96905         0.10525       0.0163224 
        5.98476         0.10681       0.0162126 
        6.00048        0.109335       0.0161038 
        6.01617        0.112336       0.0159961 
        6.03185        0.114271       0.0158895 
        6.04756          0.1166       0.0157837 
        6.06331         0.12006       0.0156786 
        6.07903        0.121978       0.0155747 
        6.09473        0.124506       0.0154718 
        6.11044        0.128268       0.0153698 
        6.12616        0.131189       0.0152686 
        6.14186        0.133571       0.0151685 
        6.15755        0.136938       0.0150693 
        6.17326        0.140176       0.0149709 
        6.18898        0.144212       0.0148734 
        6.20467         0.14631       0.0147769 
        6.22036        0.150737       0.0146812 
         6.2361        0.152473       0.0145862 
         6.2518        0.158096       0.0144921 
        6.26748        0.160286       0.0143991 
        6.28319        0.163976       0.0143066 
        6.29893        0.169089       0.0142148 
        6.31463        0.172449       0.0141241 
        6.33033        0.175179       0.0140341 
        6.34604        0.180242       0.0139449 
        6.36177        0.184156       0.0138563 
        6.37747        0.187936       0.0137687 
