# k  (h/Mpc)    Pcb(k)  (Mpc/h)^3    Pcb_linear(k) (Mpc/h)^3   ShotnoiseSubtracted = true
      0.0200456         10020.6         10166.4 
      0.0350414         7577.19         7390.63 
      0.0492313         5329.78         5369.89 
      0.0637834         4317.42         4463.94 
      0.0800726         3403.46         3542.92 
       0.096163         2655.59          2570.7 
       0.111083         2155.72         2050.45 
       0.126058         1801.96         1817.12 
       0.142273          1549.2          1539.5 
       0.158546         1270.62         1215.88 
        0.17375         1107.69         1024.38 
       0.188953         1021.43         927.553 
       0.204907         871.104         820.695 
       0.220756         779.502         694.357 
        0.23588          691.29         604.031 
         0.2514         618.993         548.756 
       0.267535         598.219          496.53 
       0.283568          521.79         437.873 
       0.299022         495.707         390.122 
       0.314451         495.536         356.545 
       0.330372         426.218          327.09 
       0.346141         394.973         296.884 
       0.361624         375.997         269.827 
       0.377134         349.055         248.283 
       0.392932         339.393         229.732 
       0.408854         322.003         211.768 
       0.424564         309.939          195.19 
       0.440253         279.722         180.964 
       0.455999         266.579         168.593 
       0.471626         264.864         157.225 
        0.48727         252.387         146.591 
       0.502856         230.637         137.038 
       0.518488         230.958         128.514 
       0.534347         214.573         120.589 
       0.550082          209.38         113.283 
       0.565732         207.252         106.598 
       0.581496          193.66         100.476 
       0.597222          189.15          94.861 
       0.612804         183.418         89.6981 
       0.628434         177.458         84.8858 
       0.644267         169.048         80.3867 
       0.660051         165.099         76.2402 
       0.675724         163.336         72.4113 
       0.691403         159.037         68.8421 
       0.707174         153.549         65.4934 
       0.722871         151.087         62.3808 
        0.73838         149.046         59.5038 
       0.754018         140.093         56.7865 
       0.769845         139.874         54.2093 
        0.78569         136.139         51.7899 
       0.801365          132.01         49.5423 
       0.817031          128.34         47.4301 
       0.832809         126.165         45.4282 
       0.848511         123.165         43.5515 
       0.864097         120.999         41.7941 
       0.879701         119.289         40.1325 
       0.895507         115.541         38.5421 
       0.911279         113.008         37.0416 
        0.92691         110.513         35.6337 
       0.942635          108.28         34.2916 
       0.958396         107.227          33.016 
       0.974128         104.856          31.808 
       0.989692         102.477         30.6726 
        1.00528         101.011         29.5911 
        1.02113         98.3552         28.5451 
        1.03692         98.0848         27.5537 
        1.05264         96.7434         26.6142 
        1.06832          93.588         25.7201 
        1.08405         92.8273         24.8648 
        1.09979         92.0442         24.0481 
        1.11537         89.5188         23.2763 
        1.13105         88.3938          22.534 
        1.14679          86.944         21.8212 
        1.16256         85.1829          21.138 
        1.17828         84.4545         20.4865 
        1.19395         82.1567         19.8646 
         1.2097         82.1267         19.2656 
        1.22537         80.1475         18.6942 
          1.241         79.9389         18.1478 
        1.25666          77.116         17.6219 
        1.27241         76.7306         17.1145 
        1.28819         76.1511         16.6263 
        1.30392         74.6002         16.1586 
        1.31957         73.9799          15.711 
        1.33529         72.9056         15.2788 
        1.35108         72.3338         14.8612 
        1.36674         71.1108         14.4622 
         1.3824         70.4035         14.0783 
        1.39811         68.7636         13.7071 
        1.41389         67.7904         13.3479 
        1.42964         67.0789         13.0022 
        1.44531         66.4393         12.6705 
        1.46101          65.774         12.3497 
        1.47667         64.7358          12.041 
        1.49229         63.9491         11.7437 
        1.50793         63.1921         11.4561 
        1.52367         62.6919         11.1763 
        1.53953         61.6416          10.904 
        1.55526         60.6432          10.643 
        1.57092         60.4944         10.3916 
        1.58662         59.5801         10.1477 
        1.60235         58.7753         9.91128 
        1.61809         57.7559         9.68224 
        1.63369         57.1159         9.46249 
        1.64941         56.8335         9.24801 
        1.66519         55.4892         9.03942 
        1.68085         55.2351         8.83875 
        1.69652         54.0735         8.64413 
        1.71228         53.8425         8.45428 
        1.72806         53.2217            8.27 
        1.74368         52.4759         8.09306 
        1.75933         52.0986         7.92096 
        1.77505         51.5556         7.75307 
        1.79081         50.8203         7.58975 
         1.8065         50.3827         7.43185 
        1.82218         49.0311         7.27859 
        1.83797          48.751         7.12861 
        1.85367         48.4051         6.98369 
        1.86928         48.0272         6.84367 
        1.88497         47.1326         6.70674 
        1.90073         46.5399         6.57306 
        1.91647         46.3928         6.44314 
        1.93218         46.0885         6.31702 
        1.94787         45.2799         6.19446 
        1.96363         44.5759         6.07468 
        1.97935         44.2445         5.95831 
        1.99499         43.7116         5.84565 
        2.01064         43.1464         5.73575 
         2.0264         42.9973         5.62798 
        2.04216         42.3177         5.52305 
        2.05781          41.827         5.42145 
        2.07353         41.1642         5.32205 
        2.08928         41.1196         5.22493 
        2.10499         40.6924         5.13049 
        2.12065         40.1282         5.03868 
        2.13633         39.9093         4.94903 
        2.15211         39.2453           4.861 
        2.16785         38.6538         4.77535 
        2.18349         38.3262          4.6923 
        2.19916         37.9554         4.61106 
        2.21489         37.7244         4.53147 
        2.23063         37.2119         4.45371 
         2.2463         36.9622         4.37813 
        2.26194         36.4334         4.30449 
        2.27765         36.0218         4.23216 
        2.29341         35.6129         4.16132 
        2.30914         35.2867         4.09224 
        2.32486         34.7518         4.02477 
        2.34061         34.5596         3.95871 
        2.35635         34.2246         3.89419 
        2.37203         33.9127         3.83134 
        2.38768         33.6229            3.77 
        2.40339         33.3501         3.70979 
        2.41914         32.9704         3.65075 
        2.43483         32.6229         3.59321 
         2.4505         32.3054           3.537 
        2.46622         31.9044          3.4818 
        2.48195         31.7248         3.42778 
        2.49759         31.2237          3.3752 
        2.51328         30.9304         3.32358 
        2.52906          30.751         3.27271 
        2.54479         30.4003          3.2231 
        2.56049         30.2389         3.17462 
        2.57618         29.8259         3.12717 
        2.59189         29.5011         3.08063 
        2.60758         29.2141          3.0351 
        2.62325         28.9846         2.99055 
        2.63898         28.7905         2.94674 
        2.65468         28.3499          2.9039 
        2.67044         28.1633         2.86173 
        2.68618         27.9082         2.82049 
        2.70184         27.5713         2.78023 
        2.71755         27.3326         2.74066 
        2.73329         27.0515          2.7018 
        2.74897         26.7801         2.66381 
        2.76462         26.5851         2.62664 
        2.78034         26.2469         2.59003 
        2.79607         26.0297         2.55408 
        2.81179         25.7993         2.51885 
        2.82749         25.5315         2.48433 
        2.84321         25.2866         2.45041 
        2.85893         25.1046         2.41714 
        2.87462         24.8707         2.38454 
        2.89033         24.6175         2.35251 
        2.90605         24.3618         2.32105 
        2.92176         24.1262         2.29017 
        2.93747         23.9171         2.25988 
        2.95318         23.8102         2.23012 
        2.96891         23.4797         2.20089 
        2.98456         23.2931         2.17231 
        3.00023          22.975          2.1442 
        3.01596         22.6856         2.11649 
        3.03164         22.5666         2.08936 
        3.04738         22.4244         2.06262 
         3.0631         22.1954         2.03636 
        3.07883         21.9267         2.01056 
        3.09456         21.7292          1.9852 
        3.11026         21.4921         1.96033 
        3.12596         21.2658         1.93588 
        3.14163         21.1172          1.9119 
        3.15734         20.9673         1.88828 
        3.17308          20.718           1.865 
        3.18879         20.5474         1.84217 
        3.20447         20.4287         1.81976 
         3.2202          20.157         1.79765 
         3.2359         19.9562         1.77595 
        3.25157           19.78         1.75466 
        3.26729         19.6584         1.73365 
        3.28304         19.4741         1.71295 
        3.29877         19.3089         1.69261 
        3.31446          19.124         1.67264 
        3.33014         18.8916         1.65302 
        3.34585         18.8325         1.63368 
        3.36158         18.5538         1.61462 
        3.37727         18.4465         1.59592 
        3.39294         18.3009         1.57754 
        3.40867          18.119         1.55938 
        3.42439         17.9135         1.54152 
        3.44008         17.7584         1.52397 
        3.45578         17.6016         1.50668 
        3.47153         17.4697         1.48962 
        3.48724         17.3313         1.47286 
        3.50292         17.1626         1.45639 
        3.51859         17.0236         1.44018 
        3.53431          16.857         1.42417 
        3.55007         16.6874         1.40836 
        3.56577         16.5996         1.39286 
        3.58146         16.4054         1.37759 
        3.59719         16.2806         1.36252 
        3.61292         16.1456         1.34768 
        3.62859         15.9417         1.33311 
        3.64429         15.8308         1.31874 
        3.66003         15.7478         1.30453 
        3.67578         15.6519         1.29053 
        3.69146         15.4516          1.2768 
        3.70712         15.3231         1.26329 
        3.72284         15.1776         1.24992 
        3.73853         15.1015         1.23677 
        3.75422         14.8736          1.2238 
        3.76993         14.7959         1.21101 
        3.78564         14.6625         1.19841 
        3.80137         14.5262         1.18597 
        3.81707         14.3764         1.17372 
        3.83279         14.3273         1.16165 
        3.84853         14.1622         1.14972 
        3.86424         14.0098         1.13798 
        3.87992         13.9541         1.12642 
        3.89561          13.806         1.11503 
        3.91134         13.7165         1.10376 
        3.92704         13.5869         1.09267 
        3.94273         13.4705         1.08174 
        3.95845         13.3599         1.07094 
        3.97418         13.2176         1.06028 
        3.98988         13.1364         1.04979 
        4.00554         13.0091         1.03946 
        4.02125         12.9074         1.02925 
        4.03698         12.8339         1.01915 
        4.05268         12.6991         1.00921 
        4.06839         12.5665        0.999403 
         4.0841         12.4948        0.989724 
        4.09983          12.351        0.980161 
        4.11555         12.2704        0.970727 
        4.13124         12.1594        0.961444 
        4.14693          12.077        0.952273 
        4.16266         11.9631        0.943202 
        4.17839         11.8545        0.934254 
        4.19408         11.7922        0.925442 
        4.20977         11.6792         0.91674 
        4.22551         11.5883        0.908129 
        4.24123         11.5065        0.899637 
        4.25691         11.3858        0.891277 
        4.27259         11.2898        0.883021 
        4.28831          11.237        0.874852 
        4.30404          11.118        0.866779 
        4.31974         11.0425        0.858826 
        4.33543         10.9083        0.850976 
        4.35116         10.8721        0.843206 
        4.36688         10.7497        0.835536 
        4.38255         10.6503         0.82799 
        4.39825         10.5909         0.82052 
        4.41398          10.517        0.813128 
         4.4297         10.4114        0.805835 
        4.44541         10.3507        0.798632 
        4.46111         10.2515        0.791523 
        4.47683         10.1561        0.784495 
        4.49251         10.0805        0.777567 
        4.50819         10.0044        0.770724 
         4.5239         9.94605        0.763954 
        4.53962         9.84637        0.757256 
        4.55535         9.77378        0.750636 
        4.57106         9.72424        0.744104 
        4.58678         9.63369        0.737649 
         4.6025         9.56791        0.731268 
        4.61821          9.5001        0.724964 
        4.63391         9.39694        0.718742 
         4.6496         9.31937        0.712596 
        4.66532          9.2737        0.706513 
        4.68103         9.16848        0.700503 
        4.69673         9.11073        0.694568 
        4.71241         9.04555        0.688708 
        4.72811         8.97138        0.682906 
        4.74384         8.92701        0.677163 
        4.75955         8.83782        0.671496 
        4.77525         8.76976        0.665896 
        4.79096         8.71497        0.660353 
        4.80669         8.63065         0.65487 
         4.8224         8.57801        0.649456 
        4.83809         8.50816        0.644109 
        4.85379         8.45974        0.638819 
         4.8695         8.38532        0.633584 
        4.88521          8.3051        0.628409 
        4.90093         8.27579        0.623292 
        4.91663         8.18888        0.618236 
        4.93234         8.13935        0.613231 
        4.94807         8.08026        0.608278 
        4.96377          8.0181        0.603389 
        4.97943         7.95446        0.598564 
        4.99514         7.90008        0.593779 
        5.01086         7.84871        0.589042 
        5.02654         7.77662         0.58437 
        5.04227         7.71371        0.579734 
          5.058         7.67091        0.575147 
        5.07371          7.6299        0.570618 
        5.08942         7.53815        0.566137 
        5.10513         7.48442        0.561704 
        5.12084         7.43263        0.557316 
        5.13656         7.39079        0.552976 
        5.15225         7.33224        0.548689 
        5.16796          7.2742        0.544441 
        5.18369         7.23098        0.540233 
         5.1994          7.1883        0.536078 
        5.21509         7.12808        0.531971 
        5.23079         7.05302        0.527901 
        5.24649         7.02874        0.523878 
        5.26217         6.97743        0.519899 
        5.27788         6.92383        0.515955 
        5.29359         6.87362        0.512052 
        5.30933         6.80399        0.508183 
        5.32504         6.77774        0.504361 
        5.34073         6.72261        0.500583 
        5.35646         6.68898        0.496835 
        5.37218         6.64046        0.493125 
        5.38789         6.58585        0.489459 
        5.40357         6.53592        0.485835 
        5.41929         6.50828        0.482239 
        5.43502         6.44898        0.478679 
         5.4507          6.4044        0.475163 
        5.46639         6.35655        0.471683 
        5.48212         6.30989        0.468229 
        5.49786          6.2708        0.464805 
        5.51353         6.23826        0.461432 
        5.52921         6.18415         0.45809 
        5.54495         6.14195        0.454771 
        5.56066         6.10619        0.451488 
        5.57637         6.05833        0.448238 
        5.59207         6.00219        0.445023 
        5.60778         5.98755        0.441839 
        5.62346         5.93633         0.43869 
        5.63916         5.89882        0.435568 
        5.65487         5.84866        0.432475 
         5.6706         5.81862        0.429409 
        5.68633         5.77953        0.426371 
        5.70203         5.74235        0.423369 
        5.71773         5.69848        0.420397 
        5.73344         5.67065        0.417451 
        5.74916         5.62385        0.414531 
        5.76486         5.59308        0.411642 
        5.78054         5.54322        0.408786 
        5.79626         5.51667        0.405948 
          5.812         5.47522        0.403135 
         5.8277         5.43597        0.400357 
        5.84339         5.40181        0.397605 
        5.85911           5.364        0.394873 
        5.87484         5.33545        0.392167 
        5.89053         5.28947        0.389492 
        5.90623         5.26772        0.386841 
        5.92195         5.23603         0.38421 
        5.93767         5.19141        0.381605 
        5.95336         5.15869        0.379028 
        5.96905         5.11896        0.376476 
        5.98476         5.09736        0.373944 
        6.00048         5.05884        0.371434 
        6.01617         5.02889        0.368951 
        6.03185         5.00483        0.366493 
        6.04756         4.97619        0.364052 
        6.06331         4.92562        0.361628 
        6.07903         4.89373        0.359231 
        6.09473         4.86498        0.356858 
        6.11044         4.82897        0.354504 
        6.12616         4.80306        0.352172 
        6.14186         4.77213        0.349863 
        6.15755         4.74391        0.347575 
        6.17326         4.71735        0.345306 
        6.18898         4.69202        0.343056 
        6.20467         4.65672         0.34083 
        6.22036         4.62822        0.338623 
         6.2361         4.59647        0.336431 
         6.2518         4.56847        0.334261 
        6.26748         4.54687        0.332115 
        6.28319         4.51583        0.329982 
        6.29893         4.48138        0.327866 
        6.31463         4.46128        0.325772 
        6.33033         4.42987        0.323697 
        6.34604         4.40264        0.321639 
        6.36177         4.37536        0.319597 
        6.37747         4.35264        0.317576 
