# k  (h/Mpc)    Pcb(k)  (Mpc/h)^3    Pcb_linear(k) (Mpc/h)^3   ShotnoiseSubtracted = true
      0.0200456         9340.76         9475.04 
      0.0350414         7058.19         6888.04 
      0.0492313         4971.53         5004.71 
      0.0637834         4029.22         4160.37 
      0.0800726         3177.21         3301.99 
       0.096163         2473.53         2395.88 
       0.111083         2007.06         1911.01 
       0.126058          1679.8         1693.55 
       0.142273         1442.33         1434.81 
       0.158546          1182.3          1133.2 
        0.17375         1029.27         954.718 
       0.188953         947.322         864.475 
       0.204907          807.47         764.884 
       0.220756         722.052         647.138 
        0.23588         639.795         562.954 
         0.2514         572.985         511.438 
       0.267535         552.833         462.764 
       0.283568         481.969         408.096 
       0.299022         457.192         363.592 
       0.314451         455.044         332.298 
       0.330372         391.786         304.847 
       0.346141         363.002         276.695 
       0.361624          345.03         251.478 
       0.377134         319.441         231.399 
       0.392932         310.821         214.109 
       0.408854         294.596         197.367 
       0.424564         283.118         181.916 
       0.440253         255.451         168.657 
       0.455999         242.889         157.128 
       0.471626         240.413         146.533 
        0.48727         229.527         136.622 
       0.502856         209.549         127.718 
       0.518488         209.365         119.774 
       0.534347           194.7         112.389 
       0.550082         190.158         105.579 
       0.565732         187.821         99.3489 
       0.581496         174.747          93.643 
       0.597222         170.842         88.4101 
       0.612804         165.493         83.5983 
       0.628434         160.362         79.1132 
       0.644267         152.566         74.9201 
       0.660051         148.661         71.0555 
       0.675724         146.997          67.487 
       0.691403         143.201         64.1606 
       0.707174         138.231         61.0396 
       0.722871         135.965         58.1387 
        0.73838         133.723         55.4573 
       0.754018         125.556         52.9247 
       0.769845          125.25         50.5229 
        0.78569         121.868          48.268 
       0.801365          118.09         46.1732 
       0.817031         114.623         44.2047 
       0.832809          112.66         42.3389 
       0.848511         110.022         40.5898 
       0.864097          108.12          38.952 
       0.879701         106.419         37.4034 
       0.895507         102.799         35.9211 
       0.911279          100.82         34.5226 
        0.92691         98.3564         33.2105 
       0.942635         96.2711         31.9596 
       0.958396         95.5844         30.7708 
       0.974128         93.4189         29.6449 
       0.989692         91.3481         28.5867 
        1.00528         89.8591         27.5788 
        1.02113         87.5532         26.6039 
        1.03692         87.4153           25.68 
        1.05264         86.0854         24.8043 
        1.06832         83.1801          23.971 
        1.08405         82.5292         23.1739 
        1.09979         81.7869         22.4128 
        1.11537         79.5559         21.6935 
        1.13105         78.3549         21.0016 
        1.14679         77.1896         20.3373 
        1.16256         75.6488         19.7006 
        1.17828         75.0219         19.0933 
        1.19395          72.951         18.5138 
         1.2097         73.0593         17.9554 
        1.22537         71.2499         17.4229 
          1.241         70.9949         16.9136 
        1.25666         68.5126         16.4235 
        1.27241         68.3437         15.9506 
        1.28819         67.7004         15.4956 
        1.30392         66.2943         15.0597 
        1.31957         65.8899         14.6426 
        1.33529         64.8813         14.2398 
        1.35108         64.1991         13.8506 
        1.36674         63.1673         13.4787 
         1.3824         62.3882          13.121 
        1.39811         61.1284          12.775 
        1.41389         60.2145         12.4402 
        1.42964         59.7157          12.118 
        1.44531         58.9586         11.8089 
        1.46101         58.4192         11.5099 
        1.47667         57.4689         11.2221 
        1.49229         56.7376          10.945 
        1.50793         56.1376          10.677 
        1.52367         55.6219         10.4163 
        1.53953         54.7803         10.1625 
        1.55526         53.8992         9.91921 
        1.57092         53.6644         9.68492 
        1.58662         52.9012         9.45766 
        1.60235          52.183         9.23727 
        1.61809         51.3312         9.02381 
        1.63369         50.7171         8.81901 
        1.64941         50.3711         8.61911 
        1.66519         49.3024          8.4247 
        1.68085         49.0711         8.23768 
        1.69652         48.0583          8.0563 
        1.71228         47.8932         7.87936 
        1.72806         47.2371          7.7076 
        1.74368         46.6086          7.5427 
        1.75933         46.3214          7.3823 
        1.77505         45.8486         7.22583 
        1.79081         45.2332         7.07362 
         1.8065         44.6795         6.92646 
        1.82218         43.6393         6.78362 
        1.83797         43.3895         6.64384 
        1.85367         43.0417         6.50877 
        1.86928         42.8117         6.37828 
        1.88497         41.9499         6.25066 
        1.90073         41.5097         6.12606 
        1.91647          41.361         6.00498 
        1.93218         41.1516         5.88744 
        1.94787         40.4181         5.77321 
        1.96363          39.752         5.66157 
        1.97935         39.5309         5.55312 
        1.99499         39.0543         5.44812 
        2.01064         38.5076          5.3457 
         2.0264         38.3602         5.24526 
        2.04216         37.8817         5.14746 
        2.05781         37.4095         5.05277 
        2.07353         36.8679         4.96013 
        2.08928         36.8366         4.86961 
        2.10499         36.4306          4.7816 
        2.12065         35.9164         4.69603 
        2.13633         35.7484         4.61248 
        2.15211         35.1106         4.53043 
        2.16785         34.6626          4.4506 
        2.18349         34.3856         4.37321 
        2.19916         34.0369         4.29749 
        2.21489            33.8         4.22331 
        2.23063         33.4323         4.15084 
         2.2463         33.2065          4.0804 
        2.26194         32.6775         4.01176 
        2.27765         32.3534         3.94436 
        2.29341         32.0301         3.87833 
        2.30914         31.7036         3.81395 
        2.32486         31.2911         3.75107 
        2.34061         31.1013          3.6895 
        2.35635         30.8047         3.62937 
        2.37203         30.5311         3.57079 
        2.38768         30.2514         3.51363 
        2.40339         30.0333         3.45751 
        2.41914         29.6834         3.40248 
        2.43483         29.5099         3.34885 
         2.4505         29.0705         3.29647 
        2.46622         28.7333         3.24503 
        2.48195         28.5791         3.19468 
        2.49759         28.1069         3.14567 
        2.51328         27.8992         3.09756 
        2.52906          27.745         3.05016 
        2.54479          27.415         3.00392 
        2.56049         27.3201         2.95873 
        2.57618         26.9273         2.91451 
        2.59189         26.6288         2.87113 
        2.60758         26.4221          2.8287 
        2.62325         26.1019         2.78718 
        2.63898           26.01         2.74635 
        2.65468         25.6392         2.70642 
        2.67044           25.42         2.66712 
        2.68618         25.1551         2.62869 
        2.70184         24.8537         2.59116 
        2.71755         24.6765         2.55428 
        2.73329         24.4004         2.51806 
        2.74897         24.2197         2.48266 
        2.76462         24.0488         2.44802 
        2.78034         23.6908          2.4139 
        2.79607         23.4852         2.38039 
        2.81179         23.2916         2.34756 
        2.82749         23.0851         2.31538 
        2.84321         22.8635         2.28377 
        2.85893         22.6752         2.25276 
        2.87462         22.4764         2.22238 
        2.89033         22.2672         2.19253 
        2.90605         21.9775         2.16321 
        2.92176         21.7282         2.13443 
        2.93747         21.6276          2.1062 
        2.95318         21.5017         2.07847 
        2.96891          21.199         2.05122 
        2.98456         21.0512         2.02459 
        3.00023         20.7532         1.99838 
        3.01596         20.4871         1.97256 
        3.03164          20.403         1.94728 
        3.04738         20.2536         1.92236 
         3.0631         20.0432         1.89788 
        3.07883         19.8369         1.87383 
        3.09456         19.6591          1.8502 
        3.11026         19.4421         1.82702 
        3.12596         19.2327         1.80423 
        3.14163          19.122         1.78189 
        3.15734          18.966         1.75987 
        3.17308         18.7775         1.73817 
        3.18879          18.572         1.71689 
        3.20447         18.4885         1.69601 
         3.2202         18.2191          1.6754 
         3.2359         18.0623         1.65518 
        3.25157         17.9117         1.63533 
        3.26729         17.7756         1.61576 
        3.28304         17.6658         1.59646 
        3.29877         17.5287          1.5775 
        3.31446         17.3262          1.5589 
        3.33014           17.11         1.54061 
        3.34585         17.0792         1.52258 
        3.36158          16.839         1.50482 
        3.37727         16.7192          1.4874 
        3.39294         16.5493         1.47026 
        3.40867         16.4271         1.45334 
        3.42439          16.246         1.43669 
        3.44008         16.0955         1.42033 
        3.45578         15.9677         1.40422 
        3.47153         15.8624         1.38832 
        3.48724         15.7167          1.3727 
        3.50292         15.6059         1.35735 
        3.51859         15.4502         1.34224 
        3.53431         15.3071         1.32732 
        3.55007         15.1696         1.31259 
        3.56577         15.0769         1.29814 
        3.58146         14.9058         1.28391 
        3.59719         14.7941         1.26986 
        3.61292         14.6595         1.25603 
        3.62859         14.4941         1.24246 
        3.64429         14.4049         1.22906 
        3.66003         14.2974         1.21582 
        3.67578         14.2131         1.20277 
        3.69146         14.0693         1.18997 
        3.70712         13.9263         1.17738 
        3.72284         13.7868         1.16492 
        3.73853           13.72         1.15266 
        3.75422          13.528         1.14058 
        3.76993         13.4418         1.12866 
        3.78564         13.3627         1.11691 
        3.80137         13.2283         1.10532 
        3.81707         13.0724         1.09391 
        3.83279         13.0404         1.08265 
        3.84853         12.9014         1.07153 
        3.86424         12.7819         1.06059 
        3.87992         12.6884         1.04982 
        3.89561         12.5622          1.0392 
        3.91134         12.4859          1.0287 
        3.92704          12.376         1.01837 
        3.94273         12.2962         1.00818 
        3.95845         12.1724        0.998112 
        3.97418         12.0539        0.988181 
        3.98988          11.985        0.978398 
        4.00554         11.8684        0.968775 
        4.02125         11.7782        0.959253 
        4.03698         11.7074        0.949845 
        4.05268         11.5765        0.940584 
        4.06839         11.4699        0.931439 
         4.0841         11.3901        0.922419 
        4.09983         11.2896        0.913506 
        4.11555          11.214        0.904714 
        4.13124         11.1028        0.896062 
        4.14693         11.0245        0.887515 
        4.16266         10.9464         0.87906 
        4.17839         10.8496        0.870721 
        4.19408         10.7819        0.862508 
        4.20977          10.666        0.854398 
        4.22551         10.5976        0.846372 
        4.24123         10.5253        0.838458 
        4.25691         10.4079        0.830667 
        4.27259         10.3259        0.822972 
        4.28831         10.2486        0.815359 
        4.30404         10.1817        0.807835 
        4.31974         10.0963        0.800422 
        4.33543         9.99458        0.793107 
        4.35116         9.94591        0.785865 
        4.36688         9.85076        0.778716 
        4.38255         9.77293        0.771683 
        4.39825         9.69433        0.764722 
        4.41398         9.62603        0.757832 
         4.4297         9.52971        0.751035 
        4.44541         9.48782        0.744322 
        4.46111         9.38401        0.737696 
        4.47683          9.3108        0.731146 
        4.49251         9.23992        0.724689 
        4.50819         9.17737        0.718312 
         4.5239          9.1275        0.712002 
        4.53962         9.02857         0.70576 
        4.55535         8.97759         0.69959 
        4.57106         8.89349        0.693502 
        4.58678         8.84718        0.687486 
         4.6025         8.76417        0.681539 
        4.61821         8.69248        0.675664 
        4.63391         8.60702        0.669865 
         4.6496         8.55395        0.664137 
        4.66532         8.50914        0.658467 
        4.68103         8.40453        0.652866 
        4.69673         8.36303        0.647335 
        4.71241         8.28502        0.641873 
        4.72811         8.21696        0.636466 
        4.74384         8.19158        0.631114 
        4.75955         8.11832        0.625831 
        4.77525         8.06487        0.620612 
        4.79096         7.99791        0.615446 
        4.80669         7.92342        0.610337 
         4.8224         7.86535        0.605291 
        4.83809          7.8221        0.600307 
        4.85379         7.76936        0.595377 
         4.8695         7.70725        0.590497 
        4.88521         7.63043        0.585675 
        4.90093          7.6059        0.580906 
        4.91663         7.53813        0.576194 
        4.93234         7.48181        0.571529 
        4.94807         7.42146        0.566913 
        4.96377           7.366        0.562356 
        4.97943         7.30167        0.557859 
        4.99514         7.26131        0.553399 
        5.01086         7.20132        0.548985 
        5.02654         7.15801         0.54463 
        5.04227         7.08804         0.54031 
          5.058          7.0463        0.536034 
        5.07371         7.02534        0.531814 
        5.08942         6.93431        0.527637 
        5.10513         6.90017        0.523506 
        5.12084         6.83805        0.519416 
        5.13656         6.79926        0.515371 
        5.15225         6.75503        0.511376 
        5.16796         6.70976        0.507416 
        5.18369         6.66347        0.503495 
         5.1994         6.62171        0.499623 
        5.21509         6.56065        0.495795 
        5.23079         6.51189        0.492002 
        5.24649         6.47373        0.488252 
        5.26217         6.43346        0.484543 
        5.27788         6.38414        0.480868 
        5.29359         6.34775         0.47723 
        5.30933         6.28382        0.473625 
        5.32504         6.25917        0.470063 
        5.34073         6.20817        0.466541 
        5.35646         6.17099        0.463049 
        5.37218         6.12592        0.459591 
        5.38789         6.08149        0.456174 
        5.40357         6.02836        0.452796 
        5.41929         6.00434        0.449445 
        5.43502         5.96163        0.446127 
         5.4507         5.91131         0.44285 
        5.46639         5.86936        0.439606 
        5.48212         5.83304        0.436387 
        5.49786         5.79148        0.433196 
        5.51353          5.7609        0.430053 
        5.52921         5.71442        0.426938 
        5.54495         5.67879        0.423845 
        5.56066         5.64641        0.420785 
        5.57637          5.6036        0.417756 
        5.59207          5.5554         0.41476 
        5.60778         5.53587        0.411792 
        5.62346         5.49491        0.408857 
        5.63916         5.44849        0.405948 
        5.65487         5.40843        0.403065 
         5.6706         5.37681        0.400208 
        5.68633          5.3456        0.397377 
        5.70203         5.30677        0.394579 
        5.71773         5.27842        0.391808 
        5.73344         5.24197        0.389063 
        5.74916         5.20073        0.386341 
        5.76486         5.18239        0.383649 
        5.78054         5.12787        0.380987 
        5.79626         5.10257        0.378342 
          5.812         5.06415         0.37572 
         5.8277         5.03717        0.373131 
        5.84339         5.00429        0.370566 
        5.85911         4.97337         0.36802 
        5.87484         4.93364        0.365498 
        5.89053         4.89484        0.363005 
        5.90623         4.87848        0.360535 
        5.92195          4.8522        0.358082 
        5.93767         4.79231        0.355654 
        5.95336          4.7759        0.353253 
        5.96905         4.75473        0.350874 
        5.98476         4.72052        0.348514 
        6.00048         4.69401        0.346175 
        6.01617         4.66435        0.343861 
        6.03185         4.63362         0.34157 
        6.04756         4.60385        0.339295 
        6.06331         4.57412        0.337036 
        6.07903         4.54435        0.334802 
        6.09473         4.52247         0.33259 
        6.11044         4.48047        0.330397 
        6.12616         4.45909        0.328223 
        6.14186         4.42545        0.326071 
        6.15755         4.39626        0.323939 
        6.17326         4.37153        0.321824 
        6.18898         4.35401        0.319727 
        6.20467         4.31539        0.317652 
        6.22036         4.30037        0.315596 
         6.2361         4.26042        0.313552 
         6.2518         4.24216         0.31153 
        6.26748         4.20749         0.30953 
        6.28319          4.1942        0.307542 
        6.29893         4.15995         0.30557 
        6.31463         4.14327        0.303619 
        6.33033         4.11715        0.301685 
        6.34604         4.08716        0.299766 
        6.36177          4.0653        0.297863 
        6.37747         4.04201        0.295979 
