# k  (h/Mpc)    Pcb(k)  (Mpc/h)^3    Pcb_linear(k) (Mpc/h)^3   ShotnoiseSubtracted = true
      0.0200456         35264.5         35826.6 
      0.0350414         22174.8         21001.3 
      0.0492313           13407         13570.8 
      0.0637834         10553.3         10969.2 
      0.0800726         7892.14         8268.93 
       0.096163          6060.5          5453.1 
       0.111083          4755.6          4205.9 
       0.126058         3935.59         3779.25 
       0.142273         3402.84         3098.89 
       0.158546          2678.5         2299.55 
        0.17375         2393.72            1913 
       0.188953         2290.79         1751.78 
       0.204907         1934.25         1519.21 
       0.220756         1747.74         1235.83 
        0.23588         1542.61         1063.22 
         0.2514         1393.48         971.082 
       0.267535         1328.25         868.244 
       0.283568         1184.63         747.141 
       0.299022         1105.24         658.609 
       0.314451         1159.67         602.162 
       0.330372         1024.93         548.246 
       0.346141         937.439         490.117 
       0.361624         892.663         441.207 
       0.377134         862.276         404.819 
       0.392932         798.847         372.551 
       0.408854         773.913         340.079 
       0.424564         751.404         310.953 
       0.440253         700.055         287.021 
       0.455999         660.629         266.181 
       0.471626         672.079         246.576 
        0.48727         625.972         228.411 
       0.502856         616.361         212.556 
       0.518488         582.823         198.466 
       0.534347         569.131         185.291 
       0.550082         541.724         173.143 
       0.565732         526.012         162.221 
       0.581496         514.786         152.275 
       0.597222         502.794          143.17 
       0.612804          486.27         134.793 
       0.628434         467.242         127.055 
       0.644267         452.084         119.873 
       0.660051         447.269         113.266 
       0.675724         435.309         107.187 
       0.691403         418.188         101.543 
       0.707174         408.136         96.2689 
       0.722871         410.942         91.3856 
        0.73838         391.275         86.8889 
       0.754018          383.84         82.6573 
       0.769845         377.781         78.6586 
        0.78569         369.422         74.9179 
       0.801365         358.042         71.4548 
       0.817031         350.466         68.2113 
       0.832809         347.854         65.1471 
       0.848511         339.703         62.2834 
       0.864097         330.078         59.6101 
       0.879701         331.395         57.0899 
       0.895507          319.04         54.6848 
       0.911279         315.153         52.4221 
        0.92691         308.714         50.3051 
       0.942635         303.329         48.2924 
       0.958396          295.11         46.3847 
       0.974128         287.749         44.5828 
       0.989692          284.41         42.8935 
        1.00528         276.615         41.2885 
        1.02113         274.285         39.7399 
        1.03692         269.663         38.2758 
        1.05264          266.19         36.8916 
        1.06832         259.866         35.5775 
        1.08405         258.509         34.3233 
        1.09979         252.051         33.1284 
        1.11537         246.077         32.0018 
        1.13105         242.944         30.9203 
        1.14679         239.424         29.8843 
        1.16256         235.778         28.8934 
        1.17828         232.219         27.9503 
        1.19395         229.021         27.0521 
         1.2097          225.17         26.1885 
        1.22537         221.579         25.3664 
          1.241         217.252         24.5818 
        1.25666         214.045         23.8282 
        1.27241         212.187         23.1024 
        1.28819         208.261         22.4053 
        1.30392         206.601         21.7388 
        1.31957         201.444         21.1021 
        1.33529         196.525         20.4884 
        1.35108         197.167         19.8964 
        1.36674         193.891         19.3319 
         1.3824         189.438         18.7895 
        1.39811         185.975         18.2661 
        1.41389         183.371         17.7603 
        1.42964         180.738         17.2744 
        1.44531         179.402         16.8089 
        1.46101         175.392         16.3594 
        1.47667         171.866         15.9276 
        1.49229         171.987         15.5123 
        1.50793         167.323         15.1113 
        1.52367         166.226         14.7217 
        1.53953         162.825         14.3431 
        1.55526         159.874         13.9807 
        1.57092         158.189         13.6322 
        1.58662         156.974         13.2947 
        1.60235         153.678         12.9679 
        1.61809         151.841         12.6517 
        1.63369         148.438         12.3488 
        1.64941          147.84         12.0536 
        1.66519         145.057         11.7669 
        1.68085         141.937         11.4914 
        1.69652         141.334         11.2246 
        1.71228         138.719         10.9647 
        1.72806         137.801         10.7127 
        1.74368           135.2         10.4711 
        1.75933         133.756         10.2364 
        1.77505          131.93         10.0077 
        1.79081         129.591         9.78558 
         1.8065         128.438         9.57105 
        1.82218         125.739         9.36307 
        1.83797         124.424          9.1598 
        1.85367         123.446         8.96363 
        1.86928         121.247         8.77432 
        1.88497         120.464         8.58939 
        1.90073         118.799         8.40906 
        1.91647         116.892         8.23402 
        1.93218          115.76         8.06429 
        1.94787         113.315         7.89954 
        1.96363         112.261          7.7387 
        1.97935          110.88         7.58262 
        1.99499         109.758         7.43168 
        2.01064         108.071          7.2846 
         2.0264         106.706         7.14054 
        2.04216         104.912          7.0004 
        2.05781         104.149         6.86487 
        2.07353         102.805         6.73241 
        2.08928          100.98         6.60312 
        2.10499         100.094         6.47754 
        2.12065          99.076         6.35557 
        2.13633         97.9532         6.23661 
        2.15211         96.2416         6.11989 
        2.16785         95.4768         6.00645 
        2.18349         94.3156         5.89658 
        2.19916         93.2739         5.78919 
        2.21489         91.8647         5.68409 
        2.23063         90.3978         5.58151 
         2.2463         89.4397         5.48189 
        2.26194         88.3481         5.38493 
        2.27765         86.9723         5.28979 
        2.29341         85.8414         5.19669 
        2.30914         85.1821         5.10599 
        2.32486         84.3441         5.01748 
        2.34061         83.0996         4.93091 
        2.35635         81.8348         4.84643 
        2.37203         81.1019          4.7642 
        2.38768         80.0117         4.68404 
        2.40339          79.067          4.6054 
        2.41914         77.8862         4.52838 
        2.43483         77.2751         4.45336 
         2.4505         76.4085         4.38016 
        2.46622         75.2888         4.30833 
        2.48195         74.3099         4.23809 
        2.49759          73.376         4.16978 
        2.51328          72.219         4.10278 
        2.52906         71.5906         4.03681 
        2.54479         71.0024         3.97252 
        2.56049         69.7883         3.90975 
        2.57618         69.1682         3.84837 
        2.59189         68.2451          3.7882 
        2.60758         67.3963          3.7294 
        2.62325         66.7231          3.6719 
        2.63898         65.7075         3.61541 
        2.65468         65.2673         3.56021 
        2.67044         64.4761         3.50591 
        2.68618         63.4592         3.45286 
        2.70184         62.8418         3.40111 
        2.71755         62.1582         3.35028 
        2.73329         61.2436          3.3004 
        2.74897         60.6471         3.25168 
        2.76462         60.1781         3.20405 
        2.78034         59.3996         3.15716 
        2.79607         58.7701         3.11115 
        2.81179         58.1959         3.06611 
        2.82749         57.2482         3.02199 
        2.84321         56.7975         2.97869 
        2.85893         56.0109         2.93624 
        2.87462         55.1008         2.89467 
        2.89033         54.8743         2.85387 
        2.90605         54.4527         2.81381 
        2.92176         53.5563         2.77453 
        2.93747          52.794         2.73602 
        2.95318         52.4795         2.69821 
        2.96891         51.8519          2.6611 
        2.98456         51.3678         2.62484 
        3.00023         50.7896          2.5892 
        3.01596         50.2123          2.5541 
        3.03164         49.6575         2.51975 
        3.04738         49.0921         2.48592 
         3.0631         48.5921         2.45271 
        3.07883         47.9498         2.42011 
        3.09456         47.4664         2.38809 
        3.11026         47.0895          2.3567 
        3.12596         46.4785         2.32587 
        3.14163          46.073         2.29566 
        3.15734         45.4439         2.26591 
        3.17308         44.9727          2.2366 
        3.18879         44.6178         2.20789 
        3.20447         44.1176         2.17972 
         3.2202         43.6342         2.15195 
         3.2359         43.0923         2.12471 
        3.25157         42.6206           2.098 
        3.26729         42.3821         2.07166 
        3.28304         41.8745         2.04572 
        3.29877          41.304         2.02025 
        3.31446         41.0025         1.99526 
        3.33014         40.5863         1.97072 
        3.34585         40.1151         1.94654 
        3.36158          39.692         1.92274 
        3.37727         39.4203          1.8994 
        3.39294         38.8663         1.87646 
        3.40867         38.6102         1.85382 
        3.42439         38.0746         1.83155 
        3.44008          37.641          1.8097 
        3.45578         37.3704         1.78818 
        3.47153          37.013         1.76696 
        3.48724          36.544         1.74611 
        3.50292         36.2369         1.72565 
        3.51859         35.8739         1.70552 
        3.53431         35.6463         1.68565 
        3.55007         35.1425         1.66604 
        3.56577         34.7899         1.64682 
        3.58146         34.4491          1.6279 
        3.59719         34.2051         1.60924 
        3.61292         33.7344         1.59087 
        3.62859         33.4099         1.57286 
        3.64429         33.1901         1.55508 
        3.66003         32.7957         1.53752 
        3.67578         32.5469         1.52024 
        3.69146         32.1495         1.50329 
        3.70712         31.9067         1.48662 
        3.72284         31.5746         1.47014 
        3.73853         31.2375         1.45394 
        3.75422         30.9505         1.43797 
        3.76993         30.6934         1.42222 
        3.78564         30.3466         1.40672 
        3.80137         30.0974         1.39142 
        3.81707          29.707         1.37637 
        3.83279         29.5564         1.36153 
        3.84853         29.2725         1.34689 
        3.86424         28.9184         1.33249 
        3.87992         28.7348         1.31831 
        3.89561         28.3802         1.30434 
        3.91134         28.1835         1.29054 
        3.92704         27.9358         1.27696 
        3.94273         27.5963         1.26358 
        3.95845         27.3904         1.25037 
        3.97418         27.0958         1.23734 
        3.98988         26.8591         1.22451 
        4.00554         26.6205          1.2119 
        4.02125         26.4011         1.19943 
        4.03698         26.1081         1.18711 
        4.05268         25.9358         1.17499 
        4.06839         25.6489         1.16302 
         4.0841         25.4047         1.15123 
        4.09983         25.1899         1.13958 
        4.11555         24.9552          1.1281 
        4.13124         24.7263          1.1168 
        4.14693         24.5697         1.10565 
        4.16266         24.2678         1.09462 
        4.17839         24.1303         1.08375 
        4.19408         23.9089         1.07305 
        4.20977          23.592         1.06249 
        4.22551         23.4656         1.05204 
        4.24123         23.2521         1.04174 
        4.25691         23.0381         1.03161 
        4.27259         22.7981          1.0216 
        4.28831         22.6588         1.01171 
        4.30404         22.4464         1.00194 
        4.31974         22.2145        0.992315 
        4.33543         22.0707        0.982822 
        4.35116         21.8513        0.973428 
        4.36688         21.6822         0.96416 
        4.38255         21.4623        0.955046 
        4.39825         21.3671        0.946029 
        4.41398          21.078        0.937108 
         4.4297         20.9471        0.928312 
        4.44541         20.8228        0.919628 
        4.46111         20.5649        0.911061 
        4.47683         20.4549        0.902595 
        4.49251         20.2628        0.894253 
        4.50819         20.0353        0.886018 
         4.5239         19.9028        0.877873 
        4.53962         19.6931        0.869819 
        4.55535         19.5486        0.861862 
        4.57106         19.4189        0.854014 
        4.58678         19.2803        0.846261 
         4.6025         19.0594        0.838602 
        4.61821         18.9213        0.831038 
        4.63391         18.7806        0.823576 
         4.6496         18.5695        0.816207 
        4.66532         18.4677        0.808916 
        4.68103         18.3182        0.801717 
        4.69673          18.137        0.794611 
        4.71241          17.999        0.787597 
        4.72811         17.8278        0.780655 
        4.74384         17.7113        0.773788 
        4.75955         17.5329        0.767012 
        4.77525         17.4173         0.76032 
        4.79096         17.2554          0.7537 
        4.80669         17.0918        0.747154 
         4.8224         16.9958        0.740692 
        4.83809         16.8879        0.734313 
        4.85379          16.735        0.728004 
         4.8695         16.5598        0.721763 
        4.88521          16.449        0.715597 
        4.90093         16.3228        0.709502 
        4.91663         16.2259        0.703482 
        4.93234         16.0838        0.697525 
        4.94807         15.9491        0.691633 
        4.96377         15.8028        0.685818 
        4.97943          15.721        0.680082 
        4.99514         15.5847        0.674396 
        5.01086         15.4697         0.66877 
        5.02654          15.323        0.663222 
        5.04227         15.2172         0.65772 
          5.058         15.0972        0.652277 
        5.07371         14.9362        0.646905 
        5.08942         14.8693        0.641593 
        5.10513         14.7257        0.636339 
        5.12084         14.6001         0.63114 
        5.13656         14.4984           0.626 
        5.15225         14.3816        0.620926 
        5.16796         14.2751        0.615898 
        5.18369         14.1684        0.610922 
         5.1994         14.0415        0.606009 
        5.21509         13.9688        0.601153 
        5.23079         13.7986        0.596345 
        5.24649         13.7353        0.591592 
        5.26217         13.6192        0.586894 
        5.27788         13.5151        0.582239 
        5.29359         13.4212        0.577634 
        5.30933         13.3263        0.573071 
        5.32504         13.2359        0.568565 
        5.34073         13.1095        0.564112 
        5.35646         13.0085        0.559696 
        5.37218         12.9215        0.555327 
        5.38789         12.7958        0.551011 
        5.40357         12.7001        0.546745 
        5.41929         12.6213        0.542514 
        5.43502         12.5329        0.538328 
         5.4507         12.4513        0.534194 
        5.46639          12.334        0.530104 
        5.48212         12.2616        0.526046 
        5.49786         12.1598        0.522025 
        5.51353           12.07        0.518065 
        5.52921         11.9789        0.514143 
        5.54495          11.904        0.510249 
        5.56066         11.7999        0.506399 
        5.57637         11.7144        0.502589 
        5.59207         11.6323        0.498821 
        5.60778         11.5419        0.495089 
        5.62346         11.4807        0.491401 
        5.63916         11.3787        0.487746 
        5.65487         11.3353        0.484127 
         5.6706         11.2179        0.480539 
        5.68633         11.1269        0.476986 
        5.70203         11.0598        0.473476 
        5.71773          10.981        0.470001 
        5.73344         10.9134        0.466559 
        5.74916         10.8298        0.463148 
        5.76486          10.736        0.459775 
        5.78054         10.6472        0.456441 
        5.79626         10.5997         0.45313 
          5.812         10.5151        0.449848 
         5.8277         10.4334        0.446608 
        5.84339         10.3718          0.4434 
        5.85911         10.2869        0.440216 
        5.87484         10.2333        0.437064 
        5.89053         10.1524        0.433949 
        5.90623         10.0714        0.430863 
        5.92195         10.0293          0.4278 
        5.93767         9.91877        0.424769 
        5.95336         9.86082        0.421772 
        5.96905         9.80046        0.418805 
        5.98476         9.72563        0.415861 
        6.00048         9.66779        0.412945 
        6.01617         9.59135         0.41006 
        6.03185         9.52211        0.407206 
        6.04756         9.46067        0.404372 
        6.06331         9.39889        0.401559 
        6.07903         9.34735        0.398778 
        6.09473         9.25742        0.396025 
        6.11044         9.20579        0.393296 
        6.12616         9.14556        0.390593 
        6.14186         9.06693        0.387918 
        6.15755         9.00792        0.385267 
        6.17326         8.94577        0.382639 
        6.18898         8.90191        0.380034 
        6.20467         8.82739        0.377458 
        6.22036         8.78118        0.374905 
         6.2361         8.71517        0.372369 
         6.2518         8.66547         0.36986 
        6.26748         8.60776         0.36738 
        6.28319         8.54151        0.364915 
        6.29893         8.47492         0.36247 
        6.31463         8.40759        0.360052 
        6.33033         8.36781        0.357656 
        6.34604         8.31588        0.355281 
        6.36177          8.2371        0.352924 
        6.37747          8.2057        0.350593 
