# k  (h/Mpc)    Pcb(k)  (Mpc/h)^3    Pcb_linear(k) (Mpc/h)^3   ShotnoiseSubtracted = true
      0.0200456         8388.59         8497.03 
      0.0350414         4911.28         4980.91 
      0.0492313         3230.67          3218.6 
      0.0637834         2668.81         2601.57 
      0.0800726         2013.91         1961.15 
       0.096163         1294.22         1293.32 
       0.111083         998.593         997.518 
       0.126058         918.347         896.328 
       0.142273         772.489         734.966 
       0.158546         599.655         545.388 
        0.17375         475.831         453.708 
       0.188953         454.457         415.472 
       0.204907         415.598         360.312 
       0.220756         339.133         293.102 
        0.23588         293.236         252.164 
         0.2514          257.43         230.313 
       0.267535         241.123         205.922 
       0.283568         214.267           177.2 
       0.299022         195.424         156.203 
       0.314451         177.381         142.815 
       0.330372         163.196         130.028 
       0.346141         144.264         116.241 
       0.361624          136.85         104.641 
       0.377134         126.775         96.0113 
       0.392932         114.539         88.3582 
       0.408854         109.025         80.6568 
       0.424564         103.359          73.749 
       0.440253         97.0086          68.073 
       0.455999         89.9225         63.1305 
       0.471626         83.3355         58.4806 
        0.48727         79.3892         54.1725 
       0.502856         75.7347          50.412 
       0.518488         72.7744         47.0704 
       0.534347         69.4484         43.9456 
       0.550082         63.4827         41.0646 
       0.565732          60.264          38.474 
       0.581496         57.9844         36.1153 
       0.597222         55.6244         33.9558 
       0.612804         52.6541         31.9691 
       0.628434         50.9626         30.1339 
       0.644267         49.0391         28.4305 
       0.660051         47.4143         26.8634 
       0.675724         45.1961         25.4216 
       0.691403         43.6114         24.0831 
       0.707174         41.8864         22.8322 
       0.722871         40.6808          21.674 
        0.73838         39.4917         20.6075 
       0.754018          37.358         19.6039 
       0.769845         36.3664         18.6555 
        0.78569         35.3677         17.7684 
       0.801365         33.9483          16.947 
       0.817031         32.8734         16.1777 
       0.832809         32.3004          15.451 
       0.848511         30.5476         14.7718 
       0.864097         29.9571         14.1378 
       0.879701         29.1453         13.5401 
       0.895507         28.6327         12.9696 
       0.911279         27.6301          12.433 
        0.92691         27.0711         11.9309 
       0.942635         25.8826         11.4536 
       0.958396         25.6695         11.0011 
       0.974128         24.8338         10.5737 
       0.989692         24.3756         10.1731 
        1.00528         23.7618         9.79244 
        1.02113         23.0274         9.42516 
        1.03692         22.3134         9.07792 
        1.05264         22.2232         8.74963 
        1.06832         21.2617         8.43795 
        1.08405         20.9883          8.1405 
        1.09979          20.614         7.85711 
        1.11537         19.8768         7.58989 
        1.13105         19.8832         7.33341 
        1.14679         19.3923          7.0877 
        1.16256         18.8134         6.85268 
        1.17828         18.4231           6.629 
        1.19395         18.0743         6.41598 
         1.2097         17.8068         6.21115 
        1.22537         17.6201         6.01618 
          1.241         17.0658          5.8301 
        1.25666         16.6775         5.65136 
        1.27241         16.3503         5.47922 
        1.28819         15.9628         5.31389 
        1.30392         15.7418         5.15581 
        1.31957         15.5769         5.00481 
        1.33529         15.3607         4.85925 
        1.35108         15.0114         4.71885 
        1.36674         14.7395         4.58496 
         1.3824         14.3764         4.45634 
        1.39811         14.3021         4.33218 
        1.41389         14.0948         4.21224 
        1.42964         13.7271           4.097 
        1.44531         13.6323         3.98659 
        1.46101         13.2899         3.87999 
        1.47667         13.1399         3.77756 
        1.49229         12.9731         3.67907 
        1.50793         12.7794         3.58395 
        1.52367         12.5759         3.49156 
        1.53953         12.4479         3.40177 
        1.55526         12.2169         3.31582 
        1.57092         11.9799         3.23317 
        1.58662         11.8686         3.15312 
        1.60235         11.6782          3.0756 
        1.61809         11.5031         3.00062 
        1.63369         11.3681         2.92878 
        1.64941         11.1808         2.85877 
        1.66519         11.0299         2.79076 
        1.68085         10.8892         2.72543 
        1.69652         10.6971         2.66215 
        1.71228         10.6419         2.60051 
        1.72806         10.4258         2.54075 
        1.74368         10.2718         2.48345 
        1.75933         10.1681         2.42778 
        1.77505         10.1061         2.37355 
        1.79081         9.90777         2.32086 
         1.8065          9.8401         2.26998 
        1.82218         9.66496         2.22065 
        1.83797         9.48393         2.17244 
        1.85367         9.41013         2.12591 
        1.86928         9.29829         2.08101 
        1.88497         9.15753         2.03716 
        1.90073         9.12144         1.99439 
        1.91647         8.96701         1.95287 
        1.93218         8.88004         1.91262 
        1.94787         8.75941         1.87354 
        1.96363          8.7063         1.83539 
        1.97935         8.58942         1.79838 
        1.99499          8.4401         1.76258 
        2.01064         8.38834          1.7277 
         2.0264         8.27539         1.69353 
        2.04216         8.20032         1.66029 
        2.05781          8.0271         1.62815 
        2.07353         8.01045         1.59673 
        2.08928         7.91274         1.56607 
        2.10499         7.81747         1.53629 
        2.12065         7.70517         1.50736 
        2.13633         7.64896         1.47914 
        2.15211         7.55779         1.45146 
        2.16785         7.47442         1.42456 
        2.18349         7.41675          1.3985 
        2.19916         7.34955         1.37303 
        2.21489         7.25633          1.3481 
        2.23063         7.18433         1.32377 
         2.2463         7.10523         1.30015 
        2.26194          7.0178         1.27715 
        2.27765         6.97321         1.25459 
        2.29341         6.90177          1.2325 
        2.30914         6.81707         1.21099 
        2.32486          6.7565            1.19 
        2.34061         6.70256         1.16947 
        2.35635          6.6128         1.14943 
        2.37203         6.55927         1.12993 
        2.38768         6.45807         1.11092 
        2.40339         6.41061         1.09227 
        2.41914          6.3501           1.074 
        2.43483          6.3195         1.05621 
         2.4505         6.21675         1.03885 
        2.46622         6.16055         1.02181 
        2.48195         6.12183         1.00515 
        2.49759         6.07207        0.988951 
        2.51328          5.9821         0.97306 
        2.52906         5.94394        0.957415 
        2.54479         5.87981        0.942168 
        2.56049         5.84773        0.927279 
        2.57618         5.81914        0.912721 
        2.59189         5.72765        0.898451 
        2.60758         5.69369        0.884505 
        2.62325         5.65235        0.870869 
        2.63898         5.57943         0.85747 
        2.65468         5.51954        0.844378 
        2.67044         5.47459        0.831501 
        2.68618          5.4233        0.818919 
        2.70184         5.38215        0.806645 
        2.71755         5.33647        0.794589 
        2.73329         5.27091        0.782759 
        2.74897         5.23977        0.771205 
        2.76462         5.19862        0.759908 
        2.78034         5.12595        0.748787 
        2.79607         5.11006        0.737876 
        2.81179         5.04472        0.727192 
        2.82749         5.02095        0.716729 
        2.84321         4.97711        0.706459 
        2.85893          4.9283         0.69639 
        2.87462         4.89308        0.686533 
        2.89033         4.86392        0.676856 
        2.90605         4.78721        0.667355 
        2.92176         4.76508        0.658039 
        2.93747         4.74171        0.648904 
        2.95318         4.68703        0.639938 
        2.96891          4.6451        0.631136 
        2.98456          4.6041        0.622537 
        3.00023         4.57468        0.614083 
        3.01596         4.53107        0.605759 
        3.03164         4.50284        0.597611 
        3.04738         4.48009        0.589588 
         3.0631         4.42019        0.581713 
        3.07883         4.39775         0.57398 
        3.09456         4.36084        0.566387 
        3.11026         4.32845        0.558942 
        3.12596          4.2881         0.55163 
        3.14163         4.25838        0.544464 
        3.15734         4.21613        0.537407 
        3.17308         4.18348        0.530458 
        3.18879         4.16396        0.523648 
        3.20447         4.12388        0.516967 
         3.2202         4.09163        0.510381 
         3.2359         4.06132         0.50392 
        3.25157         4.02955        0.497584 
        3.26729         4.00731        0.491338 
        3.28304         3.97256        0.485185 
        3.29877         3.94418        0.479144 
        3.31446         3.89927        0.473219 
        3.33014         3.88093        0.467398 
        3.34585         3.85227        0.461664 
        3.36158         3.82923        0.456017 
        3.37727         3.79858        0.450482 
        3.39294         3.78223        0.445042 
        3.40867         3.74027        0.439672 
        3.42439         3.71003        0.434392 
        3.44008          3.6918        0.429208 
        3.45578         3.66299        0.424104 
        3.47153         3.62698        0.419071 
        3.48724         3.60694        0.414128 
        3.50292         3.57403        0.409274 
        3.51859         3.55371        0.404501 
        3.53431         3.53543        0.399787 
        3.55007         3.49397        0.395137 
        3.56577         3.47798        0.390578 
        3.58146         3.46071        0.386092 
        3.59719          3.4329        0.381665 
        3.61292         3.40882        0.377309 
        3.62859         3.37848        0.373036 
        3.64429         3.36056         0.36882 
        3.66003         3.33183        0.364656 
        3.67578         3.30765        0.360558 
        3.69146         3.27699        0.356536 
        3.70712         3.27219        0.352583 
        3.72284         3.24152        0.348675 
        3.73853         3.21512        0.344832 
        3.75422         3.18945        0.341044 
        3.76993         3.17453         0.33731 
        3.78564         3.15854        0.333633 
        3.80137         3.13245        0.330004 
        3.81707         3.11236        0.326435 
        3.83279         3.07604        0.322916 
        3.84853         3.07023        0.319443 
        3.86424         3.04453        0.316027 
        3.87992         3.02426        0.312666 
        3.89561         2.99655        0.309352 
        3.91134         2.97241         0.30608 
        3.92704         2.96154        0.302858 
        3.94273          2.9445        0.299685 
        3.95845         2.91835        0.296551 
        3.97418         2.89833        0.293461 
        3.98988         2.88184        0.290419 
        4.00554         2.86245        0.287427 
        4.02125         2.84499        0.284469 
        4.03698         2.81851        0.281547 
        4.05268         2.79712        0.278673 
        4.06839         2.78857        0.275836 
         4.0841         2.76298        0.273039 
        4.09983          2.7503        0.270276 
        4.11555         2.73066        0.267553 
        4.13124         2.71121        0.264874 
        4.14693          2.6797        0.262229 
        4.16266         2.67015        0.259613 
        4.17839         2.64456        0.257035 
        4.19408         2.62384        0.254496 
        4.20977         2.61098        0.251991 
        4.22551         2.60173        0.249513 
        4.24123         2.57432        0.247071 
        4.25691         2.54774        0.244667 
        4.27259         2.54356        0.242295 
        4.28831         2.53349        0.239949 
        4.30404         2.50958        0.237631 
        4.31974         2.49203        0.235348 
        4.33543         2.47761        0.233097 
        4.35116         2.45758        0.230869 
        4.36688         2.44472        0.228671 
        4.38255         2.42324        0.226509 
        4.39825         2.40693        0.224371 
        4.41398         2.39749        0.222255 
         4.4297          2.3779        0.220169 
        4.44541         2.36442        0.218109 
        4.46111         2.35505        0.216077 
        4.47683         2.33842        0.214069 
        4.49251         2.31752        0.212091 
        4.50819          2.3037        0.210138 
         4.5239          2.2946        0.208206 
        4.53962         2.28034        0.206296 
        4.55535         2.26612        0.204409 
        4.57106         2.25246        0.202547 
        4.58678         2.24409        0.200709 
         4.6025         2.22262        0.198892 
        4.61821         2.21938        0.197098 
        4.63391         2.20137        0.195328 
         4.6496          2.1822        0.193581 
        4.66532         2.17811        0.191852 
        4.68103         2.16276        0.190144 
        4.69673         2.14511        0.188459 
        4.71241         2.13269        0.186795 
        4.72811         2.12453        0.185149 
        4.74384         2.11151         0.18352 
        4.75955         2.10341        0.181913 
        4.77525         2.08821        0.180326 
        4.79096         2.07204        0.178756 
        4.80669         2.06678        0.177203 
         4.8224         2.05039        0.175671 
        4.83809         2.04105        0.174158 
        4.85379         2.03099        0.172661 
         4.8695         2.01804        0.171181 
        4.88521         2.00928        0.169719 
        4.90093         1.99638        0.168273 
        4.91663         1.98636        0.166846 
        4.93234         1.97377        0.165433 
        4.94807         1.96269        0.164035 
        4.96377          1.9524        0.162656 
        4.97943         1.93909        0.161296 
        4.99514         1.92988        0.159947 
        5.01086         1.91745        0.158613 
        5.02654         1.91185        0.157297 
        5.04227          1.9033        0.155992 
          5.058         1.89166        0.154701 
        5.07371         1.88076        0.153427 
        5.08942         1.86668        0.152167 
        5.10513         1.86332        0.150921 
        5.12084         1.85194        0.149688 
        5.13656         1.83927        0.148469 
        5.15225         1.82986        0.147266 
        5.16796         1.82194        0.146073 
        5.18369         1.80985        0.144893 
         5.1994          1.8054        0.143728 
        5.21509         1.79397        0.142576 
        5.23079         1.78508        0.141436 
        5.24649         1.77699        0.140309 
        5.26217         1.76644        0.139194 
        5.27788         1.76135         0.13809 
        5.29359         1.75306        0.136998 
        5.30933         1.73894        0.135916 
        5.32504         1.72835        0.134847 
        5.34073         1.72694        0.133791 
        5.35646         1.70953        0.132744 
        5.37218         1.70493        0.131708 
        5.38789         1.69528        0.130684 
        5.40357         1.69163        0.129672 
        5.41929         1.67993        0.128669 
        5.43502         1.67642        0.127676 
         5.4507         1.66633        0.126695 
        5.46639         1.65879        0.125725 
        5.48212          1.6515        0.124763 
        5.49786         1.64314        0.123809 
        5.51353         1.63765         0.12287 
        5.52921         1.62825         0.12194 
        5.54495         1.62034        0.121016 
        5.56066         1.61387        0.120103 
        5.57637         1.60528        0.119199 
        5.59207         1.60168        0.118306 
        5.60778         1.58931        0.117421 
        5.62346         1.58671        0.116546 
        5.63916         1.57621        0.115679 
        5.65487         1.56841        0.114821 
         5.6706         1.55838         0.11397 
        5.68633         1.55347        0.113127 
        5.70203         1.54615        0.112295 
        5.71773         1.54025        0.111471 
        5.73344         1.53516        0.110654 
        5.74916         1.52854        0.109845 
        5.76486         1.52004        0.109045 
        5.78054          1.5183        0.108255 
        5.79626          1.5064        0.107469 
          5.812         1.50003        0.106691 
         5.8277         1.49347        0.105923 
        5.84339         1.48924        0.105162 
        5.85911         1.48102        0.104407 
        5.87484         1.47644        0.103659 
        5.89053         1.47052         0.10292 
        5.90623         1.46639        0.102188 
        5.92195         1.45674        0.101462 
        5.93767         1.45172        0.100743 
        5.95336         1.44606        0.100032 
        5.96905         1.43935       0.0993283 
        5.98476         1.43296       0.0986303 
        6.00048         1.42784       0.0979386 
        6.01617         1.41905       0.0972544 
        6.03185         1.41243       0.0965775 
        6.04756         1.40875       0.0959054 
        6.06331           1.404       0.0952381 
        6.07903         1.39831       0.0945786 
        6.09473         1.39182       0.0939258 
        6.11044         1.38598       0.0932785 
        6.12616         1.38209       0.0926374 
        6.14186         1.37713       0.0920028 
        6.15755         1.36939       0.0913742 
        6.17326         1.36756       0.0907509 
        6.18898         1.36091       0.0901331 
        6.20467          1.3554        0.089522 
        6.22036         1.34884       0.0889166 
         6.2361         1.34363       0.0883151 
         6.2518         1.33939       0.0877201 
        6.26748         1.33473       0.0871318 
        6.28319         1.32869       0.0865472 
        6.29893         1.32193       0.0859675 
        6.31463         1.31766       0.0853939 
        6.33033         1.31351       0.0848257 
        6.34604         1.30834       0.0842623 
        6.36177         1.30141       0.0837033 
        6.37747         1.30022       0.0831504 
