# k  (h/Mpc)    Pcb(k)  (Mpc/h)^3    Pcb_linear(k) (Mpc/h)^3   ShotnoiseSubtracted = true
      0.0200456         1735.09         1752.48 
      0.0350414         1051.32          1027.3 
      0.0492313         667.799         663.825 
      0.0637834         531.078         536.565 
      0.0800726         398.945         404.481 
       0.096163           273.7         266.742 
       0.111083         211.638         205.735 
       0.126058         183.853         184.865 
       0.142273         150.715         151.584 
       0.158546         114.406         112.484 
        0.17375          96.118         93.5757 
       0.188953         87.1143         85.6897 
       0.204907         73.5438         74.3132 
       0.220756         61.8935         60.4514 
        0.23588         53.3232          52.008 
         0.2514          48.361         47.5012 
       0.267535         43.7546         42.4708 
       0.283568         37.6668         36.5469 
       0.299022         33.6517         32.2163 
       0.314451         31.3383         29.4552 
       0.330372         28.0102         26.8179 
       0.346141         25.1514         23.9744 
       0.361624         22.6992         21.5819 
       0.377134         20.6989          19.802 
       0.392932         19.6526         18.2236 
       0.408854         17.6618         16.6352 
       0.424564         16.6202         15.2105 
       0.440253         15.0836         14.0398 
       0.455999         13.7055         13.0205 
       0.471626         12.8035         12.0614 
        0.48727         12.2188         11.1729 
       0.502856         11.4126         10.3973 
       0.518488         10.4547         9.70811 
       0.534347         9.72773         9.06364 
       0.550082          9.2698         8.46942 
       0.565732         8.81578         7.93514 
       0.581496         8.22695         7.44866 
       0.597222         7.72468         7.00327 
       0.612804         7.22783         6.59352 
       0.628434          6.9799         6.21501 
       0.644267         6.57674         5.86369 
       0.660051         6.18918         5.54048 
       0.675724         5.83331         5.24311 
       0.691403         5.61167         4.96705 
       0.707174         5.30369         4.70906 
       0.722871         5.14078         4.47019 
        0.73838         4.80061         4.25023 
       0.754018         4.53471         4.04324 
       0.769845         4.32754         3.84764 
        0.78569         4.20235         3.66466 
       0.801365         3.99457         3.49526 
       0.817031         3.82674          3.3366 
       0.832809         3.63652         3.18672 
       0.848511         3.50907         3.04664 
       0.864097         3.36887         2.91587 
       0.879701         3.26849          2.7926 
       0.895507         3.11486         2.67494 
       0.911279         2.98424         2.56426 
        0.92691         2.88952         2.46071 
       0.942635         2.75338         2.36226 
       0.958396         2.66898         2.26894 
       0.974128         2.58044          2.1808 
       0.989692         2.44867         2.09816 
        1.00528          2.3904         2.01966 
        1.02113         2.30508         1.94391 
        1.03692          2.2457         1.87229 
        1.05264         2.14576         1.80458 
        1.06832         2.08219          1.7403 
        1.08405         2.00741         1.67895 
        1.09979         1.94942          1.6205 
        1.11537         1.88319         1.56539 
        1.13105         1.81628         1.51249 
        1.14679         1.76459         1.46181 
        1.16256         1.70498         1.41334 
        1.17828         1.67439         1.36721 
        1.19395          1.6057         1.32327 
         1.2097         1.55301         1.28103 
        1.22537         1.50124         1.24082 
          1.241         1.46356         1.20244 
        1.25666         1.43751         1.16557 
        1.27241         1.39771         1.13007 
        1.28819         1.33509         1.09597 
        1.30392         1.30125         1.06337 
        1.31957         1.27583         1.03222 
        1.33529         1.22087          1.0022 
        1.35108         1.19821        0.973248 
        1.36674         1.16265        0.945632 
         1.3824         1.14398        0.919104 
        1.39811         1.11144        0.893497 
        1.41389         1.07595        0.868759 
        1.42964         1.04755        0.844992 
        1.44531         1.02409        0.822221 
        1.46101         1.00159        0.800234 
        1.47667        0.975919        0.779109 
        1.49229        0.943036        0.758796 
        1.50793        0.914493        0.739178 
        1.52367        0.897313        0.720121 
        1.53953        0.869824        0.701603 
        1.55526        0.864856        0.683877 
        1.57092        0.840943        0.666831 
        1.58662        0.829683        0.650321 
        1.60235        0.798777        0.634332 
        1.61809        0.781247        0.618868 
        1.63369        0.759761        0.604052 
        1.64941        0.746095        0.589611 
        1.66519        0.733615        0.575585 
        1.68085        0.712484        0.562111 
        1.69652        0.696794         0.54906 
        1.71228         0.68109        0.536346 
        1.72806        0.668613        0.524021 
        1.74368        0.651627        0.512202 
        1.75933        0.640931        0.500722 
        1.77505        0.628042        0.489536 
        1.79081        0.608211        0.478669 
         1.8065        0.600885        0.468175 
        1.82218         0.58365        0.458002 
        1.83797        0.572074        0.448058 
        1.85367        0.562362        0.438462 
        1.86928        0.549671        0.429202 
        1.88497        0.537452        0.420156 
        1.90073        0.530896        0.411335 
        1.91647        0.515613        0.402773 
        1.93218        0.506581         0.39447 
        1.94787        0.498871        0.386412 
        1.96363        0.488751        0.378544 
        1.97935        0.478802        0.370909 
        1.99499        0.469298        0.363526 
        2.01064        0.460457        0.356332 
         2.0264        0.449478        0.349284 
        2.04216         0.44312         0.34243 
        2.05781        0.433653          0.3358 
        2.07353        0.426822        0.329321 
        2.08928        0.419414        0.322997 
        2.10499        0.410769        0.316854 
        2.12065        0.402736        0.310887 
        2.13633        0.397109        0.305068 
        2.15211        0.385827        0.299359 
        2.16785        0.382054         0.29381 
        2.18349        0.374442        0.288435 
        2.19916         0.36894        0.283182 
        2.21489        0.362877        0.278042 
        2.23063        0.354017        0.273024 
         2.2463        0.348657        0.268151 
        2.26194        0.343744        0.263408 
        2.27765        0.337184        0.258754 
        2.29341        0.332035          0.2542 
        2.30914        0.324681        0.249763 
        2.32486        0.320562        0.245434 
        2.34061        0.313772        0.241199 
        2.35635        0.308824        0.237067 
        2.37203        0.304356        0.233044 
        2.38768        0.299428        0.229123 
        2.40339        0.294687        0.225277 
        2.41914        0.290209        0.221509 
        2.43483        0.285683         0.21784 
         2.4505        0.280277        0.214259 
        2.46622        0.276628        0.210745 
        2.48195        0.271922        0.207309 
        2.49759        0.267179        0.203968 
        2.51328        0.261688         0.20069 
        2.52906        0.259355        0.197464 
        2.54479        0.254072        0.194319 
        2.56049         0.25096        0.191248 
        2.57618        0.247798        0.188246 
        2.59189        0.243178        0.185302 
        2.60758        0.239798        0.182426 
        2.62325        0.236475        0.179614 
        2.63898        0.233158         0.17685 
        2.65468        0.227776         0.17415 
        2.67044        0.225416        0.171494 
        2.68618        0.223057        0.168899 
        2.70184        0.219456        0.166368 
        2.71755        0.215938        0.163881 
        2.73329         0.21243        0.161441 
        2.74897        0.209362        0.159058 
        2.76462        0.206686        0.156728 
        2.78034        0.203396        0.154435 
        2.79607        0.200551        0.152184 
        2.81179        0.198071        0.149981 
        2.82749        0.194943        0.147823 
        2.84321         0.19112        0.145705 
        2.85893        0.189543        0.143628 
        2.87462         0.18705        0.141595 
        2.89033        0.184631        0.139599 
        2.90605        0.182548         0.13764 
        2.92176         0.18007        0.135718 
        2.93747        0.177095        0.133834 
        2.95318        0.174966        0.131985 
        2.96891        0.173636         0.13017 
        2.98456        0.170201        0.128396 
        3.00023        0.168581        0.126653 
        3.01596        0.165736        0.124936 
        3.03164        0.164019        0.123255 
        3.04738        0.161895          0.1216 
         3.0631         0.15955        0.119976 
        3.07883        0.157483        0.118381 
        3.09456        0.155968        0.116815 
        3.11026        0.153915         0.11528 
        3.12596        0.151989        0.113772 
        3.14163        0.150321        0.112294 
        3.15734        0.148493        0.110838 
        3.17308        0.146686        0.109405 
        3.18879        0.144771        0.108001 
        3.20447        0.143238        0.106623 
         3.2202        0.140955        0.105264 
         3.2359        0.139645        0.103932 
        3.25157        0.137263        0.102625 
        3.26729         0.13666        0.101337 
        3.28304        0.134936        0.100068 
        3.29877         0.13351       0.0988219 
        3.31446        0.132333       0.0975998 
        3.33014        0.130213       0.0963991 
        3.34585         0.12915       0.0952167 
        3.36158        0.127634        0.094052 
        3.37727         0.12633       0.0929103 
        3.39294        0.125034       0.0917884 
        3.40867        0.123322       0.0906808 
        3.42439        0.122445       0.0895918 
        3.44008        0.121079       0.0885227 
        3.45578            0.12         0.08747 
        3.47153        0.118668        0.086432 
        3.48724         0.11748       0.0854124 
        3.50292        0.116332       0.0844115 
        3.51859        0.115091       0.0834269 
        3.53431        0.114054       0.0824548 
        3.55007        0.113025       0.0814956 
        3.56577        0.111922       0.0805553 
        3.58146        0.110749       0.0796301 
        3.59719        0.109838       0.0787171 
        3.61292        0.108746       0.0778186 
        3.62859        0.107885       0.0769374 
        3.64429         0.10669       0.0760679 
        3.66003        0.105555       0.0752091 
        3.67578        0.105005       0.0743638 
        3.69146        0.103969       0.0735344 
        3.70712        0.102986       0.0727191 
        3.72284        0.102214        0.071913 
        3.73853        0.101183       0.0711203 
        3.75422        0.100301       0.0703392 
        3.76993       0.0996179       0.0695691 
        3.78564       0.0983869       0.0688106 
        3.80137       0.0977724       0.0680621 
        3.81707       0.0970953       0.0673262 
        3.83279       0.0960841       0.0666004 
        3.84853       0.0953174       0.0658841 
        3.86424       0.0947912       0.0651795 
        3.87992       0.0938373       0.0644862 
        3.89561       0.0931232       0.0638029 
        3.91134       0.0921074       0.0631279 
        3.92704       0.0912231       0.0624634 
        3.94273       0.0908125        0.061809 
        3.95845       0.0896099       0.0611627 
        3.97418       0.0890897       0.0605253 
        3.98988       0.0882585       0.0598979 
        4.00554       0.0872594       0.0592809 
        4.02125       0.0865707       0.0586708 
        4.03698       0.0854104       0.0580682 
        4.05268       0.0842989       0.0574753 
        4.06839       0.0835667       0.0568902 
         4.0841       0.0822917       0.0563133 
        4.09983       0.0816264       0.0557436 
        4.11555       0.0803402       0.0551818 
        4.13124       0.0795716       0.0546293 
        4.14693       0.0787167       0.0540837 
        4.16266        0.077837       0.0535443 
        4.17839       0.0768745       0.0530125 
        4.19408       0.0761862        0.052489 
        4.20977       0.0752081       0.0519723 
        4.22551       0.0745901       0.0514612 
        4.24123       0.0738811       0.0509575 
        4.25691       0.0729814       0.0504618 
        4.27259       0.0723175       0.0499725 
        4.28831         0.07169       0.0494886 
        4.30404       0.0711524       0.0490105 
        4.31974       0.0705853       0.0485398 
        4.33543       0.0699464       0.0480754 
        4.35116        0.069577        0.047616 
        4.36688       0.0690763       0.0471626 
        4.38255       0.0684014       0.0467168 
        4.39825       0.0678727       0.0462757 
        4.41398       0.0674216       0.0458393 
         4.4297       0.0671543        0.045409 
        4.44541       0.0668565       0.0449843 
        4.46111        0.066263       0.0445652 
        4.47683       0.0658545       0.0441511 
        4.49251       0.0654718        0.043743 
        4.50819       0.0655049       0.0433402 
         4.5239       0.0651159       0.0429418 
        4.53962       0.0649533       0.0425478 
        4.55535       0.0644782       0.0421586 
        4.57106       0.0644797       0.0417747 
        4.58678        0.064126       0.0413955 
         4.6025        0.064064       0.0410208 
        4.61821       0.0641171       0.0406508 
        4.63391       0.0640125       0.0402858 
         4.6496       0.0637247       0.0399254 
        4.66532       0.0636671       0.0395687 
        4.68103       0.0635989       0.0392166 
        4.69673       0.0636963        0.038869 
        4.71241       0.0637545       0.0385259 
        4.72811       0.0636486       0.0381863 
        4.74384       0.0635913       0.0378504 
        4.75955        0.063903       0.0375189 
        4.77525       0.0640145       0.0371916 
        4.79096        0.063977       0.0368678 
        4.80669       0.0641464       0.0365476 
         4.8224       0.0642051       0.0362315 
        4.83809       0.0645085       0.0359194 
        4.85379       0.0647485       0.0356108 
         4.8695       0.0651536       0.0353056 
        4.88521       0.0650165        0.035004 
        4.90093        0.065411       0.0347058 
        4.91663       0.0657825       0.0344114 
        4.93234       0.0660843         0.03412 
        4.94807        0.066364       0.0338317 
        4.96377       0.0667267       0.0335473 
        4.97943       0.0673199       0.0332667 
        4.99514       0.0674684       0.0329886 
        5.01086       0.0682269       0.0327134 
        5.02654       0.0687317        0.032442 
        5.04227       0.0690675       0.0321728 
          5.058       0.0698654       0.0319066 
        5.07371       0.0702939       0.0316438 
        5.08942       0.0711705        0.031384 
        5.10513       0.0717849        0.031127 
        5.12084       0.0718238       0.0308727 
        5.13656       0.0731339       0.0306213 
        5.15225       0.0735969        0.030373 
        5.16796       0.0745919       0.0301271 
        5.18369       0.0754442       0.0298837 
         5.1994        0.076003       0.0296433 
        5.21509       0.0767706       0.0294058 
        5.23079       0.0778424       0.0291706 
        5.24649       0.0792462       0.0289381 
        5.26217       0.0793432       0.0287083 
        5.27788       0.0805566       0.0284807 
        5.29359       0.0815222       0.0282554 
        5.30933       0.0829223       0.0280322 
        5.32504       0.0838321       0.0278118 
        5.34073       0.0851019       0.0275939 
        5.35646       0.0865243        0.027378 
        5.37218       0.0875751       0.0271642 
        5.38789       0.0881933       0.0269531 
        5.40357       0.0897832       0.0267444 
        5.41929       0.0910925       0.0265375 
        5.43502       0.0926167       0.0263327 
         5.4507       0.0940317       0.0261305 
        5.46639        0.095351       0.0259304 
        5.48212       0.0968152       0.0257319 
        5.49786       0.0987656       0.0255352 
        5.51353        0.100579       0.0253415 
        5.52921        0.101609       0.0251497 
        5.54495        0.103455       0.0249592 
        5.56066        0.105011       0.0247709 
        5.57637        0.107222       0.0245845 
        5.59207        0.108873       0.0244002 
        5.60778        0.110623       0.0242177 
        5.62346         0.11322       0.0240372 
        5.63916        0.114331       0.0238585 
        5.65487        0.116747       0.0236814 
         5.6706        0.118695       0.0235059 
        5.68633        0.121027       0.0233321 
        5.70203        0.123242       0.0231604 
        5.71773        0.125432       0.0229905 
        5.73344        0.127463       0.0228221 
        5.74916        0.129979       0.0226552 
        5.76486        0.132693       0.0224902 
        5.78054        0.134457       0.0223271 
        5.79626        0.137215       0.0221652 
          5.812        0.139992       0.0220047 
         5.8277        0.142682       0.0218462 
        5.84339        0.144806       0.0216892 
        5.85911        0.147955       0.0215335 
        5.87484        0.151117       0.0213793 
        5.89053        0.154354       0.0212269 
        5.90623        0.156248        0.021076 
        5.92195        0.160157       0.0209262 
        5.93767        0.162512       0.0207779 
        5.95336        0.165158       0.0206313 
        5.96905         0.16836       0.0204861 
        5.98476        0.171226       0.0203422 
        6.00048        0.175017       0.0201995 
        6.01617        0.179593       0.0200584 
        6.03185        0.181624       0.0199188 
        6.04756        0.183804       0.0197802 
        6.06331        0.187733       0.0196425 
        6.07903        0.193835       0.0195065 
        6.09473        0.195925       0.0193719 
        6.11044        0.200429       0.0192384 
        6.12616        0.202442       0.0191061 
        6.14186        0.206414       0.0189753 
        6.15755        0.211074       0.0188456 
        6.17326        0.213798       0.0187171 
        6.18898        0.217622       0.0185896 
        6.20467        0.221473       0.0184636 
        6.22036        0.224927       0.0183387 
         6.2361        0.228524       0.0182147 
         6.2518        0.234681        0.018092 
        6.26748         0.23638       0.0179706 
        6.28319        0.241493       0.0178501 
        6.29893         0.24576       0.0177305 
        6.31463        0.250923       0.0176122 
        6.33033        0.254392        0.017495 
        6.34604        0.258869       0.0173788 
        6.36177        0.262213       0.0172635 
        6.37747        0.267914       0.0171495 
