# k  (h/Mpc)    Pcb(k)  (Mpc/h)^3    Pcb_linear(k) (Mpc/h)^3   ShotnoiseSubtracted = true
      0.0200456         10097.3         10210.6 
      0.0350414         6212.17         5985.41 
      0.0492313         3873.76         3867.69 
      0.0637834         3055.29         3126.23 
      0.0800726         2291.16         2356.66 
       0.096163         1644.86         1554.14 
       0.111083         1282.61         1198.69 
       0.126058         1083.48         1077.09 
       0.142273         902.416         883.186 
       0.158546         702.592         655.376 
        0.17375         598.953         545.207 
       0.188953          552.53          499.26 
       0.204907         461.244         432.976 
       0.220756         401.434         352.212 
        0.23588         350.829         303.018 
         0.2514         311.688          276.76 
       0.267535         295.766         247.451 
       0.283568         253.252         212.936 
       0.299022         237.037         187.704 
       0.314451         230.942         171.617 
       0.330372         197.735         156.251 
       0.346141         180.819         139.684 
       0.361624         168.992         125.744 
       0.377134         154.742         115.374 
       0.392932         148.252         106.177 
       0.408854          139.88         96.9228 
       0.424564         132.302         88.6219 
       0.440253          119.29         81.8012 
       0.455999         110.343          75.862 
       0.471626         107.779         70.2743 
        0.48727         102.294         65.0974 
       0.502856         92.9721         60.5786 
       0.518488         91.4639         56.5631 
       0.534347         84.9281         52.8081 
       0.550082          82.405          49.346 
       0.565732         80.3889         46.2331 
       0.581496         73.2104         43.3987 
       0.597222         71.2488         40.8036 
       0.612804         67.9111         38.4163 
       0.628434         66.3825          36.211 
       0.644267         62.3612          34.164 
       0.660051         60.5833         32.2809 
       0.675724         58.7036         30.5483 
       0.691403         57.2228         28.9399 
       0.707174         54.7215         27.4368 
       0.722871         53.4868          26.045 
        0.73838         51.7848         24.7634 
       0.754018         48.4366         23.5574 
       0.769845         47.9806         22.4178 
        0.78569         46.3701         21.3517 
       0.801365         44.5324         20.3647 
       0.817031         43.0144         19.4403 
       0.832809         41.9535          18.567 
       0.848511         40.9839         17.7508 
       0.864097         40.0128         16.9889 
       0.879701         38.9626         16.2707 
       0.895507         37.4366         15.5852 
       0.911279         36.4743         14.9404 
        0.92691           35.86          14.337 
       0.942635         34.6931         13.7634 
       0.958396         34.5292         13.2197 
       0.974128         33.5803         12.7061 
       0.989692         32.4795         12.2247 
        1.00528          31.725         11.7673 
        1.02113         30.8738         11.3259 
        1.03692         30.6546         10.9087 
        1.05264         29.9443         10.5142 
        1.06832         29.1045         10.1396 
        1.08405         28.5009          9.7822 
        1.09979         28.0979         9.44165 
        1.11537         27.3602         9.12054 
        1.13105         26.6416         8.81234 
        1.14679         26.2578         8.51708 
        1.16256         25.8123         8.23466 
        1.17828         25.4725         7.96587 
        1.19395         24.7122         7.70988 
         1.2097         24.6143         7.46375 
        1.22537         23.8598         7.22946 
          1.241         23.7114         7.00586 
        1.25666         22.9294         6.79107 
        1.27241         22.7787         6.58421 
        1.28819         22.3344         6.38554 
        1.30392         21.8551         6.19558 
        1.31957          21.666         6.01413 
        1.33529           21.31         5.83921 
        1.35108         20.9015          5.6705 
        1.36674         20.4399         5.50961 
         1.3824         20.1267         5.35504 
        1.39811         19.7806         5.20585 
        1.41389         19.4646         5.06172 
        1.42964         19.3848         4.92324 
        1.44531         18.9647         4.79057 
        1.46101         18.7088         4.66246 
        1.47667         18.4573         4.53938 
        1.49229         18.0185         4.42103 
        1.50793         17.9278         4.30673 
        1.52367         17.5461          4.1957 
        1.53953         17.4361          4.0878 
        1.55526         17.0772         3.98452 
        1.57092         16.8803         3.88521 
        1.58662         16.7213         3.78901 
        1.60235         16.4228         3.69586 
        1.61809         16.2154         3.60576 
        1.63369         15.9499         3.51943 
        1.64941         15.7128         3.43529 
        1.66519         15.6144         3.35357 
        1.68085          15.282         3.27507 
        1.69652         15.1133         3.19903 
        1.71228         15.0611         3.12495 
        1.72806          14.737         3.05314 
        1.74368         14.5723         2.98428 
        1.75933         14.4372         2.91739 
        1.77505         14.2215         2.85222 
        1.79081          14.056          2.7889 
         1.8065          13.922         2.72776 
        1.82218         13.7109         2.66849 
        1.83797         13.6145         2.61055 
        1.85367         13.4797         2.55464 
        1.86928         13.3201         2.50069 
        1.88497         13.1368         2.44799 
        1.90073         13.0293         2.39659 
        1.91647         12.8132         2.34671 
        1.93218         12.7184         2.29833 
        1.94787         12.5766         2.25138 
        1.96363         12.4074         2.20554 
        1.97935         12.2466         2.16106 
        1.99499         12.1596         2.11804 
        2.01064         11.9363         2.07612 
         2.0264         11.8555         2.03506 
        2.04216         11.8185         1.99512 
        2.05781         11.6322          1.9565 
        2.07353         11.5034         1.91875 
        2.08928         11.3891          1.8819 
        2.10499         11.1822         1.84611 
        2.12065         11.1196         1.81135 
        2.13633         11.0248         1.77744 
        2.15211         10.8437         1.74418 
        2.16785          10.846         1.71185 
        2.18349         10.6812         1.68053 
        2.19916         10.5608         1.64993 
        2.21489          10.411         1.61997 
        2.23063         10.3338         1.59074 
         2.2463         10.2649         1.56235 
        2.26194         10.0925         1.53471 
        2.27765         10.0154          1.5076 
        2.29341         9.89942         1.48106 
        2.30914         9.78492         1.45521 
        2.32486         9.75301         1.42999 
        2.34061           9.631         1.40531 
        2.35635         9.50307         1.38124 
        2.37203          9.4241          1.3578 
        2.38768         9.33737         1.33496 
        2.40339         9.28901         1.31255 
        2.41914         9.20972         1.29059 
        2.43483         9.09414         1.26921 
         2.4505         8.97305         1.24835 
        2.46622         8.90947         1.22788 
        2.48195         8.84178         1.20786 
        2.49759         8.73439         1.18839 
        2.51328         8.64655          1.1693 
        2.52906         8.57797          1.1505 
        2.54479         8.50793         1.13217 
        2.56049         8.42815         1.11428 
        2.57618         8.36586         1.09679 
        2.59189         8.25502         1.07964 
        2.60758         8.16865         1.06288 
        2.62325         8.11761          1.0465 
        2.63898         8.06331          1.0304 
        2.65468         7.99836         1.01466 
        2.67044         7.92223        0.999189 
        2.68618         7.80401         0.98407 
        2.70184         7.78493         0.96932 
        2.71755         7.69212        0.954833 
        2.73329          7.6345        0.940617 
        2.74897         7.57872        0.926733 
        2.76462         7.49085        0.913158 
        2.78034         7.43496        0.899795 
        2.79607         7.36007        0.886683 
        2.81179         7.32302        0.873844 
        2.82749         7.24166        0.861272 
        2.84321         7.19381         0.84893 
        2.85893         7.11545        0.836831 
        2.87462         7.07036        0.824986 
        2.89033          6.9826        0.813357 
        2.90605         6.93476         0.80194 
        2.92176         6.89333        0.790745 
        2.93747         6.83273        0.779768 
        2.95318         6.79232        0.768994 
        2.96891         6.71474        0.758417 
        2.98456         6.65239        0.748083 
        3.00023         6.60279        0.737925 
        3.01596         6.55835        0.727922 
        3.03164         6.49443        0.718131 
        3.04738         6.43592         0.70849 
         3.0631         6.37764        0.699026 
        3.07883         6.32141        0.689734 
        3.09456         6.26022         0.68061 
        3.11026         6.19717        0.671663 
        3.12596         6.17137        0.662877 
        3.14163         6.11437        0.654266 
        3.15734         6.06374        0.645786 
        3.17308         6.03098        0.637435 
        3.18879         5.97198        0.629252 
        3.20447         5.92814        0.621224 
         3.2202         5.88781        0.613309 
         3.2359         5.82223        0.605545 
        3.25157         5.79636        0.597932 
        3.26729         5.73054        0.590426 
        3.28304         5.70139        0.583032 
        3.29877         5.65868        0.575773 
        3.31446         5.60569        0.568653 
        3.33014         5.55593        0.561657 
        3.34585         5.51185        0.554768 
        3.36158         5.47005        0.547982 
        3.37727         5.41966         0.54133 
        3.39294         5.38506        0.534793 
        3.40867         5.35512         0.52834 
        3.42439         5.31781        0.521995 
        3.44008         5.25332        0.515766 
        3.45578          5.2323        0.509633 
        3.47153          5.1915        0.503585 
        3.48724         5.13449        0.497644 
        3.50292         5.09312        0.491813 
        3.51859         5.06289        0.486076 
        3.53431          5.0269        0.480412 
        3.55007         4.97231        0.474824 
        3.56577          4.9379        0.469345 
        3.58146         4.91203        0.463955 
        3.59719         4.86175        0.458635 
        3.61292         4.84483          0.4534 
        3.62859         4.79682        0.448266 
        3.64429         4.76288          0.4432 
        3.66003         4.72637        0.438196 
        3.67578         4.71427        0.433271 
        3.69146         4.65429        0.428439 
        3.70712         4.63202        0.423689 
        3.72284         4.59476        0.418992 
        3.73853         4.56269        0.414374 
        3.75422         4.54426        0.409823 
        3.76993         4.49934        0.405335 
        3.78564         4.47026        0.400916 
        3.80137         4.41554        0.396555 
        3.81707         4.39459        0.392267 
        3.83279         4.35286        0.388039 
        3.84853         4.32458        0.383865 
        3.86424         4.29531         0.37976 
        3.87992         4.26511        0.375721 
        3.89561         4.23282        0.371739 
        3.91134         4.20239        0.367807 
        3.92704          4.1859        0.363935 
        3.94273         4.14597        0.360122 
        3.95845         4.11524        0.356357 
        3.97418          4.0886        0.352643 
        3.98988         4.05693        0.348987 
        4.00554         4.03305        0.345393 
        4.02125         4.00083        0.341838 
        4.03698         3.96507        0.338327 
        4.05268         3.93958        0.334873 
        4.06839         3.89639        0.331464 
         4.0841         3.88682        0.328102 
        4.09983         3.85251        0.324783 
        4.11555         3.82073         0.32151 
        4.13124         3.79285        0.318291 
        4.14693         3.76677        0.315112 
        4.16266         3.74071        0.311969 
        4.17839         3.72143        0.308871 
        4.19408         3.68992        0.305821 
        4.20977         3.66207         0.30281 
        4.22551         3.63824        0.299832 
        4.24123         3.60749        0.296897 
        4.25691         3.57427        0.294009 
        4.27259         3.55649        0.291158 
        4.28831          3.5315        0.288339 
        4.30404         3.50689        0.285554 
        4.31974          3.4799        0.282811 
        4.33543         3.44276        0.280105 
        4.35116         3.42403        0.277428 
        4.36688          3.4091        0.274787 
        4.38255         3.39428        0.272189 
        4.39825         3.36632        0.269619 
        4.41398         3.32666        0.267077 
         4.4297         3.31567         0.26457 
        4.44541         3.30112        0.262095 
        4.46111         3.26988        0.259653 
        4.47683         3.24471        0.257241 
        4.49251          3.2322        0.254863 
        4.50819         3.21078        0.252516 
         4.5239         3.18466        0.250195 
        4.53962         3.16417          0.2479 
        4.55535         3.13909        0.245632 
        4.57106         3.12676        0.243395 
        4.58678          3.1034        0.241186 
         4.6025          3.0877        0.239003 
        4.61821         3.05773        0.236847 
        4.63391         3.04444         0.23472 
         4.6496         3.02034         0.23262 
        4.66532         2.99847        0.230542 
        4.68103         2.98127         0.22849 
        4.69673         2.95806        0.226465 
        4.71241         2.94478        0.224466 
        4.72811         2.92073        0.222488 
        4.74384          2.9008         0.22053 
        4.75955         2.88491        0.218599 
        4.77525         2.86701        0.216692 
        4.79096         2.85523        0.214805 
        4.80669         2.83547         0.21294 
         4.8224         2.81415        0.211098 
        4.83809         2.79561         0.20928 
        4.85379         2.77555        0.207482 
         4.8695         2.75355        0.205703 
        4.88521         2.75077        0.203946 
        4.90093         2.72445        0.202209 
        4.91663         2.71198        0.200493 
        4.93234         2.68909        0.198796 
        4.94807         2.67684        0.197116 
        4.96377         2.66241        0.195459 
        4.97943         2.64378        0.193824 
        4.99514         2.63347        0.192204 
        5.01086         2.61245          0.1906 
        5.02654          2.5995        0.189019 
        5.04227         2.58521        0.187451 
          5.058         2.56364          0.1859 
        5.07371         2.54653        0.184369 
        5.08942         2.53706        0.182855 
        5.10513         2.52312        0.181357 
        5.12084         2.50608        0.179876 
        5.13656         2.49227        0.178411 
        5.15225         2.48077        0.176965 
        5.16796         2.45978        0.175532 
        5.18369         2.44393        0.174113 
         5.1994         2.44165        0.172713 
        5.21509         2.42032        0.171329 
        5.23079         2.40241        0.169959 
        5.24649         2.38805        0.168604 
        5.26217         2.38019        0.167265 
        5.27788         2.36225        0.165939 
        5.29359         2.34809        0.164626 
        5.30933         2.33778        0.163326 
        5.32504         2.32448        0.162042 
        5.34073         2.31798        0.160772 
        5.35646         2.29719        0.159514 
        5.37218         2.28278        0.158269 
        5.38789         2.27165        0.157039 
        5.40357         2.25704        0.155823 
        5.41929         2.24974        0.154617 
        5.43502         2.23184        0.153424 
         5.4507         2.21778        0.152246 
        5.46639         2.20988         0.15108 
        5.48212         2.20082        0.149924 
        5.49786         2.18429        0.148778 
        5.51353         2.17166        0.147649 
        5.52921         2.15778        0.146531 
        5.54495         2.14591        0.145422 
        5.56066         2.13571        0.144324 
        5.57637          2.1223        0.143238 
        5.59207         2.11217        0.142164 
        5.60778          2.1007        0.141101 
        5.62346         2.09041         0.14005 
        5.63916         2.07751        0.139008 
        5.65487         2.06665        0.137977 
         5.6706         2.05673        0.136954 
        5.68633          2.0456        0.135942 
        5.70203         2.03469        0.134941 
        5.71773         2.02286        0.133951 
        5.73344         2.01301         0.13297 
        5.74916         2.00157        0.131998 
        5.76486          1.9902        0.131037 
        5.78054         1.97847        0.130086 
        5.79626         1.97211        0.129143 
          5.812         1.96015        0.128207 
         5.8277         1.95122        0.127284 
        5.84339         1.94195         0.12637 
        5.85911         1.93059        0.125462 
        5.87484         1.91913        0.124564 
        5.89053         1.91096        0.123676 
        5.90623         1.90356        0.122796 
        5.92195         1.89136        0.121924 
        5.93767         1.88669         0.12106 
        5.95336         1.87001        0.120206 
        5.96905         1.86588         0.11936 
        5.98476         1.85902        0.118521 
        6.00048         1.84739         0.11769 
        6.01617         1.83603        0.116868 
        6.03185          1.8257        0.116054 
        6.04756         1.82196        0.115247 
        6.06331         1.80998        0.114445 
        6.07903         1.80152        0.113652 
        6.09473         1.79285        0.112868 
        6.11044         1.78194         0.11209 
        6.12616         1.77615         0.11132 
        6.14186         1.76804        0.110557 
        6.15755         1.75731        0.109802 
        6.17326         1.74639        0.109053 
        6.18898         1.74035         0.10831 
        6.20467         1.73306        0.107576 
        6.22036         1.72041        0.106848 
         6.2361         1.71841        0.106126 
         6.2518         1.70829        0.105411 
        6.26748         1.70141        0.104704 
        6.28319         1.69518        0.104001 
        6.29893          1.6835        0.103304 
        6.31463         1.68041        0.102615 
        6.33033         1.67164        0.101933 
        6.34604         1.66489        0.101255 
        6.36177         1.65329        0.100584 
        6.37747         1.64822       0.0999193 
