# k  (h/Mpc)    Pcb(k)  (Mpc/h)^3    Pcb_linear(k) (Mpc/h)^3   ShotnoiseSubtracted = true
      0.0200456         12847.8         12998.2 
      0.0350414          7930.3         7619.48 
      0.0492313         4923.86         4923.61 
      0.0637834         3879.41         3979.72 
      0.0800726         2907.91         3000.05 
       0.096163         2109.03         1978.43 
       0.111083         1647.18         1525.94 
       0.126058         1384.61         1371.15 
       0.142273         1159.37          1124.3 
       0.158546         906.189           834.3 
        0.17375         776.061         694.054 
       0.188953         719.756         635.563 
       0.204907         601.642         551.183 
       0.220756         526.426          448.37 
        0.23588         461.584         385.745 
         0.2514         409.088         352.318 
       0.267535         391.138         315.007 
       0.283568         335.553          271.07 
       0.299022         315.787         238.949 
       0.314451         312.596          218.47 
       0.330372         265.823         198.909 
       0.346141         243.639         177.819 
       0.361624         229.174         160.074 
       0.377134         211.407         146.872 
       0.392932         202.295         135.165 
       0.408854          191.84         123.384 
       0.424564           182.6         112.817 
       0.440253         164.277         104.134 
       0.455999         153.591         96.5731 
       0.471626         151.661         89.4599 
        0.48727         143.066         82.8696 
       0.502856         130.216         77.1172 
       0.518488         129.278         72.0053 
       0.534347         119.798         67.2253 
       0.550082         115.955          62.818 
       0.565732         114.283         58.8551 
       0.581496         104.911         55.2469 
       0.597222         102.069         51.9434 
       0.612804         97.4942         48.9043 
       0.628434         95.1682         46.0969 
       0.644267         89.5158         43.4911 
       0.660051         87.5315         41.0939 
       0.675724         85.1516         38.8883 
       0.691403          83.073         36.8407 
       0.707174         79.4849         34.9273 
       0.722871         77.7399         33.1556 
        0.73838         76.1781         31.5241 
       0.754018         71.3887         29.9889 
       0.769845         70.9374         28.5381 
        0.78569         68.5228         27.1809 
       0.801365          65.761         25.9245 
       0.817031         63.9159         24.7477 
       0.832809         62.4779          23.636 
       0.848511          60.879          22.597 
       0.864097          59.492         21.6271 
       0.879701         58.2331         20.7128 
       0.895507         56.1533         19.8401 
       0.911279         54.5513         19.0192 
        0.92691          53.527         18.2511 
       0.942635         51.8475         17.5209 
       0.958396         51.7835         16.8288 
       0.974128         50.5089          16.175 
       0.989692          48.928         15.5621 
        1.00528          47.975         14.9799 
        1.02113          46.749          14.418 
        1.03692         46.4741         13.8868 
        1.05264         45.6573         13.3846 
        1.06832         44.2409         12.9078 
        1.08405         43.4205         12.4528 
        1.09979         42.7865         12.0193 
        1.11537         41.7859         11.6105 
        1.13105          40.804         11.2182 
        1.14679         40.3272         10.8423 
        1.16256         39.5104         10.4828 
        1.17828         39.0821         10.1406 
        1.19395         38.2661         9.81475 
         1.2097         37.7153         9.50143 
        1.22537         36.8151         9.20318 
          1.241         36.7737         8.91852 
        1.25666          35.387          8.6451 
        1.27241         35.2484         8.38176 
        1.28819         34.7095         8.12886 
        1.30392          33.903         7.88704 
        1.31957         33.7225         7.65604 
        1.33529         33.1603         7.43337 
        1.35108         32.7311         7.21861 
        1.36674         31.9898         7.01378 
         1.3824         31.4221         6.81702 
        1.39811         30.8795         6.62709 
        1.41389         30.5214         6.44361 
        1.42964         30.2396         6.26733 
        1.44531         29.7001         6.09844 
        1.46101         29.3797         5.93536 
        1.47667         28.9871         5.77867 
        1.49229         28.3126         5.62801 
        1.50793         28.0433          5.4825 
        1.52367         27.9547         5.34116 
        1.53953         27.4475         5.20381 
        1.55526         26.8174         5.07234 
        1.57092         26.6674         4.94591 
        1.58662         26.3642         4.82345 
        1.60235         25.9832         4.70486 
        1.61809         25.6101         4.59016 
        1.63369         25.1894         4.48027 
        1.64941         24.8214         4.37316 
        1.66519         24.5626         4.26913 
        1.68085         24.1476         4.16919 
        1.69652         23.9192          4.0724 
        1.71228         23.6597         3.97809 
        1.72806         23.4556         3.88668 
        1.74368         23.0224         3.79902 
        1.75933         22.9165         3.71387 
        1.77505         22.4102          3.6309 
        1.79081         22.2891          3.5503 
         1.8065         22.1357         3.47246 
        1.82218          21.648         3.39701 
        1.83797         21.3573         3.32326 
        1.85367         21.2224         3.25209 
        1.86928         21.0485          3.1834 
        1.88497         20.7068         3.11631 
        1.90073         20.6227         3.05089 
        1.91647         20.3812         2.98738 
        1.93218         20.1176          2.9258 
        1.94787         19.9276         2.86603 
        1.96363         19.6156         2.80767 
        1.97935         19.3933         2.75104 
        1.99499         19.2737         2.69628 
        2.01064         18.9405         2.64292 
         2.0264         18.7971         2.59065 
        2.04216         18.6787         2.53981 
        2.05781         18.4388         2.49064 
        2.07353         18.2006         2.44258 
        2.08928         18.1153         2.39567 
        2.10499         17.8171         2.35011 
        2.12065         17.6086         2.30586 
        2.13633         17.4944          2.2627 
        2.15211         17.2584         2.22035 
        2.16785         17.0647          2.1792 
        2.18349           16.93         2.13933 
        2.19916         16.7857         2.10037 
        2.21489         16.6161         2.06224 
        2.23063         16.4017         2.02502 
         2.2463         16.3041         1.98888 
        2.26194         16.0702          1.9537 
        2.27765          15.886         1.91919 
        2.29341         15.7072         1.88541 
        2.30914         15.5574          1.8525 
        2.32486         15.4774         1.82039 
        2.34061         15.2795         1.78898 
        2.35635         15.0293         1.75833 
        2.37203         14.9832          1.7285 
        2.38768          14.848         1.69941 
        2.40339         14.6507         1.67088 
        2.41914         14.5797         1.64294 
        2.43483         14.3845         1.61572 
         2.4505         14.2823         1.58916 
        2.46622         14.1095          1.5631 
        2.48195         13.9592         1.53762 
        2.49759         13.8271         1.51283 
        2.51328         13.6751         1.48853 
        2.52906         13.5343         1.46459 
        2.54479         13.4558         1.44127 
        2.56049         13.3024         1.41849 
        2.57618         13.1943         1.39622 
        2.59189         13.0504         1.37439 
        2.60758          12.914         1.35306 
        2.62325         12.7683          1.3322 
        2.63898         12.7132          1.3117 
        2.65468         12.6092         1.29168 
        2.67044         12.4576         1.27198 
        2.68618         12.2681         1.25273 
        2.70184         12.2043         1.23395 
        2.71755         12.0247         1.21551 
        2.73329         11.9626         1.19741 
        2.74897         11.8652         1.17974 
        2.76462         11.7422         1.16246 
        2.78034         11.6535         1.14545 
        2.79607         11.5395         1.12876 
        2.81179         11.4399         1.11241 
        2.82749         11.2843         1.09641 
        2.84321         11.2203          1.0807 
        2.85893          11.117         1.06529 
        2.87462          11.006         1.05022 
        2.89033         10.8882         1.03541 
        2.90605          10.803         1.02088 
        2.92176          10.703         1.00663 
        2.93747         10.6245        0.992652 
        2.95318         10.5498        0.978937 
        2.96891         10.4313        0.965472 
        2.98456         10.3376        0.952317 
        3.00023         10.2602        0.939386 
        3.01596         10.1366        0.926652 
        3.03164         10.0811        0.914188 
        3.04738         9.99967        0.901914 
         3.0631         9.92368        0.889867 
        3.07883         9.80087        0.878038 
        3.09456          9.7287        0.866423 
        3.11026         9.64573        0.855034 
        3.12596         9.55265        0.843848 
        3.14163         9.44576        0.832887 
        3.15734         9.39977        0.822092 
        3.17308         9.30422        0.811461 
        3.18879         9.23183        0.801044 
        3.20447         9.15676        0.790824 
         3.2202         9.05211        0.780749 
         3.2359         9.01995        0.770864 
        3.25157         8.91153        0.761173 
        3.26729         8.85533        0.751617 
        3.28304         8.76683        0.742205 
        3.29877         8.72166        0.732965 
        3.31446          8.6235          0.7239 
        3.33014         8.54326        0.714995 
        3.34585         8.52419        0.706225 
        3.36158         8.44303        0.697587 
        3.37727         8.37211        0.689118 
        3.39294         8.27269        0.680797 
        3.40867         8.24093        0.672582 
        3.42439         8.14664        0.664505 
        3.44008         8.07508        0.656575 
        3.45578         8.00995        0.648768 
        3.47153         7.95181        0.641068 
        3.48724          7.8932        0.633506 
        3.50292         7.81905        0.626082 
        3.51859         7.73765        0.618779 
        3.53431         7.69284        0.611569 
        3.55007         7.61332        0.604455 
        3.56577         7.54463        0.597481 
        3.58146         7.48762        0.590619 
        3.59719         7.44096        0.583847 
        3.61292         7.38589        0.577183 
        3.62859         7.29398        0.570647 
        3.64429         7.29001        0.564198 
        3.66003         7.16467        0.557828 
        3.67578         7.15154        0.551558 
        3.69146          7.0845        0.545407 
        3.70712         7.01325         0.53936 
        3.72284         6.96257        0.533381 
        3.73853         6.90105        0.527502 
        3.75422         6.85097        0.521708 
        3.76993          6.7926        0.515996 
        3.78564         6.75071         0.51037 
        3.80137         6.68453        0.504819 
        3.81707         6.63068         0.49936 
        3.83279         6.58749        0.493977 
        3.84853         6.51932        0.488664 
        3.86424         6.46632        0.483439 
        3.87992         6.41587        0.478296 
        3.89561          6.3722        0.473228 
        3.91134         6.32485        0.468222 
        3.92704         6.27036        0.463293 
        3.94273          6.2347        0.458439 
        3.95845         6.16555        0.453645 
        3.97418         6.13835        0.448918 
        3.98988         6.08148        0.444264 
        4.00554         6.02777        0.439688 
        4.02125         6.00356        0.435163 
        4.03698          5.9156        0.430693 
        4.05268         5.91491        0.426296 
        4.06839         5.84492        0.421956 
         4.0841         5.80686        0.417678 
        4.09983         5.76262        0.413452 
        4.11555         5.72292        0.409285 
        4.13124         5.66378        0.405187 
        4.14693         5.62537        0.401141 
        4.16266         5.56374         0.39714 
        4.17839         5.53939        0.393195 
        4.19408          5.4969        0.389313 
        4.20977         5.44452         0.38548 
        4.22551         5.40971         0.38169 
        4.24123         5.36481        0.377953 
        4.25691         5.32869        0.374277 
        4.27259         5.28739        0.370647 
        4.28831         5.23206        0.367058 
        4.30404         5.20596        0.363512 
        4.31974         5.14803        0.360021 
        4.33543         5.12525        0.356577 
        4.35116         5.07973        0.353169 
        4.36688         5.04506        0.349806 
        4.38255         4.99335          0.3465 
        4.39825         4.96471        0.343228 
        4.41398         4.93217        0.339992 
         4.4297         4.89032          0.3368 
        4.44541         4.84933         0.33365 
        4.46111         4.82512        0.330541 
        4.47683         4.78041         0.32747 
        4.49251         4.75223        0.324443 
        4.50819         4.71532        0.321455 
         4.5239         4.67699        0.318501 
        4.53962         4.63419        0.315579 
        4.55535         4.61993        0.312692 
        4.57106         4.58444        0.309844 
        4.58678         4.54536        0.307032 
         4.6025         4.50774        0.304253 
        4.61821         4.47008        0.301508 
        4.63391         4.44625        0.298801 
         4.6496         4.42208        0.296127 
        4.66532         4.38569        0.293482 
        4.68103         4.35507         0.29087 
        4.69673         4.32165        0.288292 
        4.71241         4.29305        0.285747 
        4.72811         4.26177        0.283229 
        4.74384         4.22902        0.280737 
        4.75955         4.20951        0.278279 
        4.77525          4.1708        0.275851 
        4.79096         4.14705        0.273449 
        4.80669         4.12248        0.271074 
         4.8224         4.08882         0.26873 
        4.83809         4.05906        0.266415 
        4.85379         4.02978        0.264127 
         4.8695         4.00332        0.261862 
        4.88521          3.9725        0.259625 
        4.90093         3.94595        0.257414 
        4.91663          3.9154         0.25523 
        4.93234         3.88834        0.253069 
        4.94807         3.86442        0.250931 
        4.96377         3.83405        0.248821 
        4.97943         3.81002         0.24674 
        4.99514         3.78596        0.244677 
        5.01086         3.75718        0.242636 
        5.02654         3.73464        0.240623 
        5.04227         3.71634        0.238627 
          5.058         3.68302        0.236652 
        5.07371          3.6515        0.234703 
        5.08942          3.6359        0.232776 
        5.10513         3.60017         0.23087 
        5.12084         3.58263        0.228984 
        5.13656         3.56164        0.227119 
        5.15225         3.53745        0.225278 
        5.16796         3.51783        0.223454 
        5.18369         3.48887        0.221648 
         5.1994         3.47517        0.219866 
        5.21509         3.44216        0.218104 
        5.23079         3.42262        0.216359 
        5.24649         3.40066        0.214635 
        5.26217          3.3785        0.212931 
        5.27788         3.35812        0.211242 
        5.29359         3.32955        0.209571 
        5.30933         3.31707        0.207916 
        5.32504         3.28737        0.206281 
        5.34073         3.27529        0.204665 
        5.35646         3.24654        0.203063 
        5.37218         3.23053        0.201478 
        5.38789         3.20761        0.199912 
        5.40357         3.18481        0.198364 
        5.41929         3.17343        0.196829 
        5.43502         3.14417         0.19531 
         5.4507         3.12862        0.193811 
        5.46639         3.10044        0.192327 
        5.48212         3.08892        0.190854 
        5.49786         3.06633        0.189395 
        5.51353          3.0463        0.187959 
        5.52921         3.03034        0.186536 
        5.54495         3.01271        0.185123 
        5.56066         2.99281        0.183726 
        5.57637         2.97909        0.182344 
        5.59207         2.95148        0.180977 
        5.60778         2.94109        0.179623 
        5.62346         2.91962        0.178285 
        5.63916         2.90286        0.176959 
        5.65487         2.88566        0.175646 
         5.6706         2.86455        0.174344 
        5.68633         2.84399        0.173055 
        5.70203         2.83004        0.171781 
        5.71773         2.81237        0.170521 
        5.73344         2.79924        0.169272 
        5.74916          2.7792        0.168034 
        5.76486         2.76343        0.166811 
        5.78054         2.74272        0.165601 
        5.79626         2.73023          0.1644 
          5.812         2.71512        0.163209 
         5.8277         2.69028        0.162034 
        5.84339         2.68781         0.16087 
        5.85911         2.66573        0.159715 
        5.87484         2.64057        0.158571 
        5.89053         2.63839        0.157441 
        5.90623         2.61726        0.156321 
        5.92195         2.60437         0.15521 
        5.93767         2.58797         0.15411 
        5.95336         2.57256        0.153023 
        5.96905         2.56015        0.151946 
        5.98476         2.53958        0.150878 
        6.00048         2.52443         0.14982 
        6.01617         2.51253        0.148774 
        6.03185         2.49509        0.147738 
        6.04756         2.48389         0.14671 
        6.06331         2.47606        0.145689 
        6.07903         2.45317         0.14468 
        6.09473         2.43939        0.143682 
        6.11044         2.43023        0.142692 
        6.12616         2.41792        0.141711 
        6.14186         2.40264         0.14074 
        6.15755         2.38653        0.139778 
        6.17326         2.37404        0.138825 
        6.18898         2.36428         0.13788 
        6.20467         2.34857        0.136945 
        6.22036         2.33819        0.136019 
         6.2361         2.32705        0.135099 
         6.2518         2.30677        0.134189 
        6.26748         2.29971        0.133289 
        6.28319           2.288        0.132394 
        6.29893         2.27197        0.131508 
        6.31463         2.26652         0.13063 
        6.33033         2.25079        0.129761 
        6.34604         2.23814        0.128899 
        6.36177         2.22467        0.128044 
        6.37747          2.2118        0.127198 
