# k  (h/Mpc)    Pcb(k)  (Mpc/h)^3    Pcb_linear(k) (Mpc/h)^3   ShotnoiseSubtracted = true
      0.0200456         2139.56         2161.08 
      0.0350414         1297.94         1266.81 
      0.0492313         823.325         818.599 
      0.0637834         654.201         661.668 
      0.0800726         491.369         498.787 
       0.096163         338.247         328.934 
       0.111083         261.715         253.703 
       0.126058          226.81         227.967 
       0.142273         186.033         186.927 
       0.158546         141.508         138.711 
        0.17375         119.015         115.393 
       0.188953         107.934         105.669 
       0.204907         90.9256         91.6396 
       0.220756         76.7677         74.5459 
        0.23588         66.1849         64.1339 
         0.2514         59.9479         58.5763 
       0.267535         54.4077          52.373 
       0.283568         46.8117          45.068 
       0.299022         41.9688         39.7277 
       0.314451         39.1609         36.3228 
       0.330372          34.914         33.0705 
       0.346141         31.3857         29.5641 
       0.361624         28.3775         26.6139 
       0.377134         25.8623         24.4189 
       0.392932         24.6044         22.4725 
       0.408854         22.1662         20.5138 
       0.424564         20.8867         18.7569 
       0.440253         18.9465         17.3133 
       0.455999         17.1834         16.0562 
       0.471626         16.0958         14.8736 
        0.48727         15.3939         13.7779 
       0.502856         14.3671         12.8215 
       0.518488         13.1935         11.9716 
       0.534347         12.2891         11.1769 
       0.550082          11.718         10.4441 
       0.565732         11.1525         9.78525 
       0.581496         10.4085         9.18534 
       0.597222         9.78012         8.63611 
       0.612804         9.15914         8.13082 
       0.628434         8.88317         7.66407 
       0.644267         8.36164         7.23083 
       0.660051         7.86944         6.83227 
       0.675724         7.42798         6.46557 
       0.691403         7.16775         6.12514 
       0.707174         6.77787           5.807 
       0.722871         6.56178         5.51244 
        0.73838         6.14446         5.24119 
       0.754018         5.79045         4.98594 
       0.769845         5.55552         4.74473 
        0.78569         5.39089         4.51909 
       0.801365         5.12479          4.3102 
       0.817031          4.9069         4.11455 
       0.832809         4.67871         3.92971 
       0.848511         4.51428         3.75697 
       0.864097         4.33487         3.59572 
       0.879701         4.21441          3.4437 
       0.895507         4.02636         3.29862 
       0.911279         3.84785         3.16213 
        0.92691         3.72919         3.03443 
       0.942635         3.56808         2.91303 
       0.958396         3.45619         2.79796 
       0.974128         3.34541         2.68926 
       0.989692         3.16903         2.58736 
        1.00528         3.10737         2.49055 
        1.02113         2.99267         2.39714 
        1.03692         2.91488         2.30882 
        1.05264         2.79631         2.22533 
        1.06832         2.71522         2.14606 
        1.08405         2.62348         2.07041 
        1.09979         2.54484         1.99833 
        1.11537         2.46212         1.93037 
        1.13105         2.38208         1.86513 
        1.14679         2.31448         1.80264 
        1.16256         2.23877         1.74287 
        1.17828         2.19799         1.68598 
        1.19395         2.11075          1.6318 
         1.2097         2.04046         1.57971 
        1.22537         1.97764         1.53012 
          1.241         1.92434         1.48279 
        1.25666         1.89652         1.43733 
        1.27241         1.84681         1.39355 
        1.28819         1.76312          1.3515 
        1.30392         1.72141          1.3113 
        1.31957         1.68509         1.27289 
        1.33529         1.62038         1.23587 
        1.35108         1.59009         1.20016 
        1.36674         1.54105         1.16611 
         1.3824         1.51833          1.1334 
        1.39811         1.47648         1.10182 
        1.41389         1.43078         1.07131 
        1.42964         1.39576         1.04201 
        1.44531         1.36327         1.01393 
        1.46101         1.34073        0.986812 
        1.47667         1.30431        0.960761 
        1.49229         1.25911        0.935713 
        1.50793         1.22314        0.911521 
        1.52367          1.1993        0.888021 
        1.53953         1.16647        0.865184 
        1.55526         1.16191        0.843326 
        1.57092         1.12747        0.822306 
        1.58662         1.11125        0.801946 
        1.60235         1.07483        0.782229 
        1.61809         1.05111         0.76316 
        1.63369         1.02541        0.744889 
        1.64941         1.00516        0.727081 
        1.66519         0.99092        0.709785 
        1.68085        0.962557         0.69317 
        1.69652        0.942582        0.677076 
        1.71228        0.922996        0.661397 
        1.72806         0.90655        0.646198 
        1.74368         0.88465        0.631625 
        1.75933         0.86975        0.617467 
        1.77505        0.851941        0.603673 
        1.79081        0.828366        0.590272 
         1.8065        0.817846        0.577332 
        1.82218        0.794767        0.564787 
        1.83797        0.780588        0.552525 
        1.85367        0.766794        0.540692 
        1.86928        0.750597        0.529272 
        1.88497         0.73544        0.518117 
        1.90073        0.725824         0.50724 
        1.91647        0.707482        0.496681 
        1.93218        0.694258        0.486443 
        1.94787        0.685381        0.476505 
        1.96363        0.671344        0.466803 
        1.97935        0.658526        0.457388 
        1.99499        0.645272        0.448284 
        2.01064        0.634389        0.439412 
         2.0264        0.620768        0.430722 
        2.04216        0.611718        0.422268 
        2.05781        0.599481        0.414093 
        2.07353        0.591382        0.406103 
        2.08928        0.580374        0.398305 
        2.10499        0.567487        0.390729 
        2.12065        0.560039        0.383372 
        2.13633        0.550782        0.376196 
        2.15211        0.536098        0.369156 
        2.16785        0.530586        0.362313 
        2.18349        0.520512        0.355685 
        2.19916        0.514201        0.349207 
        2.21489        0.506929        0.342868 
        2.23063        0.494705         0.33668 
         2.2463        0.486318        0.330671 
        2.26194        0.480413        0.324822 
        2.27765        0.470388        0.319084 
        2.29341        0.464286        0.313467 
        2.30914        0.455812        0.307996 
        2.32486        0.449681        0.302658 
        2.34061        0.441173        0.297435 
        2.35635        0.434238         0.29234 
        2.37203        0.428197         0.28738 
        2.38768         0.42095        0.282544 
        2.40339        0.414799        0.277801 
        2.41914        0.409452        0.273155 
        2.43483        0.403492         0.26863 
         2.4505        0.396213        0.264214 
        2.46622         0.39101        0.259881 
        2.48195        0.385179        0.255644 
        2.49759        0.378007        0.251524 
        2.51328        0.371727        0.247482 
        2.52906        0.368079        0.243503 
        2.54479        0.360887        0.239625 
        2.56049        0.357221        0.235838 
        2.57618        0.352273        0.232136 
        2.59189        0.346553        0.228507 
        2.60758        0.341397         0.22496 
        2.62325        0.337382        0.221492 
        2.63898        0.332334        0.218084 
        2.65468         0.32552        0.214754 
        2.67044        0.322903        0.211479 
        2.68618        0.319268        0.208279 
        2.70184        0.314996        0.205157 
        2.71755        0.310111        0.202091 
        2.73329         0.30481        0.199082 
        2.74897        0.301039        0.196143 
        2.76462        0.296945         0.19327 
        2.78034        0.293252        0.190442 
        2.79607        0.288985        0.187667 
        2.81179        0.285504         0.18495 
        2.82749        0.281456        0.182289 
        2.84321        0.276252        0.179676 
        2.85893        0.273718        0.177116 
        2.87462        0.270802        0.174609 
        2.89033        0.267329        0.172147 
        2.90605         0.26426        0.169731 
        2.92176        0.261409        0.167362 
        2.93747        0.257248        0.165038 
        2.95318        0.254302        0.162758 
        2.96891        0.252618        0.160519 
        2.98456        0.247631        0.158332 
        3.00023        0.245579        0.156182 
        3.01596        0.241924        0.154065 
        3.03164        0.239407        0.151993 
        3.04738         0.23634        0.149952 
         3.0631        0.233334        0.147949 
        3.07883        0.230291        0.145982 
        3.09456         0.22811        0.144051 
        3.11026        0.225586        0.142158 
        3.12596        0.223169        0.140298 
        3.14163          0.2213        0.138476 
        3.15734        0.217737        0.136681 
        3.17308        0.215775        0.134913 
        3.18879        0.213252        0.133182 
        3.20447        0.211184        0.131482 
         3.2202        0.207388        0.129807 
         3.2359        0.205996        0.128164 
        3.25157        0.202801        0.126553 
        3.26729        0.201716        0.124964 
        3.28304        0.199744        0.123399 
        3.29877        0.197634        0.121863 
        3.31446        0.195936        0.120356 
        3.33014        0.193203        0.118875 
        3.34585        0.191547        0.117417 
        3.36158        0.189327        0.115981 
        3.37727         0.18794        0.114573 
        3.39294         0.18528        0.113189 
        3.40867         0.18378        0.111823 
        3.42439        0.182246        0.110481 
        3.44008        0.180345        0.109162 
        3.45578        0.178992        0.107864 
        3.47153        0.176925        0.106584 
        3.48724        0.175234        0.105327 
        3.50292        0.173441        0.104092 
        3.51859        0.172566        0.102878 
        3.53431        0.170169        0.101679 
        3.55007        0.168692        0.100497 
        3.56577        0.167551       0.0993371 
        3.58146        0.165918       0.0981962 
        3.59719        0.164584       0.0970703 
        3.61292        0.162702       0.0959624 
        3.62859        0.161586       0.0948756 
        3.64429        0.159986       0.0938035 
        3.66003        0.158254       0.0927445 
        3.67578        0.157572        0.091702 
        3.69146        0.156224       0.0906793 
        3.70712        0.154896       0.0896739 
        3.72284        0.153714       0.0886798 
        3.73853        0.151988       0.0877024 
        3.75422         0.15083       0.0867391 
        3.76993          0.1499       0.0857894 
        3.78564        0.148013       0.0848541 
        3.80137        0.147151       0.0839311 
        3.81707        0.145967       0.0830236 
        3.83279        0.144718       0.0821286 
        3.84853        0.143757       0.0812452 
        3.86424        0.142538       0.0803764 
        3.87992        0.141552       0.0795215 
        3.89561        0.140507       0.0786788 
        3.91134        0.138988       0.0778465 
        3.92704        0.137905        0.077027 
        3.94273        0.137104         0.07622 
        3.95845        0.135725        0.075423 
        3.97418         0.13445       0.0746371 
        3.98988        0.133534       0.0738633 
        4.00554        0.131978       0.0731025 
        4.02125         0.13108       0.0723501 
        4.03698        0.129134        0.071607 
        4.05268        0.127972       0.0708759 
        4.06839        0.126825       0.0701544 
         4.0841        0.125048        0.069443 
        4.09983         0.12398       0.0687404 
        4.11555        0.122455       0.0680477 
        4.13124        0.121459       0.0673663 
        4.14693        0.120494       0.0666936 
        4.16266        0.118624       0.0660284 
        4.17839        0.117393       0.0653726 
        4.19408        0.116587       0.0647271 
        4.20977        0.115051       0.0640899 
        4.22551         0.11427       0.0634597 
        4.24123        0.113471       0.0628385 
        4.25691        0.112011       0.0622272 
        4.27259        0.110954       0.0616237 
        4.28831        0.110046        0.061027 
        4.30404        0.109474       0.0604375 
        4.31974         0.10858        0.059857 
        4.33543        0.107585       0.0592844 
        4.35116        0.107064       0.0587178 
        4.36688        0.106333       0.0581588 
        4.38255        0.105455        0.057609 
        4.39825        0.104606       0.0570651 
        4.41398        0.103725        0.056527 
         4.4297        0.103557       0.0559963 
        4.44541        0.102995       0.0554725 
        4.46111        0.102019       0.0549557 
        4.47683        0.101538       0.0544451 
        4.49251        0.101123       0.0539419 
        4.50819        0.100978       0.0534451 
         4.5239        0.100289       0.0529539 
        4.53962       0.0998462       0.0524681 
        4.55535        0.099393       0.0519881 
        4.57106       0.0990814       0.0515147 
        4.58678       0.0986701        0.051047 
         4.6025       0.0984969        0.050585 
        4.61821       0.0981488       0.0501287 
        4.63391       0.0984554       0.0496786 
         4.6496        0.097823       0.0492341 
        4.66532       0.0976287       0.0487943 
        4.68103       0.0972245       0.0483601 
        4.69673       0.0974134       0.0479314 
        4.71241       0.0972994       0.0475083 
        4.72811       0.0972522       0.0470896 
        4.74384       0.0970538       0.0466754 
        4.75955       0.0972714       0.0462667 
        4.77525       0.0973289        0.045863 
        4.79096       0.0971965       0.0454636 
        4.80669       0.0971764       0.0450688 
         4.8224       0.0972153        0.044679 
        4.83809       0.0976153       0.0442942 
        4.85379       0.0978633       0.0439137 
         4.8695       0.0983793       0.0435372 
        4.88521       0.0981826       0.0431653 
        4.90093       0.0983072       0.0427976 
        4.91663       0.0988264       0.0424345 
        4.93234       0.0989418       0.0420752 
        4.94807       0.0993253       0.0417197 
        4.96377       0.0998323        0.041369 
        4.97943        0.100284        0.041023 
        4.99514        0.100766         0.04068 
        5.01086        0.101189       0.0403406 
        5.02654        0.102381        0.040006 
        5.04227        0.102163       0.0396741 
          5.058        0.103018       0.0393457 
        5.07371          0.1038       0.0390217 
        5.08942        0.104493       0.0387013 
        5.10513        0.105302       0.0383844 
        5.12084        0.105479       0.0380708 
        5.13656         0.10692       0.0377607 
        5.15225        0.107467       0.0374546 
        5.16796        0.108544       0.0371514 
        5.18369        0.109379       0.0368512 
         5.1994         0.10997       0.0365548 
        5.21509        0.111193       0.0362619 
        5.23079        0.111831       0.0359719 
        5.24649        0.113484       0.0356852 
        5.26217        0.113796       0.0354018 
        5.27788        0.115235        0.035121 
        5.29359        0.116427       0.0348432 
        5.30933        0.118007        0.034568 
        5.32504         0.11924       0.0342962 
        5.34073        0.120428       0.0340276 
        5.35646        0.121729       0.0337612 
        5.37218        0.122956       0.0334977 
        5.38789        0.124184       0.0332373 
        5.40357        0.125871         0.03298 
        5.41929        0.127476       0.0327248 
        5.43502        0.129084       0.0324723 
         5.4507        0.130642       0.0322229 
        5.46639        0.132198       0.0319762 
        5.48212        0.133635       0.0317314 
        5.49786         0.13582       0.0314889 
        5.51353        0.137516         0.03125 
        5.52921        0.138919       0.0310134 
        5.54495        0.141201       0.0307785 
        5.56066        0.142956       0.0305463 
        5.57637        0.145231       0.0303165 
        5.59207        0.147204       0.0300892 
        5.60778        0.148804       0.0298641 
        5.62346        0.151299       0.0296416 
        5.63916        0.153034       0.0294212 
        5.65487        0.155724       0.0292028 
         5.6706        0.157106       0.0289864 
        5.68633        0.161134       0.0287721 
        5.70203        0.162327       0.0285604 
        5.71773        0.164562       0.0283508 
        5.73344        0.167759       0.0281432 
        5.74916           0.169       0.0279374 
        5.76486        0.172913       0.0277339 
        5.78054        0.175809       0.0275328 
        5.79626        0.176731       0.0273331 
          5.812        0.180627       0.0271351 
         5.8277         0.18269       0.0269397 
        5.84339        0.186037       0.0267462 
        5.85911        0.188777       0.0265541 
        5.87484        0.192772        0.026364 
        5.89053        0.195368       0.0261761 
        5.90623        0.198101       0.0259899 
        5.92195         0.20062       0.0258052 
        5.93767        0.204029       0.0256223 
        5.95336        0.206185       0.0254416 
        5.96905        0.209917       0.0252626 
        5.98476        0.212158        0.025085 
        6.00048        0.215958       0.0249091 
        6.01617        0.219854       0.0247351 
        6.03185         0.22216       0.0245629 
        6.04756        0.225201        0.024392 
        6.06331        0.227821       0.0242223 
        6.07903        0.232737       0.0240545 
        6.09473        0.238102       0.0238885 
        6.11044        0.239894       0.0237239 
        6.12616        0.242255       0.0235608 
        6.14186        0.246819       0.0233994 
        6.15755        0.251124       0.0232396 
        6.17326        0.253029        0.023081 
        6.18898        0.256197       0.0229239 
        6.20467        0.260605       0.0227685 
        6.22036         0.26326       0.0226145 
         6.2361        0.267549       0.0224615 
         6.2518        0.272752       0.0223102 
        6.26748        0.273967       0.0221606 
        6.28319        0.278941       0.0220119 
        6.29893        0.282201       0.0218644 
        6.31463        0.287041       0.0217186 
        6.33033        0.289593       0.0215741 
        6.34604        0.294034       0.0214307 
        6.36177        0.295751       0.0212886 
        6.37747        0.300863        0.021148 
