# k  (h/Mpc)    Pcb(k)  (Mpc/h)^3    Pcb_linear(k) (Mpc/h)^3   ShotnoiseSubtracted = true
      0.0200456         18936.2         19255.6 
      0.0350414         14422.2         13998.2 
      0.0492313          9985.2         10170.8 
      0.0637834         8055.26         8454.91 
      0.0800726         6328.08         6710.45 
       0.096163         5054.94         4869.02 
       0.111083         4116.27         3883.65 
       0.126058          3406.9         3441.71 
       0.142273         2973.36         2915.88 
       0.158546         2441.93         2302.94 
        0.17375         2169.47         1940.22 
       0.188953         2044.46         1756.83 
       0.204907         1756.29         1554.43 
       0.220756         1584.15         1315.15 
        0.23588         1413.51         1144.06 
         0.2514         1274.87         1039.37 
       0.267535          1234.4         940.451 
       0.283568         1093.35         829.351 
       0.299022          1044.1         738.909 
       0.314451         1082.16         675.313 
       0.330372         945.441         619.524 
       0.346141         870.297         562.312 
       0.361624         835.331         511.065 
       0.377134         797.274          470.26 
       0.392932           764.6         435.123 
       0.408854         730.804         401.099 
       0.424564         713.421         369.699 
       0.440253         656.856         342.753 
       0.455999         628.715         319.324 
       0.471626         640.601         297.792 
        0.48727         604.663          277.65 
       0.502856         572.035         259.556 
       0.518488         562.253         243.411 
       0.534347          533.63         228.402 
       0.550082         510.448         214.562 
       0.565732         505.366         201.902 
       0.581496          493.78         190.306 
       0.597222         481.003         179.671 
       0.612804         470.246         169.892 
       0.628434         451.156         160.778 
       0.644267          436.58         152.256 
       0.660051         431.094         144.402 
       0.675724         422.904          137.15 
       0.691403         413.151          130.39 
       0.707174         398.503         124.048 
       0.722871         392.457         118.152 
        0.73838          386.54         112.703 
       0.754018         374.093         107.556 
       0.769845          371.37         102.675 
        0.78569         363.555         98.0925 
       0.801365         351.733         93.8354 
       0.817031         348.992         89.8348 
       0.832809         343.212         86.0432 
       0.848511          336.01         82.4885 
       0.864097         327.744           79.16 
       0.879701         325.849         76.0129 
       0.895507         315.358         73.0005 
       0.911279         309.155         70.1584 
        0.92691         306.653         67.4919 
       0.942635         303.852         64.9499 
       0.958396         294.227         62.5339 
       0.974128         291.485         60.2458 
       0.989692         280.897         58.0953 
        1.00528         280.558          56.047 
        1.02113         276.378         54.0658 
        1.03692         270.714          52.188 
        1.05264         266.303         50.4085 
        1.06832         264.383          48.715 
        1.08405         258.871         47.0952 
        1.09979         255.712         45.5483 
        1.11537         249.931         44.0865 
        1.13105         246.223         42.6804 
        1.14679         243.794         41.3304 
        1.16256         241.317         40.0364 
        1.17828         237.878         38.8023 
        1.19395         231.642         37.6245 
         1.2097         231.613         36.4899 
        1.22537         228.375         35.4076 
          1.241          222.41         34.3727 
        1.25666         220.894         33.3767 
        1.27241         217.063         32.4156 
        1.28819         214.076         31.4909 
        1.30392         211.958         30.6051 
        1.31957         206.403         29.7574 
        1.33529         203.687         28.9388 
        1.35108         202.769         28.1478 
        1.36674         197.746         27.3922 
         1.3824         196.561          26.665 
        1.39811         194.622         25.9619 
        1.41389         189.585         25.2816 
        1.42964         187.609         24.6269 
        1.44531         185.984         23.9986 
        1.46101         182.538         23.3909 
        1.47667          180.88         22.8062 
        1.49229         178.234          22.243 
        1.50793         175.321         21.6983 
        1.52367         173.632         21.1684 
        1.53953         169.714         20.6527 
        1.55526         169.114         20.1583 
        1.57092         167.697         19.6822 
        1.58662         163.333         19.2203 
        1.60235         162.003         18.7724 
        1.61809         159.526         18.3386 
        1.63369         156.999         17.9224 
        1.64941         155.653         17.5162 
        1.66519         153.715         17.1211 
        1.68085         151.067          16.741 
        1.69652         149.343         16.3724 
        1.71228         147.431         16.0128 
        1.72806         146.182         15.6638 
        1.74368         144.244         15.3286 
        1.75933         143.019         15.0027 
        1.77505         140.752         14.6847 
        1.79081         138.056         14.3754 
         1.8065         136.434         14.0763 
        1.82218         134.416          13.786 
        1.83797         133.766         13.5019 
        1.85367         131.994         13.2274 
        1.86928         130.474         12.9622 
        1.88497         128.745         12.7029 
        1.90073         127.647         12.4497 
        1.91647         125.474         12.2036 
        1.93218         124.216         11.9647 
        1.94787         122.168         11.7326 
        1.96363         121.475         11.5057 
        1.97935         119.959         11.2853 
        1.99499         118.968         11.0719 
        2.01064         116.267         10.8638 
         2.0264         115.578         10.6597 
        2.04216          113.67         10.4609 
        2.05781         112.702         10.2685 
        2.07353         111.171         10.0802 
        2.08928         109.812         9.89626 
        2.10499          108.72          9.7174 
        2.12065         107.742         9.54349 
        2.13633         106.812          9.3737 
        2.15211         105.016         9.20695 
        2.16785         103.601         9.04473 
        2.18349         102.206         8.88744 
        2.19916         101.194         8.73356 
        2.21489         100.472         8.58282 
        2.23063         98.6702         8.43553 
         2.2463         97.8682         8.29237 
        2.26194         96.8097          8.1529 
        2.27765         95.4365         8.01591 
        2.29341         94.5775         7.88173 
        2.30914         93.3342         7.75089 
        2.32486         91.7406          7.6231 
        2.34061         91.3084         7.49798 
        2.35635         89.9871         7.37578 
        2.37203         88.6718         7.25673 
        2.38768          87.835         7.14056 
        2.40339         87.3795         7.02651 
        2.41914          85.681         6.91469 
        2.43483         85.0394          6.8057 
         2.4505         84.0103         6.69924 
        2.46622         83.1944          6.5947 
        2.48195         82.1852         6.49238 
        2.49759         81.1809         6.39278 
        2.51328           80.32         6.29501 
        2.52906         78.8306         6.19867 
        2.54479         78.3156         6.10471 
        2.56049         77.2927         6.01287 
        2.57618         76.3733         5.92301 
        2.59189         75.9707         5.83485 
        2.60758         74.4779         5.74862 
        2.62325         74.1077         5.66424 
        2.63898         73.3044         5.58126 
        2.65468         72.4811         5.50012 
        2.67044         71.5927         5.42025 
        2.68618         70.9759         5.34214 
        2.70184         69.9155         5.26589 
        2.71755         69.2208         5.19094 
        2.73329         68.2702         5.11733 
        2.74897         67.8294         5.04539 
        2.76462         67.1071         4.97499 
        2.78034         66.2932         4.90564 
        2.79607         65.6663         4.83755 
        2.81179          65.009         4.77082 
        2.82749         64.3985         4.70543 
        2.84321         63.7495         4.64119 
        2.85893         63.0394         4.57817 
        2.87462         62.3295         4.51643 
        2.89033         61.6478         4.45577 
        2.90605         61.0609         4.39617 
        2.92176         60.3776          4.3377 
        2.93747         59.7236         4.28031 
        2.95318         59.1012         4.22396 
        2.96891          58.433         4.16859 
        2.98456         57.8367         4.11446 
        3.00023          57.174         4.06121 
        3.01596         56.6915         4.00874 
        3.03164         56.1201         3.95735 
        3.04738         55.5596          3.9067 
         3.0631          54.661         3.85696 
        3.07883         54.2104         3.80809 
        3.09456         53.6222         3.76007 
        3.11026         53.0985         3.71295 
        3.12596         52.6883         3.66664 
        3.14163         51.9529         3.62123 
        3.15734         51.4794         3.57649 
        3.17308         50.9529         3.53239 
        3.18879         50.4434         3.48915 
        3.20447         50.1325         3.44671 
         3.2202         49.3608         3.40483 
         3.2359         48.9427         3.36373 
        3.25157         48.6249          3.3234 
        3.26729         47.9765         3.28362 
        3.28304         47.6166          3.2444 
        3.29877         46.9816         3.20588 
        3.31446         46.6206         3.16807 
        3.33014         46.1863          3.1309 
        3.34585         45.6014         3.09427 
        3.36158         45.1813         3.05817 
        3.37727          44.799         3.02276 
        3.39294         44.3811         2.98794 
        3.40867         43.9947         2.95354 
        3.42439         43.4849         2.91971 
        3.44008         43.0088         2.88647 
        3.45578         42.6331         2.85373 
        3.47153         42.1733         2.82142 
        3.48724         41.7108         2.78966 
        3.50292         41.3661         2.75847 
        3.51859         41.0586         2.72777 
        3.53431         40.5907         2.69745 
        3.55007         40.1507         2.66751 
        3.56577         40.0013         2.63814 
        3.58146         39.4503         2.60922 
        3.59719         39.1111         2.58068 
        3.61292         38.7826         2.55257 
        3.62859         38.4527         2.52498 
        3.64429         38.1326         2.49775 
        3.66003         37.7535         2.47084 
        3.67578         37.4702         2.44433 
        3.69146         37.1042         2.41831 
        3.70712         36.6833         2.39272 
        3.72284         36.3369         2.36741 
        3.73853         36.1336          2.3425 
        3.75422         35.7323         2.31794 
        3.76993         35.4221         2.29372 
        3.78564         35.1574         2.26984 
        3.80137         34.7459         2.24627 
        3.81707         34.4752         2.22309 
        3.83279         34.0941         2.20021 
        3.84853           33.78         2.17762 
        3.86424         33.4754         2.15539 
        3.87992          33.238          2.1335 
        3.89561         32.9948         2.11191 
        3.91134         32.6695         2.09058 
        3.92704         32.3181         2.06957 
        3.94273         32.0787         2.04887 
        3.95845         31.7959         2.02841 
        3.97418         31.4163         2.00823 
        3.98988         31.1436         1.98835 
        4.00554         30.8474         1.96879 
        4.02125         30.6693         1.94944 
        4.03698         30.3055         1.93032 
        4.05268         30.0739          1.9115 
        4.06839         29.7824         1.89292 
         4.0841         29.6084         1.87458 
        4.09983         29.2342         1.85647 
        4.11555         28.9144          1.8386 
        4.13124         28.8525         1.82102 
        4.14693         28.5807         1.80365 
        4.16266         28.2769         1.78647 
        4.17839         28.1234         1.76952 
        4.19408         27.7743         1.75283 
        4.20977         27.5548         1.73635 
        4.22551         27.3672         1.72004 
        4.24123          27.132         1.70395 
        4.25691         26.8812         1.68812 
        4.27259         26.7079         1.67248 
        4.28831         26.4484         1.65701 
        4.30404         26.2531         1.64172 
        4.31974         25.9644         1.62666 
        4.33543         25.8022         1.61179 
        4.35116         25.5692         1.59707 
        4.36688         25.3973         1.58254 
        4.38255         25.1633         1.56825 
        4.39825         24.9066          1.5541 
        4.41398         24.7462          1.5401 
         4.4297         24.5153         1.52629 
        4.44541         24.3256         1.51265 
        4.46111         24.1066         1.49918 
        4.47683         23.9004         1.48587 
        4.49251         23.7158         1.47275 
        4.50819         23.5236         1.45979 
         4.5239         23.3565         1.44696 
        4.53962         23.1503         1.43428 
        4.55535         22.9308         1.42174 
        4.57106         22.7517         1.40937 
        4.58678         22.5959         1.39714 
         4.6025         22.3487         1.38506 
        4.61821         22.2257         1.37312 
        4.63391         21.9857         1.36133 
         4.6496         21.8877         1.34969 
        4.66532         21.6785         1.33817 
        4.68103         21.4434         1.32678 
        4.69673         21.3886         1.31554 
        4.71241         21.2497         1.30445 
        4.72811         21.0076         1.29346 
        4.74384         20.8255         1.28258 
        4.75955         20.7151         1.27184 
        4.77525         20.5309         1.26124 
        4.79096         20.3682         1.25074 
        4.80669         20.1866         1.24036 
         4.8224         20.0218          1.2301 
        4.83809         19.8892         1.21997 
        4.85379         19.7286         1.20995 
         4.8695         19.5569         1.20004 
        4.88521         19.3969         1.19024 
        4.90093         19.2669         1.18054 
        4.91663         19.1033         1.17097 
        4.93234         18.9115         1.16149 
        4.94807         18.7918         1.15211 
        4.96377         18.6752         1.14285 
        4.97943         18.5109         1.13371 
        4.99514         18.3716         1.12464 
        5.01086         18.2175         1.11567 
        5.02654         18.1218         1.10682 
        5.04227         17.9481         1.09804 
          5.058         17.7964         1.08935 
        5.07371         17.7146         1.08078 
        5.08942         17.5703         1.07229 
        5.10513         17.4402         1.06389 
        5.12084         17.3116         1.05558 
        5.13656         17.1605         1.04736 
        5.15225         17.0372         1.03924 
        5.16796         16.8872          1.0312 
        5.18369          16.776         1.02323 
         5.1994         16.6971         1.01536 
        5.21509         16.5505         1.00758 
        5.23079         16.4296         0.99987 
        5.24649         16.3129        0.992249 
        5.26217         16.1671        0.984712 
        5.27788         16.0497        0.977243 
        5.29359         15.9378         0.96985 
        5.30933         15.8201        0.962523 
        5.32504         15.6848        0.955284 
        5.34073         15.6163        0.948127 
        5.35646         15.4778        0.941029 
        5.37218         15.3441        0.934003 
        5.38789         15.2705        0.927059 
        5.40357         15.1295        0.920194 
        5.41929         15.0293        0.913383 
        5.43502         14.9073         0.90664 
         5.4507         14.8341        0.899982 
        5.46639         14.7126        0.893389 
        5.48212         14.5793        0.886847 
        5.49786         14.4803        0.880362 
        5.51353         14.3705        0.873975 
        5.52921         14.2901        0.867644 
        5.54495         14.1898        0.861357 
        5.56066         14.1071         0.85514 
        5.57637         13.9822        0.848985 
        5.59207         13.8809        0.842895 
        5.60778         13.7784        0.836863 
        5.62346         13.7202        0.830899 
        5.63916         13.6079        0.824987 
        5.65487         13.4886        0.819129 
         5.6706         13.4039        0.813321 
        5.68633         13.3202        0.807568 
        5.70203         13.2126        0.801881 
        5.71773         13.1354        0.796251 
        5.73344         13.0384        0.790672 
        5.74916          12.954         0.78514 
        5.76486         12.8581         0.77967 
        5.78054         12.7763        0.774259 
        5.79626         12.6846        0.768885 
          5.812         12.5953        0.763557 
         5.8277         12.5033        0.758294 
        5.84339         12.3957        0.753082 
        5.85911         12.3398        0.747908 
        5.87484          12.244        0.742783 
        5.89053         12.1427        0.737717 
        5.90623          12.069        0.732695 
        5.92195         11.9765        0.727712 
        5.93767         11.9014        0.722778 
        5.95336         11.8408        0.717897 
        5.96905          11.744        0.713063 
        5.98476         11.6649        0.708268 
        6.00048         11.5897        0.703514 
        6.01617         11.5085        0.698811 
        6.03185         11.4364        0.694156 
        6.04756          11.346        0.689532 
        6.06331         11.2736        0.684941 
        6.07903         11.2055        0.680401 
        6.09473         11.1358        0.675906 
        6.11044         11.0552        0.671448 
        6.12616         10.9765        0.667031 
        6.14186         10.8999        0.662658 
        6.15755         10.8413        0.658324 
        6.17326         10.7573        0.654026 
        6.18898         10.6869        0.649764 
        6.20467         10.6201        0.645547 
        6.22036         10.5307        0.641368 
         6.2361         10.4968        0.637215 
         6.2518         10.4176        0.633106 
        6.26748         10.3427        0.629042 
        6.28319         10.2933        0.625002 
        6.29893         10.2225        0.620994 
        6.31463         10.1445        0.617028 
        6.33033         10.0849        0.613098 
        6.34604         10.0306        0.609199 
        6.36177          9.9418        0.605331 
        6.37747         9.88801        0.601503 
