# k  (h/Mpc)    Pcb(k)  (Mpc/h)^3    Pcb_linear(k) (Mpc/h)^3   ShotnoiseSubtracted = true
      0.0200456         359.818         364.453 
      0.0350414         267.265         264.945 
      0.0492313         193.284         192.504 
      0.0637834           159.1         160.027 
      0.0800726         126.009         127.009 
       0.096163          93.198         92.1563 
       0.111083          74.567         73.5062 
       0.126058         64.8773         65.1415 
       0.142273         54.8228         55.1892 
       0.158546         43.7588         43.5879 
        0.17375         37.1281         36.7228 
       0.188953         33.3396         33.2516 
       0.204907         29.0115         29.4209 
       0.220756         24.9639         24.8919 
        0.23588         21.7328         21.6538 
         0.2514         19.7275         19.6722 
       0.267535         17.8941            17.8 
       0.283568         15.7791         15.6972 
       0.299022         14.1004         13.9854 
       0.314451         13.0386         12.7817 
       0.330372         11.8483         11.7258 
       0.346141         10.7633         10.6429 
       0.361624         9.76762         9.67296 
       0.377134         8.95846         8.90065 
       0.392932         8.47122          8.2356 
       0.408854          7.6723         7.59163 
       0.424564         7.19597         6.99732 
       0.440253         6.60669         6.48732 
       0.455999         6.09071         6.04386 
       0.471626         5.68642         5.63633 
        0.48727         5.39494          5.2551 
       0.502856         5.05186         4.91263 
       0.518488          4.6622         4.60705 
       0.534347         4.35455         4.32297 
       0.550082         4.15314         4.06104 
       0.565732         3.95133         3.82141 
       0.581496         3.69655         3.60193 
       0.597222         3.48421         3.40065 
       0.612804         3.28568         3.21557 
       0.628434         3.12363         3.04305 
       0.644267         2.97211         2.88177 
       0.660051         2.81804         2.73312 
       0.675724         2.65623         2.59586 
       0.691403         2.53486         2.46791 
       0.707174         2.41029         2.34786 
       0.722871         2.34142         2.23628 
        0.73838         2.18714         2.13314 
       0.754018         2.08816         2.03572 
       0.769845         1.97637         1.94334 
        0.78569         1.91473         1.85661 
       0.801365         1.83412         1.77603 
       0.817031         1.76217         1.70031 
       0.832809         1.67214         1.62855 
       0.848511         1.61231         1.56127 
       0.864097         1.55441         1.49827 
       0.879701         1.50268          1.4387 
       0.895507         1.42476         1.38169 
       0.911279         1.38075         1.32789 
        0.92691         1.33908         1.27742 
       0.942635         1.26975         1.22931 
       0.958396         1.22842         1.18358 
       0.974128         1.18646         1.14028 
       0.989692         1.14226         1.09957 
        1.00528         1.09806         1.06081 
        1.02113         1.07057         1.02331 
        1.03692         1.03794        0.987767 
        1.05264        0.991141        0.954085 
        1.06832        0.962559        0.922033 
        1.08405        0.924939        0.891374 
        1.09979         0.90097        0.862096 
        1.11537         0.86716        0.834429 
        1.13105        0.834179        0.807815 
        1.14679        0.815058        0.782264 
        1.16256        0.790229        0.757773 
        1.17828        0.769381        0.734414 
        1.19395        0.744309        0.712123 
         1.2097        0.719766        0.690647 
        1.22537        0.695624        0.670163 
          1.241        0.677678        0.650575 
        1.25666        0.662913        0.631723 
        1.27241        0.640704        0.613533 
        1.28819        0.619767        0.596031 
        1.30392        0.605002        0.579265 
        1.31957        0.587698         0.56322 
        1.33529        0.570415        0.547726 
        1.35108        0.554604        0.532756 
        1.36674        0.538994        0.518454 
         1.3824        0.528695        0.504691 
        1.39811        0.511173        0.491384 
        1.41389        0.499974        0.478507 
        1.42964        0.486483        0.466115 
        1.44531        0.473075        0.454223 
        1.46101        0.459096        0.442722 
        1.47667        0.449644        0.431654 
        1.49229        0.436247        0.420996 
        1.50793        0.427644        0.410686 
        1.52367          0.4147        0.400656 
        1.53953        0.404478        0.390895 
        1.55526        0.395904        0.381537 
        1.57092        0.389991        0.372526 
        1.58662        0.380001        0.363784 
        1.60235        0.370189        0.355307 
        1.61809        0.359939        0.347097 
        1.63369        0.350661        0.339219 
        1.64941        0.344341         0.33153 
        1.66519         0.33745        0.324052 
        1.68085        0.327723        0.316858 
        1.69652        0.321114        0.309882 
        1.71228        0.313166        0.303076 
        1.72806        0.307438        0.296469 
        1.74368         0.30027        0.290126 
        1.75933        0.294446        0.283957 
        1.77505        0.288759        0.277938 
        1.79081         0.28008        0.272083 
         1.8065        0.276444        0.266423 
        1.82218        0.268591        0.260929 
        1.83797         0.26183        0.255552 
        1.85367        0.258334        0.250357 
        1.86928        0.252046        0.245337 
        1.88497        0.246386        0.240428 
        1.90073        0.241979        0.235636 
        1.91647        0.237638        0.230979 
        1.93218        0.233692        0.226457 
        1.94787        0.227426        0.222064 
        1.96363        0.223344         0.21777 
        1.97935        0.218668        0.213598 
        1.99499        0.214234        0.209559 
        2.01064        0.210469         0.20562 
         2.0264         0.20635        0.201756 
        2.04216        0.201436        0.197994 
        2.05781        0.198148        0.194352 
        2.07353         0.19474        0.190789 
        2.08928        0.191517        0.187307 
        2.10499        0.186829        0.183922 
        2.12065        0.183821         0.18063 
        2.13633        0.180584        0.177417 
        2.15211        0.177428        0.174261 
        2.16785        0.173668         0.17119 
        2.18349        0.170923        0.168213 
        2.19916        0.166976        0.165301 
        2.21489        0.163915        0.162448 
        2.23063        0.161262         0.15966 
         2.2463        0.158727         0.15695 
        2.26194        0.156086        0.154311 
        2.27765        0.152917        0.151718 
        2.29341        0.150117        0.149178 
        2.30914        0.147201        0.146702 
        2.32486         0.14477        0.144283 
        2.34061        0.142308        0.141915 
        2.35635        0.139962        0.139602 
        2.37203        0.138713        0.137349 
        2.38768        0.135509         0.13515 
        2.40339        0.133288        0.132991 
        2.41914        0.130949        0.130875 
        2.43483        0.128936        0.128812 
         2.4505        0.126461        0.126797 
        2.46622        0.124562        0.124818 
        2.48195        0.122467        0.122882 
        2.49759        0.120921        0.120997 
        2.51328        0.117685        0.119146 
        2.52906        0.116522        0.117323 
        2.54479        0.114623        0.115544 
        2.56049        0.112393        0.113806 
        2.57618        0.111421        0.112105 
        2.59189        0.108985        0.110437 
        2.60758        0.107827        0.108805 
        2.62325        0.105765        0.107208 
        2.63898        0.104594        0.105637 
        2.65468        0.102359        0.104101 
        2.67044        0.100961        0.102589 
        2.68618        0.099302        0.101111 
        2.70184       0.0982014       0.0996679 
        2.71755       0.0963233       0.0982492 
        2.73329       0.0950833        0.096856 
        2.74897        0.093611       0.0954944 
        2.76462       0.0919834        0.094162 
        2.78034       0.0908047       0.0928495 
        2.79607       0.0896979       0.0915606 
        2.81179       0.0877882       0.0902977 
        2.82749       0.0869207         0.08906 
        2.84321       0.0855851       0.0878442 
        2.85893       0.0840495       0.0866514 
        2.87462       0.0833413       0.0854828 
        2.89033       0.0817213       0.0843347 
        2.90605       0.0808592       0.0832067 
        2.92176       0.0798432       0.0820999 
        2.93747       0.0784163       0.0810138 
        2.95318       0.0776536       0.0799472 
        2.96891       0.0764807       0.0788992 
        2.98456       0.0754627       0.0778747 
        3.00023       0.0745559       0.0768669 
        3.01596        0.073091       0.0758737 
        3.03164       0.0721074        0.074901 
        3.04738       0.0713294       0.0739425 
         3.0631       0.0700923       0.0730011 
        3.07883       0.0693228        0.072076 
        3.09456       0.0685322       0.0711671 
        3.11026       0.0673731       0.0702753 
        3.12596       0.0668212       0.0693988 
        3.14163       0.0657574       0.0685394 
        3.15734       0.0651409       0.0676924 
        3.17308       0.0641148       0.0668578 
        3.18879        0.063323       0.0660395 
        3.20447       0.0623493       0.0652361 
         3.2202       0.0617196       0.0644436 
         3.2359       0.0610307       0.0636656 
        3.25157       0.0602276       0.0629023 
        3.26729       0.0593989       0.0621493 
        3.28304        0.058931       0.0614071 
        3.29877       0.0579374       0.0606779 
        3.31446       0.0571997       0.0599622 
        3.33014       0.0567903       0.0592587 
        3.34585       0.0558344       0.0585654 
        3.36158       0.0552548       0.0578822 
        3.37727       0.0545408       0.0572119 
        3.39294       0.0540715       0.0565529 
        3.40867         0.05343        0.055902 
        3.42439       0.0528258       0.0552616 
        3.44008        0.052306       0.0546325 
        3.45578       0.0518041       0.0540127 
        3.47153         0.05124       0.0534012 
        3.48724        0.050558       0.0528002 
        3.50292       0.0501628       0.0522098 
        3.51859       0.0494952       0.0516288 
        3.53431       0.0489605       0.0510548 
        3.55007       0.0484958       0.0504881 
        3.56577       0.0479967       0.0499322 
        3.58146       0.0475024        0.049385 
        3.59719       0.0469354       0.0488447 
        3.61292       0.0463606       0.0483126 
        3.62859       0.0459591       0.0477905 
        3.64429       0.0455515       0.0472751 
        3.66003       0.0452259       0.0467657 
        3.67578        0.044801       0.0462641 
        3.69146       0.0443757       0.0457716 
        3.70712       0.0438995       0.0452872 
        3.72284       0.0433341       0.0448081 
        3.73853       0.0431881       0.0443367 
        3.75422       0.0425432       0.0438719 
        3.76993       0.0422269       0.0434133 
        3.78564       0.0418933       0.0429615 
        3.80137        0.041581       0.0425154 
        3.81707       0.0409994       0.0420766 
        3.83279       0.0406842       0.0416436 
        3.84853       0.0403202       0.0412159 
        3.86424       0.0401284       0.0407952 
        3.87992       0.0397584       0.0403809 
        3.89561       0.0392191       0.0399723 
        3.91134       0.0389318       0.0395686 
        3.92704       0.0385235       0.0391709 
        3.94273       0.0381937       0.0387791 
        3.95845       0.0378881       0.0383919 
        3.97418        0.037526       0.0380099 
        3.98988       0.0370337       0.0376336 
        4.00554       0.0368056       0.0372635 
        4.02125       0.0364082       0.0368972 
        4.03698       0.0358029       0.0365353 
        4.05268       0.0355157       0.0361791 
        4.06839        0.034934       0.0358274 
         4.0841       0.0343557       0.0354804 
        4.09983       0.0338586       0.0351376 
        4.11555       0.0334121       0.0347994 
        4.13124       0.0329117       0.0344666 
        4.14693       0.0325329       0.0341378 
        4.16266        0.031979       0.0338126 
        4.17839       0.0316741       0.0334919 
        4.19408       0.0312389        0.033176 
        4.20977       0.0308585        0.032864 
        4.22551       0.0304982       0.0325553 
        4.24123       0.0300934       0.0322509 
        4.25691       0.0298059       0.0319512 
        4.27259       0.0295016       0.0316552 
        4.28831       0.0292046       0.0313624 
        4.30404       0.0288805        0.031073 
        4.31974       0.0285644       0.0307878 
        4.33543       0.0282848       0.0305065 
        4.35116       0.0280392       0.0302279 
        4.36688       0.0278038       0.0299529 
        4.38255       0.0275445       0.0296824 
        4.39825       0.0274014       0.0294146 
        4.41398       0.0271525       0.0291496 
         4.4297       0.0270289       0.0288882 
        4.44541        0.026829         0.02863 
        4.46111        0.026608       0.0283751 
        4.47683       0.0265125       0.0281232 
        4.49251       0.0263718       0.0278748 
        4.50819       0.0262277       0.0276295 
         4.5239       0.0261273       0.0273868 
        4.53962       0.0260858       0.0271467 
        4.55535       0.0259761       0.0269094 
        4.57106       0.0259173       0.0266752 
        4.58678       0.0258502       0.0264438 
         4.6025        0.025687       0.0262151 
        4.61821       0.0257657       0.0259891 
        4.63391       0.0256831        0.025766 
         4.6496       0.0256137       0.0255457 
        4.66532       0.0256406       0.0253276 
        4.68103       0.0257769       0.0251122 
        4.69673        0.025722       0.0248994 
        4.71241       0.0257458       0.0246893 
        4.72811       0.0257164       0.0244813 
        4.74384        0.025763       0.0242755 
        4.75955       0.0258995       0.0240723 
        4.77525       0.0259737       0.0238715 
        4.79096       0.0260566       0.0236728 
        4.80669       0.0261758       0.0234763 
         4.8224       0.0263335       0.0232822 
        4.83809       0.0263366       0.0230905 
        4.85379       0.0265965       0.0229009 
         4.8695        0.026706       0.0227132 
        4.88521       0.0269296       0.0225277 
        4.90093         0.02706       0.0223443 
        4.91663       0.0272976        0.022163 
        4.93234       0.0273887       0.0219836 
        4.94807       0.0277071        0.021806 
        4.96377       0.0278457       0.0216307 
        4.97943       0.0282493       0.0214578 
        4.99514       0.0283225       0.0212862 
        5.01086       0.0286935       0.0211164 
        5.02654       0.0289178       0.0209489 
        5.04227       0.0292443       0.0207828 
          5.058       0.0295453       0.0206183 
        5.07371       0.0298305       0.0204559 
        5.08942        0.030189       0.0202953 
        5.10513        0.030531       0.0201364 
        5.12084       0.0309397       0.0199791 
        5.13656       0.0314441       0.0198235 
        5.15225        0.031708       0.0196698 
        5.16796       0.0321861       0.0195175 
        5.18369        0.032617       0.0193667 
         5.1994        0.033006       0.0192178 
        5.21509        0.033659       0.0190705 
        5.23079       0.0338945       0.0189246 
        5.24649        0.034533       0.0187804 
        5.26217       0.0349652       0.0186377 
        5.27788       0.0356756       0.0184964 
        5.29359        0.036187       0.0183564 
        5.30933       0.0367241       0.0182178 
        5.32504       0.0373085       0.0180807 
        5.34073       0.0378971       0.0179453 
        5.35646       0.0384429       0.0178109 
        5.37218        0.039184       0.0176779 
        5.38789       0.0397922       0.0175465 
        5.40357       0.0406315       0.0174166 
        5.41929       0.0415179       0.0172877 
        5.43502       0.0421439       0.0171601 
         5.4507       0.0428537        0.017034 
        5.46639       0.0435284       0.0169092 
        5.48212       0.0443893       0.0167854 
        5.49786       0.0454296       0.0166627 
        5.51353       0.0464664       0.0165418 
        5.52921        0.046947        0.016422 
        5.54495        0.047961        0.016303 
        5.56066       0.0490967       0.0161853 
        5.57637       0.0501574       0.0160688 
        5.59207       0.0509594       0.0159535 
        5.60778       0.0518322       0.0158394 
        5.62346        0.052913       0.0157265 
        5.63916       0.0542706       0.0156146 
        5.65487       0.0551768       0.0155037 
         5.6706       0.0561183       0.0153938 
        5.68633       0.0572346       0.0152849 
        5.70203       0.0585843       0.0151773 
        5.71773       0.0602118       0.0150707 
        5.73344       0.0616398       0.0149651 
        5.74916       0.0630125       0.0148604 
        5.76486       0.0643656       0.0147569 
        5.78054       0.0662142       0.0146545 
        5.79626       0.0670273       0.0145528 
          5.812       0.0689503       0.0144519 
         5.8277       0.0700434       0.0143523 
        5.84339       0.0718703       0.0142536 
        5.85911       0.0732549       0.0141557 
        5.87484         0.07486       0.0140587 
        5.89053       0.0771885       0.0139628 
        5.90623       0.0786723       0.0138678 
        5.92195       0.0803794       0.0137735 
        5.93767        0.082557       0.0136801 
        5.95336       0.0838931       0.0135877 
        5.96905       0.0863419       0.0134962 
        5.98476       0.0879009       0.0134054 
        6.00048       0.0902227       0.0133155 
        6.01617       0.0927773       0.0132264 
        6.03185       0.0945263       0.0131383 
        6.04756       0.0967888       0.0130508 
        6.06331       0.0996902       0.0129639 
        6.07903        0.101275        0.012878 
        6.09473         0.10353       0.0127929 
        6.11044        0.106682       0.0127085 
        6.12616         0.10923       0.0126249 
        6.14186        0.111431       0.0125422 
        6.15755        0.114489       0.0124601 
        6.17326        0.117046       0.0123788 
        6.18898        0.120781       0.0122981 
        6.20467        0.122832       0.0122183 
        6.22036        0.127154       0.0121392 
         6.2361        0.128819       0.0120606 
         6.2518        0.132746       0.0119828 
        6.26748        0.134862       0.0119059 
        6.28319        0.138702       0.0118295 
        6.29893         0.14252       0.0117536 
        6.31463         0.14569       0.0116785 
        6.33033        0.148873       0.0116042 
        6.34604        0.153247       0.0115304 
        6.36177        0.157077       0.0114571 
        6.37747        0.160129       0.0113847 
