# k  (h/Mpc)    Pcb(k)  (Mpc/h)^3    Pcb_linear(k) (Mpc/h)^3   ShotnoiseSubtracted = true
      0.0200456         20054.3         20486.5 
      0.0350414         13305.9         13856.4 
      0.0492313         9274.78         9380.18 
      0.0637834         7917.06         7670.75 
      0.0800726         6381.16         6272.06 
       0.096163         4343.12         4441.26 
       0.111083         3334.33         3334.94 
       0.126058         3042.44         2932.61 
       0.142273         2712.05         2602.15 
       0.158546          2337.8         2055.05 
        0.17375          1815.4         1639.58 
       0.188953         1756.32         1456.09 
       0.204907         1666.51         1338.32 
       0.220756         1440.17         1153.89 
        0.23588         1273.67         970.828 
         0.2514         1095.96         856.827 
       0.267535         1088.49         789.339 
       0.283568         988.976         712.201 
       0.299022         932.248         626.382 
       0.314451         883.584           559.2 
       0.330372         810.636         513.881 
       0.346141         757.787         473.947 
       0.361624         729.602          430.74 
       0.377134         676.507         390.932 
       0.392932         647.341         359.809 
       0.408854         630.174         334.059 
       0.424564         585.123         309.074 
       0.440253         575.727          284.91 
       0.455999         545.453         264.029 
       0.471626         523.214         246.546 
        0.48727         500.587         230.513 
       0.502856         486.959         215.237 
       0.518488         481.507          201.17 
       0.534347         449.892         188.604 
       0.550082         432.435         177.348 
       0.565732         431.711         166.907 
       0.581496         404.913         157.077 
       0.597222         398.419         148.138 
       0.612804           388.8         140.059 
       0.628434         375.227         132.561 
       0.644267         365.056         125.466 
       0.660051         354.902         118.894 
       0.675724         350.162         112.871 
       0.691403         338.537         107.279 
       0.707174         327.214         102.033 
       0.722871          322.32         97.1574 
        0.73838         318.128          92.651 
       0.754018         309.316         88.3952 
       0.769845          301.79         84.3596 
        0.78569          299.56         80.5716 
       0.801365         290.119         77.0533 
       0.817031         280.048         73.7477 
       0.832809         279.102         70.6156 
       0.848511          271.44         67.6804 
       0.864097         266.315         64.9333 
       0.879701         262.704         62.3371 
       0.895507         257.908         59.8533 
       0.911279         249.473         57.5108 
        0.92691         248.388          55.314 
       0.942635         241.843         53.2205 
       0.958396         238.122         51.2316 
       0.974128         233.619         49.3486 
       0.989692         230.396         47.5795 
        1.00528         226.346         45.8949 
        1.02113         223.661          44.266 
        1.03692         218.835         42.7226 
        1.05264         215.457         41.2603 
        1.06832         211.051         39.8689 
        1.08405          207.74         38.5384 
        1.09979         203.238          37.268 
        1.11537         201.328         36.0677 
        1.13105         196.189         34.9134 
        1.14679         195.227         33.8054 
        1.16256         192.214         32.7435 
        1.17828         189.393         31.7309 
        1.19395         185.413         30.7647 
         1.2097          185.25          29.834 
        1.22537         181.312         28.9464 
          1.241         179.652         28.0978 
        1.25666         176.601         27.2812 
        1.27241         173.535         26.4934 
        1.28819         171.719         25.7355 
        1.30392         167.368         25.0096 
        1.31957         167.865         24.3151 
        1.33529         163.767         23.6445 
        1.35108         160.834         22.9966 
        1.36674         159.929         22.3777 
         1.3824         158.474         21.7823 
        1.39811         156.591         21.2066 
        1.41389         153.427         20.6496 
        1.42964         151.551         20.1137 
        1.44531         149.499         19.5995 
        1.46101         147.312         19.1022 
        1.47667         145.057         18.6237 
        1.49229          143.54         18.1629 
        1.50793         141.241         17.7173 
        1.52367         140.343         17.2838 
        1.53953         137.588          16.862 
        1.55526         135.619         16.4576 
        1.57092         134.279         16.0682 
        1.58662         132.732         15.6906 
        1.60235         130.561         15.3243 
        1.61809         129.536         14.9697 
        1.63369         127.148         14.6294 
        1.64941         125.378         14.2973 
        1.66519         123.814         13.9744 
        1.68085         122.734         13.6637 
        1.69652         121.194         13.3625 
        1.71228         119.191         13.0686 
        1.72806         117.929         12.7834 
        1.74368         116.884         12.5096 
        1.75933         115.185         12.2432 
        1.77505         113.851         11.9834 
        1.79081         112.897         11.7307 
         1.8065         111.459         11.4864 
        1.82218         109.284         11.2493 
        1.83797         107.946         11.0173 
        1.85367         107.188         10.7931 
        1.86928          105.16         10.5765 
        1.88497         103.766         10.3647 
        1.90073         102.542         10.1579 
        1.91647         101.732         9.95695 
        1.93218         100.574         9.76189 
        1.94787         98.9554         9.57236 
        1.96363         97.9578         9.38712 
        1.97935         96.2608         9.20717 
        1.99499         95.5709         9.03297 
        2.01064          94.357         8.86304 
         2.0264         93.2168         8.69642 
        2.04216         92.2063         8.53417 
        2.05781           91.24          8.3771 
        2.07353         90.0404         8.22344 
        2.08928         88.4456          8.0733 
        2.10499         87.3388         7.92732 
        2.12065         86.8097         7.78539 
        2.13633         85.9486         7.64683 
        2.15211         84.8542         7.51075 
        2.16785         83.5839         7.37837 
        2.18349         82.7267         7.25002 
        2.19916         81.5893         7.12446 
        2.21489         80.7286         7.00146 
        2.23063         79.7012         6.88129 
         2.2463         78.6064         6.76449 
        2.26194         78.4208         6.65069 
        2.27765         77.1256         6.53893 
        2.29341         76.1704         6.42946 
        2.30914           75.47         6.32272 
        2.32486         74.6237         6.21847 
        2.34061          73.882         6.11641 
        2.35635          72.294         6.01672 
        2.37203         71.5491         5.91961 
        2.38768         71.0148         5.82485 
        2.40339         70.0492         5.73182 
        2.41914          69.297         5.64062 
        2.43483          68.862         5.55172 
         2.4505         67.8904         5.46489 
        2.46622         67.0674         5.37962 
        2.48195         66.5469         5.29617 
        2.49759         65.6027         5.21494 
        2.51328         65.0516          5.1352 
        2.52906         64.2594         5.05663 
        2.54479         63.6774            4.98 
        2.56049         62.6738         4.90511 
        2.57618         62.2753         4.83182 
        2.59189         61.4298         4.75993 
        2.60758         60.5359         4.68961 
        2.62325         59.9598          4.6208 
        2.63898         59.4041         4.55314 
        2.65468          58.921         4.48697 
        2.67044         58.1155         4.42184 
        2.68618         57.5929         4.35815 
        2.70184         57.1936         4.29597 
        2.71755         56.3727         4.23485 
        2.73329         55.7882         4.17483 
        2.74897         55.2679         4.11617 
        2.76462         54.5378         4.05877 
        2.78034         53.8543         4.00223 
        2.79607         53.3883         3.94671 
        2.81179         52.8272          3.8923 
        2.82749         52.1313         3.83898 
        2.84321         51.8451         3.78661 
        2.85893         51.0634         3.73523 
        2.87462         50.6374         3.68489 
        2.89033         50.1108         3.63543 
        2.90605         49.4037         3.58684 
        2.92176         48.9124         3.53916 
        2.93747          48.605         3.49238 
        2.95318         47.9127         3.44643 
        2.96891         47.2706         3.40129 
        2.98456         46.8768         3.35716 
        3.00023         46.3486         3.31374 
        3.01596         45.8404         3.27097 
        3.03164         45.5403         3.22907 
        3.04738         45.1203         3.18778 
         3.0631          44.521         3.14723 
        3.07883         44.1655         3.10738 
        3.09456         43.6476         3.06823 
        3.11026         43.2217         3.02982 
        3.12596         42.7994         2.99207 
        3.14163         42.2594         2.95504 
        3.15734         41.8628         2.91857 
        3.17308         41.6698         2.88261 
        3.18879         41.1655         2.84737 
        3.20447          40.495         2.81276 
         3.2202         40.1909         2.77863 
         3.2359         39.9428         2.74512 
        3.25157         39.5031         2.71224 
        3.26729         39.0952          2.6798 
        3.28304         38.7289         2.64784 
        3.29877         38.2666         2.61643 
        3.31446         37.8649          2.5856 
        3.33014         37.4634          2.5553 
        3.34585         37.2487         2.52544 
        3.36158         36.9632         2.49601 
        3.37727         36.4879         2.46714 
        3.39294         36.1123         2.43876 
        3.40867         35.8018         2.41072 
        3.42439         35.4025         2.38313 
        3.44008         35.0323         2.35604 
        3.45578         34.7144         2.32934 
        3.47153          34.489           2.303 
        3.48724         34.0611         2.27711 
        3.50292         33.7672         2.25168 
        3.51859         33.3656         2.22666 
        3.53431         33.1196         2.20193 
        3.55007          32.821         2.17752 
        3.56577         32.4891         2.15358 
        3.58146         32.2907         2.13001 
        3.59719         31.9105         2.10674 
        3.61292          31.582         2.08382 
        3.62859          31.236         2.06133 
        3.64429         31.0386         2.03913 
        3.66003         30.6907         2.01719 
        3.67578         30.3807         1.99558 
        3.69146         30.1757         1.97437 
        3.70712          29.893          1.9535 
        3.72284          29.644         1.93286 
        3.73853         29.4168         1.91256 
        3.75422         29.1064         1.89254 
        3.76993         28.7485         1.87279 
        3.78564         28.5745         1.85332 
        3.80137         28.2077         1.83411 
        3.81707         28.0335          1.8152 
        3.83279         27.7657         1.79655 
        3.84853         27.5825         1.77813 
        3.86424         27.3504         1.76001 
        3.87992         27.0251         1.74216 
        3.89561         26.8486         1.72456 
        3.91134         26.5907         1.70717 
        3.92704         26.3242         1.69004 
        3.94273         26.0713         1.67316 
        3.95845         25.8292         1.65648 
        3.97418         25.6766         1.64002 
        3.98988         25.4136         1.62381 
        4.00554         25.1565         1.60787 
        4.02125         24.9596         1.59209 
        4.03698         24.7123          1.5765 
        4.05268          24.536         1.56116 
        4.06839         24.3591           1.546 
         4.0841         24.1107         1.53106 
        4.09983         23.8373         1.51629 
        4.11555         23.6853         1.50172 
        4.13124         23.4387         1.48738 
        4.14693         23.2397         1.47322 
        4.16266         22.9855         1.45921 
        4.17839         22.7976         1.44539 
        4.19408          22.509         1.43178 
        4.20977         22.4512         1.41834 
        4.22551         22.2634         1.40504 
        4.24123         22.0146         1.39192 
        4.25691         21.8913         1.37901 
        4.27259         21.6911         1.36626 
        4.28831         21.4776         1.35364 
        4.30404         21.3313         1.34118 
        4.31974         21.1454         1.32889 
        4.33543         20.8867         1.31677 
        4.35116         20.7466         1.30477 
        4.36688         20.6133         1.29292 
        4.38255         20.4316         1.28126 
        4.39825         20.2407         1.26973 
        4.41398         20.0626         1.25831 
         4.4297         19.8809         1.24704 
        4.44541         19.8026         1.23592 
        4.46111         19.6251         1.22494 
        4.47683         19.4215         1.21408 
        4.49251         19.3267         1.20338 
        4.50819         19.1006         1.19281 
         4.5239         18.9653         1.18235 
        4.53962         18.8059         1.17201 
        4.55535         18.6549         1.16178 
        4.57106         18.5118         1.15169 
        4.58678         18.3697         1.14172 
         4.6025         18.1929         1.13186 
        4.61821         18.0753         1.12212 
        4.63391         17.9048         1.11251 
         4.6496         17.7674         1.10302 
        4.66532         17.6045         1.09362 
        4.68103         17.4855         1.08433 
        4.69673         17.3238         1.07517 
        4.71241         17.1563         1.06611 
        4.72811         17.0842         1.05715 
        4.74384         16.9401         1.04828 
        4.75955         16.8028         1.03952 
        4.77525         16.6773         1.03087 
        4.79096          16.555         1.02231 
        4.80669         16.4323         1.01384 
         4.8224         16.2808         1.00547 
        4.83809         16.1515        0.997211 
        4.85379          16.029        0.989037 
         4.8695          15.929        0.980949 
        4.88521         15.8358        0.972954 
        4.90093          15.632        0.965048 
        4.91663         15.5162        0.957236 
        4.93234         15.4169        0.949503 
        4.94807         15.2699         0.94185 
        4.96377         15.1816        0.934296 
        4.97943         15.0702         0.92684 
        4.99514         14.9465        0.919447 
        5.01086         14.8025        0.912129 
        5.02654         14.7115        0.904909 
        5.04227           14.61        0.897746 
          5.058         14.5404        0.890658 
        5.07371         14.3468         0.88366 
        5.08942         14.2549        0.876736 
        5.10513         14.1655        0.869885 
        5.12084          14.035        0.863105 
        5.13656         13.9422        0.856398 
        5.15225         13.8445        0.849774 
        5.16796         13.7395        0.843209 
        5.18369         13.6248        0.836708 
         5.1994         13.5212        0.830287 
        5.21509         13.4361        0.823939 
        5.23079         13.3256         0.81765 
        5.24649         13.2393        0.811432 
        5.26217         13.1166        0.805283 
        5.27788          13.006        0.799189 
        5.29359         12.9337        0.793156 
        5.30933         12.8557        0.787178 
        5.32504         12.7572        0.781271 
        5.34073         12.6376        0.775431 
        5.35646         12.5932         0.76964 
        5.37218         12.4886        0.763906 
        5.38789         12.3838         0.75824 
        5.40357         12.2867        0.752638 
        5.41929         12.2049         0.74708 
        5.43502         12.0926        0.741578 
         5.4507         12.0349        0.736144 
        5.46639         11.9232        0.730764 
        5.48212         11.8492        0.725425 
        5.49786         11.7489        0.720134 
        5.51353         11.6834        0.714921 
        5.52921         11.6183        0.709755 
        5.54495         11.5327        0.704624 
        5.56066         11.4187         0.69955 
        5.57637         11.3327        0.694527 
        5.59207         11.2659        0.689557 
        5.60778         11.1988        0.684634 
        5.62346         11.1271        0.679766 
        5.63916         11.0273        0.674941 
        5.65487         10.9609         0.67016 
         5.6706         10.8787         0.66542 
        5.68633         10.7949        0.660724 
        5.70203         10.7198        0.656083 
        5.71773         10.6517        0.651488 
        5.73344         10.5647        0.646934 
        5.74916         10.5237        0.642419 
        5.76486          10.429        0.637954 
        5.78054         10.3572        0.633538 
        5.79626         10.2828        0.629151 
          5.812         10.2143        0.624802 
         5.8277          10.142        0.620506 
        5.84339         10.0589        0.616251 
        5.85911         10.0104        0.612028 
        5.87484         9.91872        0.607845 
        5.89053         9.85088        0.603709 
        5.90623          9.8073         0.59961 
        5.92195         9.71922        0.595542 
        5.93767         9.66623        0.591514 
        5.95336         9.59826         0.58753 
        5.96905         9.52811        0.583584 
        5.98476         9.47422        0.579669 
        6.00048          9.4126        0.575788 
        6.01617         9.33029        0.571948 
        6.03185         9.24834        0.568148 
        6.04756         9.20705        0.564373 
        6.06331         9.14195        0.560625 
        6.07903          9.0745        0.556918 
        6.09473         9.02791        0.553249 
        6.11044         8.95969        0.549609 
        6.12616         8.91127        0.546002 
        6.14186         8.86044        0.542432 
        6.15755         8.79854        0.538894 
        6.17326         8.71765        0.535384 
        6.18898         8.67282        0.531904 
        6.20467         8.61675        0.528461 
        6.22036         8.56323        0.525049 
         6.2361         8.49388        0.521658 
         6.2518         8.45254        0.518303 
        6.26748         8.38742        0.514984 
        6.28319         8.32566        0.511686 
        6.29893         8.27585        0.508413 
        6.31463         8.23238        0.505174 
        6.33033         8.16298        0.501965 
        6.34604          8.1108        0.498782 
        6.36177          8.0639        0.495623 
        6.37747         8.00968        0.492497 
