# k  (h/Mpc)    Pcb(k)  (Mpc/h)^3    Pcb_linear(k) (Mpc/h)^3   ShotnoiseSubtracted = true
      0.0200456         9333.65         9497.61 
      0.0350414         6272.09         6423.87 
      0.0492313         4343.04         4348.68 
      0.0637834         3652.33         3556.18 
      0.0800726          2955.3         2907.75 
       0.096163         2028.43         2058.98 
       0.111083         1534.47         1546.09 
       0.126058         1396.09         1359.57 
       0.142273         1247.22         1206.37 
       0.158546          1028.9         952.728 
        0.17375         797.183         760.116 
       0.188953         753.857         675.048 
       0.204907         719.084         620.449 
       0.220756         611.502         534.945 
        0.23588         528.588         450.079 
         0.2514         456.405         397.228 
       0.267535         440.511          365.94 
       0.283568         401.556         330.179 
       0.299022         370.429         290.392 
       0.314451         340.444         259.247 
       0.330372         314.175         238.237 
       0.346141         282.795         219.723 
       0.361624         271.276         199.692 
       0.377134         252.057         181.237 
       0.392932          233.42         166.808 
       0.408854         223.437         154.871 
       0.424564         213.519         143.288 
       0.440253         203.146         132.085 
       0.455999         190.409         122.405 
       0.471626         176.599           114.3 
        0.48727         170.576         106.866 
       0.502856         164.033         99.7843 
       0.518488         160.471         93.2632 
       0.534347          152.38         87.4373 
       0.550082         141.385         82.2189 
       0.565732         136.965         77.3788 
       0.581496         130.896         72.8213 
       0.597222         126.707         68.6774 
       0.612804         121.287         64.9316 
       0.628434         117.956         61.4557 
       0.644267         113.764         58.1666 
       0.660051         111.808         55.1196 
       0.675724         108.194         52.3274 
       0.691403         104.791         49.7349 
       0.707174         100.536         47.3029 
       0.722871         99.1117         45.0425 
        0.73838         97.0435         42.9533 
       0.754018         92.5862         40.9803 
       0.769845         90.6312         39.1094 
        0.78569         88.4413         37.3533 
       0.801365         85.7091         35.7221 
       0.817031         82.6103         34.1897 
       0.832809          81.701         32.7376 
       0.848511         78.6496         31.3768 
       0.864097         76.8196         30.1033 
       0.879701         75.5128         28.8997 
       0.895507         73.9951         27.7482 
       0.911279         72.5805         26.6622 
        0.92691          71.048         25.6437 
       0.942635         68.7724         24.6732 
       0.958396         68.5228         23.7511 
       0.974128         66.6277         22.8782 
       0.989692         65.1605          22.058 
        1.00528         63.6649          21.277 
        1.02113          62.696         20.5219 
        1.03692         60.6768         19.8063 
        1.05264         60.6419         19.1284 
        1.06832         58.6913         18.4834 
        1.08405         57.9637         17.8665 
        1.09979         57.5582         17.2776 
        1.11537         55.3951         16.7211 
        1.13105         55.7527          16.186 
        1.14679         54.4278         15.6723 
        1.16256         53.4931           15.18 
        1.17828         52.2675         14.7105 
        1.19395         51.6335         14.2626 
         1.2097          50.485         13.8311 
        1.22537         50.5564         13.4196 
          1.241          49.141         13.0262 
        1.25666         48.1675         12.6477 
        1.27241           47.62         12.2824 
        1.28819         46.6426         11.9311 
        1.30392         46.0713         11.5945 
        1.31957         45.5951         11.2725 
        1.33529         44.7313         10.9616 
        1.35108         44.4537         10.6613 
        1.36674         43.8422         10.3744 
         1.3824         42.6615         10.0983 
        1.39811         42.4482         9.83145 
        1.41389         41.8513         9.57324 
        1.42964         41.1987         9.32477 
        1.44531         40.5338         9.08637 
        1.46101         39.8105         8.85582 
        1.47667         39.7117         8.63399 
        1.49229         39.1835         8.42039 
        1.50793         38.5968         8.21379 
        1.52367         37.9431         8.01282 
        1.53953         37.7549         7.81725 
        1.55526         37.1227         7.62979 
        1.57092         36.7375         7.44928 
        1.58662         36.2367         7.27419 
        1.60235         35.8408         7.10442 
        1.61809         35.2502         6.93999 
        1.63369         34.7767         6.78224 
        1.64941         34.3607         6.62828 
        1.66519         33.8353         6.47857 
        1.68085          33.639         6.33455 
        1.69652         33.1437         6.19489 
        1.71228         32.9186         6.05865 
        1.72806         32.4818         5.92642 
        1.74368         31.9241         5.79947 
        1.75933         31.5831           5.676 
        1.77505         31.4343         5.55555 
        1.79081          30.903          5.4384 
         1.8065         30.5838         5.32513 
        1.82218          30.306          5.2152 
        1.83797         29.8393         5.10763 
        1.85367         29.4621          5.0037 
        1.86928         29.2193         4.90329 
        1.88497         28.9759         4.80509 
        1.90073         28.6417         4.70923 
        1.91647         28.2585         4.61607 
        1.93218         28.0924         4.52564 
        1.94787         27.6404         4.43777 
        1.96363         27.4937          4.3519 
        1.97935         27.0752         4.26847 
        1.99499         26.8563         4.18771 
        2.01064         26.6322         4.10893 
         2.0264         26.1647         4.03169 
        2.04216         25.9305         3.95647 
        2.05781         25.5886         3.88365 
        2.07353         25.4014         3.81241 
        2.08928         25.3644         3.74281 
        2.10499         25.0098         3.67513 
        2.12065         24.6082         3.60933 
        2.13633         24.5004         3.54509 
        2.15211         24.1045         3.48201 
        2.16785         23.8515         3.42064 
        2.18349         23.6832         3.36113 
        2.19916         23.4928         3.30292 
        2.21489          23.176          3.2459 
        2.23063         22.9428         3.19019 
         2.2463         22.7816         3.13604 
        2.26194         22.6192         3.08328 
        2.27765         22.3621         3.03147 
        2.29341         22.1043         2.98072 
        2.30914         21.9598         2.93123 
        2.32486         21.6615          2.8829 
        2.34061         21.5092         2.83558 
        2.35635         21.2687         2.78937 
        2.37203         21.1309         2.74435 
        2.38768         20.8197         2.70042 
        2.40339         20.7302         2.65729 
        2.41914         20.5004         2.61501 
        2.43483         20.3088         2.57379 
         2.4505         20.0965         2.53354 
        2.46622         19.8866         2.49401 
        2.48195          19.712         2.45532 
        2.49759         19.4828         2.41766 
        2.51328          19.274          2.3807 
        2.52906         19.2141         2.34427 
        2.54479         18.9582         2.30874 
        2.56049         18.7439         2.27402 
        2.57618         18.5657         2.24005 
        2.59189         18.4835         2.20672 
        2.60758         18.3109         2.17412 
        2.62325         18.1131         2.14222 
        2.63898           18.01         2.11085 
        2.65468         17.8039         2.08017 
        2.67044          17.654         2.04998 
        2.68618         17.4331         2.02045 
        2.70184         17.3495         1.99162 
        2.71755         17.2073         1.96329 
        2.73329         17.0083         1.93546 
        2.74897         16.8119         1.90827 
        2.76462         16.7719         1.88166 
        2.78034         16.5925         1.85544 
        2.79607          16.446          1.8297 
        2.81179         16.2691         1.80448 
        2.82749         16.1376         1.77976 
        2.84321         16.0583         1.75548 
        2.85893         15.8182         1.73166 
        2.87462         15.6997         1.70832 
        2.89033         15.6026          1.6854 
        2.90605         15.5059         1.66287 
        2.92176         15.2494         1.64077 
        2.93747         15.1907         1.61908 
        2.95318         15.0307         1.59778 
        2.96891         14.9241         1.57685 
        2.98456         14.8015         1.55639 
        3.00023         14.5872         1.53626 
        3.01596         14.6012         1.51643 
        3.03164         14.4329           1.497 
        3.04738         14.2511         1.47786 
         3.0631         14.1349         1.45906 
        3.07883         14.0106         1.44059 
        3.09456         13.8943         1.42244 
        3.11026         13.8066         1.40463 
        3.12596         13.6461         1.38713 
        3.14163         13.5557         1.36997 
        3.15734         13.4227         1.35306 
        3.17308          13.322         1.33639 
        3.18879         13.2043         1.32005 
        3.20447          13.112         1.30401 
         3.2202         12.9475         1.28818 
         3.2359         12.8774         1.27264 
        3.25157         12.7637          1.2574 
        3.26729         12.6766         1.24237 
        3.28304         12.5417         1.22754 
        3.29877         12.4143         1.21298 
        3.31446         12.3259         1.19869 
        3.33014         12.2136         1.18465 
        3.34585         12.1212          1.1708 
        3.36158         12.0289         1.15716 
        3.37727         11.8814         1.14377 
        3.39294         11.7962         1.13061 
        3.40867         11.7016         1.11762 
        3.42439         11.6304         1.10483 
        3.44008         11.5361         1.09227 
        3.45578         11.4398         1.07989 
        3.47153         11.3823         1.06768 
        3.48724         11.2432         1.05568 
        3.50292         11.1786         1.04389 
        3.51859         11.0819         1.03229 
        3.53431         11.0046         1.02082 
        3.55007         10.8995         1.00951 
        3.56577         10.8095        0.998407 
        3.58146         10.7671        0.987479 
        3.59719         10.6412         0.97669 
        3.61292         10.5408        0.966066 
        3.62859         10.4463        0.955639 
        3.64429         10.3807        0.945347 
        3.66003         10.2995        0.935175 
        3.67578         10.2265        0.925157 
        3.69146         10.1044        0.915323 
        3.70712         10.0574         0.90565 
        3.72284         9.97485        0.896082 
        3.73853         9.86357        0.886668 
        3.75422         9.82067        0.877386 
        3.76993         9.76056        0.868229 
        3.78564         9.64498        0.859207 
        3.80137         9.58307        0.850298 
        3.81707         9.53042        0.841534 
        3.83279         9.40031        0.832887 
        3.84853         9.35125        0.824347 
        3.86424         9.25577        0.815944 
        3.87992          9.2032        0.807671 
        3.89561          9.1289        0.799512 
        3.91134         9.04693        0.791449 
        3.92704         8.97221        0.783507 
        3.94273         8.91253        0.775682 
        3.95845         8.84477        0.767949 
        3.97418         8.77692         0.76032 
        3.98988         8.69947        0.752806 
        4.00554         8.65738        0.745413 
        4.02125         8.57069        0.738098 
        4.03698         8.51041        0.730871 
        4.05268         8.44921        0.723757 
        4.06839          8.3721        0.716732 
         4.0841         8.29586        0.709802 
        4.09983         8.24865        0.702955 
        4.11555         8.17801        0.696201 
        4.13124         8.11548        0.689554 
        4.14693         8.04109        0.682988 
        4.16266         8.01126        0.676493 
        4.17839         7.91984        0.670086 
        4.19408         7.88089        0.663777 
        4.20977         7.80117        0.657546 
        4.22551         7.75506        0.651381 
        4.24123         7.67572          0.6453 
        4.25691         7.64693        0.639315 
        4.27259         7.55361        0.633403 
        4.28831         7.50611        0.627554 
        4.30404         7.45517        0.621773 
        4.31974         7.41215        0.616078 
        4.33543         7.33927        0.610457 
        4.35116         7.27782        0.604894 
        4.36688         7.21623        0.599401 
        4.38255         7.16781        0.593998 
        4.39825         7.10933        0.588649 
        4.41398         7.06832        0.583355 
         4.4297         7.01917        0.578133 
        4.44541         6.95947        0.572975 
        4.46111         6.91127        0.567884 
        4.47683          6.8487        0.562851 
        4.49251         6.80809         0.55789 
        4.50819         6.74342         0.55299 
         4.5239         6.69955        0.548141 
        4.53962         6.65856        0.543345 
        4.55535         6.59733        0.538604 
        4.57106         6.55209        0.533926 
        4.58678         6.51045        0.529303 
         4.6025         6.45363        0.524734 
        4.61821         6.39681        0.520219 
        4.63391         6.37833        0.515763 
         4.6496         6.32112        0.511362 
        4.66532         6.27217        0.507005 
        4.68103         6.20953          0.5027 
        4.69673         6.18199         0.49845 
        4.71241         6.13101        0.494253 
        4.72811         6.06469        0.490098 
        4.74384         6.04334        0.485985 
        4.75955         5.98711        0.481925 
        4.77525          5.9511        0.477914 
        4.79096          5.9163        0.473944 
        4.80669         5.86104        0.470018 
         4.8224         5.82616         0.46614 
        4.83809         5.78424         0.46231 
        4.85379         5.73467        0.458521 
         4.8695         5.70171        0.454771 
        4.88521         5.65891        0.451065 
        4.90093         5.59727        0.447399 
        4.91663          5.5711        0.443778 
        4.93234         5.54516        0.440193 
        4.94807         5.50636        0.436645 
        4.96377         5.46924        0.433142 
        4.97943         5.41855        0.429686 
        4.99514         5.37307        0.426259 
        5.01086         5.34485        0.422866 
        5.02654         5.31643        0.419519 
        5.04227         5.27154        0.416198 
          5.058         5.23576        0.412912 
        5.07371         5.20308        0.409667 
        5.08942         5.15865        0.406457 
        5.10513         5.13654        0.403282 
        5.12084         5.08323        0.400138 
        5.13656         5.05543        0.397029 
        5.15225          5.0323        0.393958 
        5.16796         4.99691        0.390914 
        5.18369         4.95579          0.3879 
         5.1994         4.92449        0.384923 
        5.21509          4.8925        0.381981 
        5.23079         4.86188        0.379065 
        5.24649         4.82248        0.376182 
        5.26217         4.79925        0.373332 
        5.27788         4.76731        0.370506 
        5.29359         4.73129         0.36771 
        5.30933         4.69553        0.364938 
        5.32504          4.6632          0.3622 
        5.34073         4.63217        0.359492 
        5.35646         4.60004        0.356807 
        5.37218         4.56563        0.354149 
        5.38789         4.54829        0.351522 
        5.40357         4.51324        0.348925 
        5.41929         4.47598        0.346349 
        5.43502         4.44411        0.343798 
         5.4507         4.41703        0.341279 
        5.46639         4.39086        0.338784 
        5.48212         4.35534        0.336309 
        5.49786         4.34011        0.333856 
        5.51353         4.30185         0.33144 
        5.52921         4.27579        0.329044 
        5.54495         4.25273        0.326666 
        5.56066         4.21709        0.324314 
        5.57637         4.19496        0.321985 
        5.59207         4.16721        0.319681 
        5.60778         4.14498        0.317398 
        5.62346         4.11934        0.315142 
        5.63916         4.08888        0.312905 
        5.65487          4.0588        0.310688 
         5.6706         4.04139        0.308491 
        5.68633          4.0045        0.306314 
        5.70203         3.98854        0.304162 
        5.71773         3.95692        0.302032 
        5.73344         3.92886         0.29992 
        5.74916         3.91569        0.297827 
        5.76486         3.88847        0.295757 
        5.78054         3.86224         0.29371 
        5.79626         3.83092        0.291676 
          5.812         3.81794         0.28966 
         5.8277         3.78471        0.287669 
        5.84339         3.76787        0.285696 
        5.85911         3.75155        0.283738 
        5.87484         3.72373        0.281799 
        5.89053         3.69535        0.279881 
        5.90623         3.68466        0.277981 
        5.92195         3.65276        0.276095 
        5.93767         3.62682        0.274228 
        5.95336         3.61206        0.272381 
        5.96905         3.57948        0.270551 
        5.98476         3.55812        0.268736 
        6.00048         3.54067        0.266937 
        6.01617         3.51915        0.265157 
        6.03185          3.5023        0.263395 
        6.04756          3.4773        0.261645 
        6.06331         3.45223        0.259907 
        6.07903         3.43321        0.258189 
        6.09473         3.41748        0.256488 
        6.11044          3.3936          0.2548 
        6.12616         3.37769        0.253128 
        6.14186         3.35657        0.251473 
        6.15755         3.33437        0.249833 
        6.17326         3.31542        0.248206 
        6.18898         3.29441        0.246592 
        6.20467         3.28103        0.244996 
        6.22036         3.25767        0.243415 
         6.2361         3.23634        0.241842 
         6.2518         3.21633        0.240287 
        6.26748         3.20734        0.238748 
        6.28319         3.17972        0.237219 
        6.29893         3.15839        0.235702 
        6.31463         3.14031          0.2342 
        6.33033         3.13047        0.232713 
        6.34604         3.10945        0.231237 
        6.36177          3.0872        0.229772 
        6.37747         3.07139        0.228323 
