# k  (h/Mpc)    Pcb(k)  (Mpc/h)^3    Pcb_linear(k) (Mpc/h)^3   ShotnoiseSubtracted = true
      0.0200456         3366.36         3411.34 
      0.0350414         2353.61         2307.32 
      0.0492313         1567.29         1561.95 
      0.0637834         1261.45          1277.3 
      0.0800726         1019.84          1044.4 
       0.096163         757.763         739.542 
       0.111083         577.413         555.322 
       0.126058         487.955         488.328 
       0.142273         429.929         433.301 
       0.158546         348.153         342.199 
        0.17375         285.678         273.017 
       0.188953         253.967         242.463 
       0.204907         222.746         222.852 
       0.220756         199.076         192.141 
        0.23588         170.085         161.659 
         0.2514         150.295         142.676 
       0.267535         141.405         131.438 
       0.283568         125.584         118.593 
       0.299022         114.509         104.303 
       0.314451         106.868         93.1158 
       0.330372         94.8617         85.5695 
       0.346141         87.4704         78.9198 
       0.361624         80.6769         71.7252 
       0.377134         73.2239         65.0966 
       0.392932         70.5671          59.914 
       0.408854         65.0711         55.6262 
       0.424564         62.0084         51.4659 
       0.440253         56.3434         47.4421 
       0.455999         51.3823         43.9651 
       0.471626         48.8841         41.0539 
        0.48727         47.4055         38.3841 
       0.502856         44.0475         35.8404 
       0.518488         41.4232         33.4981 
       0.534347         38.9584         31.4056 
       0.550082         37.4728         29.5313 
       0.565732         36.0452         27.7928 
       0.581496         33.6385         26.1559 
       0.597222         31.9705         24.6674 
       0.612804         30.4423          23.322 
       0.628434         29.8813         22.0735 
       0.644267         28.2072         20.8922 
       0.660051         26.8308         19.7978 
       0.675724         25.6002         18.7949 
       0.691403         25.0997         17.8637 
       0.707174         24.0343         16.9902 
       0.722871         23.2402         16.1783 
        0.73838         22.0434         15.4279 
       0.754018         20.8494         14.7192 
       0.769845          20.412         14.0472 
        0.78569         19.7302         13.4165 
       0.801365         19.0018         12.8306 
       0.817031         18.2422         12.2802 
       0.832809         17.7498         11.7586 
       0.848511         17.1563         11.2699 
       0.864097         16.5935         10.8124 
       0.879701         16.3232         10.3801 
       0.895507         15.6849         9.96654 
       0.911279         15.0439         9.57648 
        0.92691         14.7616         9.21067 
       0.942635         14.3825         8.86207 
       0.958396         13.9066          8.5309 
       0.974128         13.5421         8.21735 
       0.989692         12.9159         7.92275 
        1.00528         12.8232         7.64225 
        1.02113          12.387         7.37101 
        1.03692         12.1129         7.11401 
        1.05264         11.8348          6.8705 
        1.06832         11.5778         6.63882 
        1.08405         11.2475         6.41726 
        1.09979         10.9701         6.20573 
        1.11537         10.6682         6.00586 
        1.13105         10.4913         5.81365 
        1.14679         10.2447         5.62914 
        1.16256         10.0219         5.45232 
        1.17828         9.80077          5.2837 
        1.19395         9.61836         5.12282 
         1.2097         9.32171         4.96784 
        1.22537         9.15718         4.82005 
          1.241         8.90966         4.67874 
        1.25666          8.8499         4.54277 
        1.27241         8.66499         4.41159 
        1.28819         8.31047         4.28539 
        1.30392         8.30384         4.16451 
        1.31957         8.06226         4.04885 
        1.33529         7.95932         3.93719 
        1.35108         7.79407          3.8293 
        1.36674         7.60203         3.72625 
         1.3824         7.49541          3.6271 
        1.39811         7.36767         3.53125 
        1.41389          7.2124          3.4385 
        1.42964         7.09354         3.34926 
        1.44531         6.96415         3.26363 
        1.46101         6.88848         3.18082 
        1.47667         6.74033         3.10114 
        1.49229         6.55419         3.02442 
        1.50793         6.49457         2.95022 
        1.52367         6.37462         2.87803 
        1.53953         6.26786         2.80779 
        1.55526         6.17598         2.74046 
        1.57092         6.08261         2.67562 
        1.58662         5.96942         2.61273 
        1.60235         5.90932         2.55175 
        1.61809         5.81212         2.49269 
        1.63369          5.6918         2.43603 
        1.64941         5.59491         2.38074 
        1.66519         5.53685         2.32696 
        1.68085         5.43302         2.27524 
        1.69652         5.37684         2.22507 
        1.71228         5.32334         2.17614 
        1.72806         5.21706         2.12864 
        1.74368         5.15398         2.08304 
        1.75933         5.07517          2.0387 
        1.77505         4.97962         1.99543 
        1.79081          4.9324         1.95336 
         1.8065         4.89012         1.91267 
        1.82218         4.81364         1.87319 
        1.83797          4.7176         1.83455 
        1.85367         4.66239         1.79722 
        1.86928         4.61476         1.76115 
        1.88497         4.54525         1.72588 
        1.90073         4.48502         1.69145 
        1.91647         4.39673         1.65799 
        1.93218         4.36532         1.62551 
        1.94787         4.30965         1.59395 
        1.96363         4.26235         1.56311 
        1.97935         4.22258         1.53314 
        1.99499         4.16533         1.50414 
        2.01064         4.10589         1.47584 
         2.0264          4.0693         1.44809 
        2.04216         4.01131         1.42108 
        2.05781          3.9676         1.39492 
        2.07353         3.92311         1.36934 
        2.08928         3.86033         1.34434 
        2.10499         3.81699         1.32003 
        2.12065         3.81598         1.29639 
        2.13633         3.76267         1.27332 
        2.15211         3.69599         1.25066 
        2.16785          3.6528         1.22862 
        2.18349         3.63575         1.20725 
        2.19916         3.58592         1.18634 
        2.21489         3.55258         1.16586 
        2.23063         3.50527         1.14585 
         2.2463         3.46025          1.1264 
        2.26194         3.41801         1.10745 
        2.27765         3.37039         1.08884 
        2.29341         3.33597         1.07061 
        2.30914          3.3094         1.05284 
        2.32486          3.2813         1.03548 
        2.34061         3.25408         1.01848 
        2.35635         3.21374         1.00188 
        2.37203          3.1984        0.985712 
        2.38768         3.16893        0.969932 
        2.40339         3.11396        0.954442 
        2.41914         3.09207        0.939254 
        2.43483         3.05458        0.924451 
         2.4505         3.02229        0.909993 
        2.46622         3.00114        0.895794 
        2.48195         2.98311        0.881898 
        2.49759          2.9372        0.868372 
        2.51328         2.91815        0.855094 
        2.52906         2.88455        0.842011 
        2.54479         2.86159        0.829251 
        2.56049         2.83328         0.81678 
        2.57618         2.80601        0.804577 
        2.59189          2.8018        0.792605 
        2.60758          2.7724        0.780896 
        2.62325         2.71652        0.769438 
        2.63898         2.70745        0.758171 
        2.65468         2.67787        0.747153 
        2.67044         2.66952        0.736307 
        2.68618         2.64692        0.725702 
        2.70184         2.62108        0.715349 
        2.71755         2.58604        0.705172 
        2.73329         2.56905        0.695177 
        2.74897         2.54528        0.685409 
        2.76462         2.52223        0.675851 
        2.78034         2.50782        0.666436 
        2.79607         2.48452         0.65719 
        2.81179          2.4637        0.648131 
        2.82749         2.43349        0.639253 
        2.84321         2.42185        0.630532 
        2.85893         2.39429        0.621976 
        2.87462         2.38371        0.613593 
        2.89033         2.37008        0.605358 
        2.90605         2.34592        0.597267 
        2.92176         2.31797        0.589328 
        2.93747         2.30934        0.581537 
        2.95318         2.28761        0.573886 
        2.96891         2.27448         0.56637 
        2.98456         2.25349        0.559021 
        3.00023         2.24164        0.551792 
        3.01596         2.21413        0.544669 
        3.03164          2.2001        0.537692 
        3.04738         2.18863        0.530817 
         3.0631         2.17146        0.524064 
        3.07883         2.15427        0.517429 
        3.09456         2.13099         0.51091 
        3.11026         2.12014        0.504514 
        3.12596         2.10487        0.498227 
        3.14163         2.09367        0.492063 
        3.15734         2.07252        0.485988 
        3.17308         2.06024        0.480002 
        3.18879         2.05049        0.474133 
        3.20447         2.03116        0.468371 
         3.2202         2.01913        0.462686 
         3.2359         2.00815        0.457106 
        3.25157         1.98909        0.451632 
        3.26729         1.97149        0.446231 
        3.28304          1.9609        0.440908 
        3.29877         1.94148        0.435678 
        3.31446         1.93097        0.430545 
        3.33014         1.92378        0.425499 
        3.34585         1.90746        0.420526 
        3.36158         1.88823        0.415626 
        3.37727         1.88584        0.410819 
        3.39294         1.87002        0.406092 
        3.40867         1.85945        0.401423 
        3.42439         1.84254         0.39683 
        3.44008         1.82855        0.392318 
        3.45578          1.8191        0.387873 
        3.47153         1.81102        0.383487 
        3.48724         1.79697        0.379176 
        3.50292         1.78202        0.374942 
        3.51859         1.77238        0.370775 
        3.53431         1.75916        0.366658 
        3.55007         1.75323        0.362593 
        3.56577         1.73941        0.358606 
        3.58146         1.72837        0.354681 
        3.59719         1.72088        0.350806 
        3.61292         1.70773         0.34699 
        3.62859         1.69858        0.343245 
        3.64429         1.68752        0.339548 
        3.66003         1.67524        0.335895 
        3.67578         1.66708        0.332296 
        3.69146         1.65058        0.328764 
        3.70712         1.64701         0.32529 
        3.72284         1.63111        0.321853 
        3.73853         1.62234        0.318472 
        3.75422         1.61323        0.315138 
        3.76993         1.60265        0.311849 
        3.78564         1.58822        0.308608 
        3.80137         1.58184        0.305409 
        3.81707         1.57141        0.302261 
        3.83279         1.56894        0.299155 
        3.84853         1.55427        0.296088 
        3.86424         1.54344         0.29307 
        3.87992         1.53613        0.290098 
        3.89561         1.52742        0.287167 
        3.91134         1.51639        0.284272 
        3.92704           1.508        0.281419 
        3.94273          1.5006        0.278608 
        3.95845         1.48837        0.275831 
        3.97418          1.4788        0.273091 
        3.98988         1.47402        0.270392 
        4.00554         1.46557        0.267736 
        4.02125         1.45392        0.265109 
        4.03698         1.44874        0.262513 
        4.05268         1.43635        0.259958 
        4.06839          1.4272        0.257435 
         4.0841         1.41576        0.254946 
        4.09983         1.40726        0.252486 
        4.11555          1.3964         0.25006 
        4.13124         1.38951        0.247673 
        4.14693         1.37957        0.245315 
        4.16266          1.3733        0.242982 
        4.17839         1.36429        0.240681 
        4.19408         1.35301        0.238414 
        4.20977         1.34632        0.236176 
        4.22551         1.34016        0.233962 
        4.24123         1.33103        0.231778 
        4.25691          1.3209        0.229628 
        4.27259         1.31226        0.227505 
        4.28831         1.30746        0.225404 
        4.30404         1.29747        0.223328 
        4.31974         1.28972        0.221282 
        4.33543         1.28033        0.219263 
        4.35116         1.27439        0.217265 
        4.36688         1.26784        0.215292 
        4.38255         1.26413        0.213351 
        4.39825         1.25369         0.21143 
        4.41398         1.24706        0.209529 
         4.4297         1.24143        0.207653 
        4.44541         1.22927          0.2058 
        4.46111         1.22597        0.203972 
        4.47683         1.22063        0.202164 
        4.49251          1.2112        0.200382 
        4.50819         1.20854        0.198622 
         4.5239          1.1995        0.196881 
        4.53962         1.19367        0.195158 
        4.55535         1.19011        0.193455 
        4.57106         1.18283        0.191775 
        4.58678         1.17737        0.190114 
         4.6025         1.17208        0.188473 
        4.61821         1.16762        0.186851 
        4.63391          1.1635        0.185251 
         4.6496         1.15161         0.18367 
        4.66532         1.15111        0.182105 
        4.68103         1.14262        0.180559 
        4.69673         1.13899        0.179032 
        4.71241         1.13337        0.177525 
        4.72811         1.13104        0.176032 
        4.74384         1.12554        0.174555 
        4.75955         1.12167        0.173097 
        4.77525         1.11385        0.171657 
        4.79096         1.10788        0.170231 
        4.80669         1.10399         0.16882 
         4.8224         1.09957        0.167427 
        4.83809         1.09783        0.166052 
        4.85379         1.09395        0.164691 
         4.8695         1.08515        0.163344 
        4.88521         1.08302        0.162013 
        4.90093         1.08055        0.160696 
        4.91663         1.07614        0.159395 
        4.93234         1.07177        0.158108 
        4.94807          1.0655        0.156833 
        4.96377         1.06094        0.155575 
        4.97943         1.05956        0.154334 
        4.99514         1.05578        0.153103 
        5.01086         1.05066        0.151884 
        5.02654          1.0461        0.150682 
        5.04227         1.04223        0.149489 
          5.058         1.03984        0.148309 
        5.07371         1.03816        0.147144 
        5.08942         1.03335        0.145991 
        5.10513         1.03052         0.14485 
        5.12084         1.02479        0.143721 
        5.13656          1.0234        0.142604 
        5.15225         1.01889        0.141501 
        5.16796         1.01573        0.140408 
        5.18369         1.01344        0.139325 
         5.1994         1.01055        0.138256 
        5.21509         1.00378        0.137199 
        5.23079         1.00324        0.136152 
        5.24649         1.00059        0.135117 
        5.26217        0.996605        0.134093 
        5.27788        0.991588        0.133078 
        5.29359        0.990483        0.132073 
        5.30933        0.988724        0.131078 
        5.32504        0.983837        0.130094 
        5.34073        0.982405        0.129122 
        5.35646        0.977977        0.128157 
        5.37218        0.976897        0.127203 
        5.38789        0.974554        0.126259 
        5.40357        0.971191        0.125326 
        5.41929        0.970701        0.124401 
        5.43502        0.966195        0.123485 
         5.4507         0.96066         0.12258 
        5.46639        0.962046        0.121684 
        5.48212        0.958686        0.120795 
        5.49786        0.955258        0.119914 
        5.51353        0.953826        0.119046 
        5.52921        0.948657        0.118186 
        5.54495        0.949207        0.117331 
        5.56066        0.947062        0.116486 
        5.57637        0.945082         0.11565 
        5.59207        0.941164        0.114822 
        5.60778        0.940872        0.114003 
        5.62346        0.937724        0.113192 
        5.63916        0.936885        0.112389 
        5.65487        0.933004        0.111593 
         5.6706          0.9292        0.110803 
        5.68633         0.92876        0.110021 
        5.70203        0.925961        0.109249 
        5.71773        0.925063        0.108483 
        5.73344        0.923184        0.107725 
        5.74916        0.919468        0.106973 
        5.76486        0.918016         0.10623 
        5.78054         0.91739        0.105494 
        5.79626        0.914839        0.104764 
          5.812        0.911491         0.10404 
         5.8277        0.910322        0.103324 
        5.84339        0.910646        0.102616 
        5.85911        0.906249        0.101913 
        5.87484        0.904626        0.101216 
        5.89053        0.902918        0.100527 
        5.90623        0.900695       0.0998448 
        5.92195        0.899881       0.0991674 
        5.93767         0.89777       0.0984967 
        5.95336        0.894915       0.0978332 
        5.96905        0.892921       0.0971762 
        5.98476        0.892261       0.0965242 
        6.00048        0.891705        0.095878 
        6.01617        0.886579       0.0952386 
        6.03185        0.888015       0.0946058 
        6.04756         0.88694       0.0939773 
        6.06331        0.884056       0.0933531 
        6.07903        0.882097       0.0927359 
        6.09473        0.881116       0.0921249 
        6.11044        0.879908       0.0915188 
        6.12616        0.876548       0.0909183 
        6.14186        0.875463       0.0903237 
        6.15755         0.87453       0.0897345 
        6.17326        0.871759       0.0891501 
        6.18898        0.872433       0.0885707 
        6.20467        0.866331       0.0879974 
        6.22036        0.866146       0.0874293 
         6.2361        0.865085       0.0868646 
         6.2518        0.864638       0.0863058 
        6.26748         0.86173       0.0857532 
        6.28319        0.861464       0.0852039 
        6.29893         0.85747        0.084659 
        6.31463         0.85841       0.0841197 
        6.33033        0.855511       0.0835854 
        6.34604        0.855035       0.0830552 
        6.36177        0.852215       0.0825292 
        6.37747        0.851538       0.0820087 
