# k  (h/Mpc)    Pcb(k)  (Mpc/h)^3    Pcb_linear(k) (Mpc/h)^3   ShotnoiseSubtracted = true
      0.0200456         8130.05         8246.04 
      0.0350414         5726.73         5577.35 
      0.0492313         3771.87         3775.62 
      0.0637834         3020.59         3087.56 
      0.0800726         2435.69         2524.57 
       0.096163         1850.84         1787.65 
       0.111083         1420.99         1342.35 
       0.126058         1184.01         1180.41 
       0.142273         1048.65         1047.39 
       0.158546         856.822         827.179 
        0.17375         714.456         659.949 
       0.188953         646.085         586.092 
       0.204907          560.61         538.687 
       0.220756         505.025         464.451 
        0.23588         437.979         390.768 
         0.2514         386.296         344.882 
       0.267535         372.138         317.717 
       0.283568         326.474         286.668 
       0.299022         306.395         252.125 
       0.314451         297.658         225.084 
       0.330372           257.1         206.842 
       0.346141         238.064         190.768 
       0.361624         224.552         173.377 
       0.377134         205.643         157.354 
       0.392932         199.283         144.827 
       0.408854         188.374         134.462 
       0.424564         179.757         124.406 
       0.440253         162.304         114.679 
       0.455999          151.83         106.274 
       0.471626         148.421         99.2374 
        0.48727         142.349         92.7837 
       0.502856         129.849         86.6349 
       0.518488         128.033         80.9732 
       0.534347         119.477         75.9149 
       0.550082         116.461         71.3842 
       0.565732         114.024         67.1819 
       0.581496          104.75         63.2251 
       0.597222         102.347         59.6272 
       0.612804         98.4879          56.375 
       0.628434         96.0573         53.3571 
       0.644267         90.7998         50.5015 
       0.660051         88.0769          47.856 
       0.675724         86.0232         45.4318 
       0.691403         84.2782         43.1809 
       0.707174         81.0446         41.0694 
       0.722871         79.3728         39.1069 
        0.73838         76.9265          37.293 
       0.754018         72.3534           35.58 
       0.769845         71.9055         33.9556 
        0.78569         69.6901         32.4309 
       0.801365         67.3136         31.0147 
       0.817031         65.0809         29.6842 
       0.832809         63.8906         28.4235 
       0.848511         62.3548         27.2421 
       0.864097         61.1172         26.1363 
       0.879701         59.8396         25.0913 
       0.895507         57.5692         24.0916 
       0.911279         56.5126         23.1487 
        0.92691         55.1615         22.2644 
       0.942635         53.7746         21.4218 
       0.958396         53.6258         20.6213 
       0.974128         52.2391         19.8633 
       0.989692         50.8274         19.1512 
        1.00528         49.8715         18.4732 
        1.02113         48.6498         17.8175 
        1.03692         48.4478         17.1963 
        1.05264          47.322         16.6077 
        1.06832         46.0457         16.0477 
        1.08405         45.2909         15.5121 
        1.09979         44.8992         15.0008 
        1.11537         43.6953         14.5176 
        1.13105         42.6184          14.053 
        1.14679         42.1519          13.607 
        1.16256         41.5029         13.1796 
        1.17828         41.0197          12.772 
        1.19395         39.8543         12.3831 
         1.2097         39.8591         12.0085 
        1.22537         38.8144         11.6512 
          1.241         38.3923         11.3097 
        1.25666         37.3322          10.981 
        1.27241         37.2332         10.6639 
        1.28819         36.4069         10.3588 
        1.30392         35.8889         10.0666 
        1.31957         35.6303         9.78707 
        1.33529         35.0053         9.51714 
        1.35108         34.3531         9.25636 
        1.36674         33.8304         9.00726 
         1.3824         33.3552         8.76759 
        1.39811          32.749         8.53588 
        1.41389         32.3172         8.31169 
        1.42964         32.1527         8.09597 
        1.44531         31.4318         7.88898 
        1.46101         31.1875         7.68882 
        1.47667         30.7866         7.49622 
        1.49229         30.1877         7.31076 
        1.50793         29.9789         7.13139 
        1.52367         29.4186         6.95691 
        1.53953         29.3424         6.78711 
        1.55526         28.7892         6.62435 
        1.57092         28.4731         6.46763 
        1.58662         28.0335         6.31561 
        1.60235         27.6565         6.16821 
        1.61809         27.3633         6.02545 
        1.63369         27.0507         5.88849 
        1.64941         26.7028         5.75482 
        1.66519         26.3557         5.62483 
        1.68085         25.9092          5.4998 
        1.69652         25.6617         5.37854 
        1.71228          25.542         5.26025 
        1.72806         25.1229         5.14545 
        1.74368          24.708         5.03523 
        1.75933         24.6444         4.92802 
        1.77505         24.3649         4.82345 
        1.79081         24.0183         4.72174 
         1.8065         23.7598          4.6234 
        1.82218         23.4283         4.52795 
        1.83797         23.3309         4.43456 
        1.85367         22.9759         4.34432 
        1.86928         22.9657         4.25714 
        1.88497         22.5029         4.17188 
        1.90073         22.3232         4.08865 
        1.91647         22.0707         4.00778 
        1.93218          21.982         3.92926 
        1.94787         21.6906         3.85297 
        1.96363         21.3979         3.77841 
        1.97935         21.1754         3.70598 
        1.99499         21.0337         3.63586 
        2.01064         20.6761         3.56746 
         2.0264         20.5491          3.5004 
        2.04216         20.4677         3.43509 
        2.05781         20.1612         3.37187 
        2.07353         19.9877         3.31002 
        2.08928         19.6901         3.24959 
        2.10499         19.4962         3.19083 
        2.12065         19.3277          3.1337 
        2.13633         19.1995         3.07793 
        2.15211         18.8986         3.02316 
        2.16785         18.8642         2.96987 
        2.18349         18.6342         2.91821 
        2.19916         18.4257         2.86767 
        2.21489         18.2168         2.81816 
        2.23063         18.1055         2.76979 
         2.2463         17.9025         2.72278 
        2.26194         17.7064         2.67697 
        2.27765         17.5191         2.63199 
        2.29341         17.3095         2.58792 
        2.30914         17.1773         2.54496 
        2.32486         17.1005           2.503 
        2.34061         16.8941         2.46192 
        2.35635         16.6605         2.42179 
        2.37203         16.5698         2.38271 
        2.38768         16.3892         2.34456 
        2.40339         16.3327         2.30712 
        2.41914          16.165         2.27041 
        2.43483         15.9954         2.23462 
         2.4505         15.7566         2.19967 
        2.46622         15.6827         2.16535 
        2.48195         15.5271         2.13176 
        2.49759         15.3327         2.09907 
        2.51328          15.228         2.06697 
        2.52906         15.1133         2.03535 
        2.54479         14.9814          2.0045 
        2.56049         14.8425         1.97436 
        2.57618         14.7621         1.94486 
        2.59189         14.5603         1.91592 
        2.60758         14.3914         1.88762 
        2.62325         14.2828         1.85992 
        2.63898         14.2453         1.83268 
        2.65468         14.0473         1.80605 
        2.67044         13.9247         1.77983 
        2.68618         13.8057          1.7542 
        2.70184         13.6985         1.72917 
        2.71755          13.534         1.70457 
        2.73329         13.4692         1.68041 
        2.74897         13.3356          1.6568 
        2.76462         13.2295          1.6337 
        2.78034         13.0926         1.61094 
        2.79607         13.0076         1.58859 
        2.81179         12.9336         1.56669 
        2.82749         12.7738         1.54523 
        2.84321         12.6861         1.52415 
        2.85893         12.5377         1.50347 
        2.87462         12.4681          1.4832 
        2.89033          12.346          1.4633 
        2.90605         12.2513         1.44374 
        2.92176         12.1443         1.42455 
        2.93747          12.052         1.40572 
        2.95318         11.9599         1.38722 
        2.96891         11.8342         1.36905 
        2.98456         11.7494         1.35129 
        3.00023         11.6664         1.33382 
        3.01596         11.5834          1.3166 
        3.03164         11.4761         1.29973 
        3.04738         11.3779         1.28311 
         3.0631         11.2508         1.26679 
        3.07883         11.1861         1.25075 
        3.09456         11.0657         1.23499 
        3.11026         10.9908         1.21953 
        3.12596         10.9423         1.20434 
        3.14163         10.8028         1.18944 
        3.15734         10.7479         1.17475 
        3.17308         10.6804         1.16028 
        3.18879         10.5525         1.14609 
        3.20447         10.5176         1.13217 
         3.2202         10.3963         1.11843 
         3.2359         10.2891         1.10494 
        3.25157         10.2425          1.0917 
        3.26729         10.1312         1.07865 
        3.28304         10.0501         1.06578 
        3.29877         10.0144         1.05314 
        3.31446         9.91049         1.04073 
        3.33014         9.85396         1.02853 
        3.34585         9.72083         1.01651 
        3.36158         9.67807         1.00467 
        3.37727         9.61242        0.993049 
        3.39294         9.53133        0.981624 
        3.40867         9.46015        0.970338 
        3.42439         9.36581        0.959236 
        3.44008         9.31046        0.948329 
        3.45578         9.21447        0.937583 
        3.47153         9.16957        0.926981 
        3.48724          9.0813        0.916561 
        3.50292         9.01135        0.906326 
        3.51859         8.95016        0.896253 
        3.53431         8.86697        0.886301 
        3.55007         8.79469        0.876476 
        3.56577         8.69761        0.866839 
        3.58146         8.64244        0.857351 
        3.59719         8.57759        0.847983 
        3.61292         8.53313        0.838759 
        3.62859         8.47584        0.829707 
        3.64429         8.38382        0.820771 
        3.66003         8.32224         0.81194 
        3.67578         8.27099        0.803241 
        3.69146         8.20906        0.794704 
        3.70712         8.14146        0.786305 
        3.72284         8.07768        0.777998 
        3.73853         8.03729        0.769824 
        3.75422         7.98161        0.761766 
        3.76993         7.89146        0.753815 
        3.78564         7.85428        0.745982 
        3.80137         7.77181        0.738247 
        3.81707         7.70024        0.730638 
        3.83279         7.65038        0.723131 
        3.84853         7.59986        0.715716 
        3.86424          7.5323        0.708421 
        3.87992         7.51795        0.701238 
        3.89561         7.43047        0.694154 
        3.91134         7.37022        0.687154 
        3.92704         7.31947        0.680258 
        3.94273         7.26505        0.673464 
        3.95845         7.20279         0.66675 
        3.97418         7.15756        0.660127 
        3.98988         7.11414        0.653602 
        4.00554         7.04978        0.647184 
        4.02125         7.00818        0.640833 
        4.03698         6.95575        0.634558 
        4.05268         6.88479        0.628381 
        4.06839         6.81581        0.622282 
         4.0841          6.7782        0.616266 
        4.09983         6.71565        0.610321 
        4.11555         6.67448        0.604457 
        4.13124         6.62911        0.598686 
        4.14693         6.57553        0.592985 
        4.16266         6.53923        0.587346 
        4.17839         6.47524        0.581784 
        4.19408         6.44959        0.576306 
        4.20977         6.37633        0.570896 
        4.22551         6.34907        0.565543 
        4.24123         6.29702        0.560264 
        4.25691         6.25565        0.555067 
        4.27259         6.18813        0.549934 
        4.28831          6.1475        0.544856 
        4.30404         6.10376        0.539837 
        4.31974         6.05443        0.534892 
        4.33543         6.00115        0.530012 
        4.35116         5.96487        0.525182 
        4.36688         5.92724        0.520413 
        4.38255         5.89479        0.515722 
        4.39825         5.84261        0.511078 
        4.41398         5.77838        0.506482 
         4.4297         5.74908        0.501947 
        4.44541         5.71465        0.497469 
        4.46111         5.68635        0.493049 
        4.47683         5.64543         0.48868 
        4.49251         5.59822        0.484372 
        4.50819         5.55434        0.480118 
         4.5239         5.50016        0.475908 
        4.53962         5.48553        0.471744 
        4.55535         5.43198        0.467628 
        4.57106         5.40353        0.463567 
        4.58678         5.35005        0.459553 
         4.6025         5.32147        0.455585 
        4.61821         5.29504        0.451666 
        4.63391         5.25535        0.447797 
         4.6496         5.21514        0.443975 
        4.66532         5.16298        0.440192 
        4.68103         5.13753        0.436455 
        4.69673         5.10728        0.432765 
        4.71241         5.07326        0.429121 
        4.72811         5.03022        0.425513 
        4.74384          5.0055        0.421943 
        4.75955         4.96286        0.418418 
        4.77525          4.9246        0.414936 
        4.79096         4.89877        0.411489 
        4.80669         4.86509         0.40808 
         4.8224         4.82851        0.404713 
        4.83809          4.7905        0.401388 
        4.85379         4.75818        0.398098 
         4.8695         4.73015        0.394842 
        4.88521         4.69905        0.391624 
        4.90093         4.66365        0.388442 
        4.91663         4.62981        0.385298 
        4.93234         4.60001        0.382185 
        4.94807         4.56789        0.379104 
        4.96377         4.53598        0.376064 
        4.97943          4.5055        0.373063 
        4.99514         4.48598        0.370087 
        5.01086         4.44669        0.367141 
        5.02654         4.41574        0.364235 
        5.04227         4.39589        0.361352 
          5.058           4.355        0.358499 
        5.07371         4.32967        0.355682 
        5.08942         4.30712        0.352895 
        5.10513         4.27125        0.350138 
        5.12084         4.25852        0.347409 
        5.13656         4.21217        0.344709 
        5.15225         4.18876        0.342043 
        5.16796         4.16028          0.3394 
        5.18369         4.12635        0.336783 
         5.1994         4.10027        0.334199 
        5.21509         4.08375        0.331644 
        5.23079         4.05635        0.329113 
        5.24649         4.03212         0.32661 
        5.26217         4.00457        0.324135 
        5.27788         3.97924        0.321682 
        5.29359         3.94688        0.319254 
        5.30933         3.93161        0.316847 
        5.32504         3.89957         0.31447 
        5.34073         3.88053        0.312119 
        5.35646         3.85899        0.309788 
        5.37218         3.82573         0.30748 
        5.38789         3.80496        0.305199 
        5.40357         3.77394        0.302944 
        5.41929          3.7497        0.300707 
        5.43502         3.73217        0.298493 
         5.4507          3.7063        0.296306 
        5.46639         3.67838         0.29414 
        5.48212          3.6653        0.291991 
        5.49786         3.63069        0.289861 
        5.51353         3.61689        0.287763 
        5.52921         3.58931        0.285684 
        5.54495         3.57633        0.283618 
        5.56066         3.54991        0.281576 
        5.57637         3.52107        0.279554 
        5.59207         3.50339        0.277554 
        5.60778         3.47839        0.275572 
        5.62346          3.4691        0.273613 
        5.63916         3.44312        0.271671 
        5.65487         3.41758        0.269746 
         5.6706         3.39988        0.267838 
        5.68633         3.37189        0.265948 
        5.70203         3.35887         0.26408 
        5.71773         3.33391        0.262231 
        5.73344         3.31715        0.260398 
        5.74916         3.29043         0.25858 
        5.76486         3.27814        0.256783 
        5.78054         3.25307        0.255005 
        5.79626         3.24022         0.25324 
          5.812         3.22182        0.251489 
         5.8277         3.18879         0.24976 
        5.84339          3.1793        0.248047 
        5.85911         3.16239        0.246347 
        5.87484         3.13716        0.244664 
        5.89053         3.11929        0.242999 
        5.90623         3.10439        0.241349 
        5.92195         3.08811        0.239712 
        5.93767         3.06745         0.23809 
        5.95336         3.04917        0.236487 
        5.96905         3.03117        0.234898 
        5.98476         3.01141        0.233323 
        6.00048         2.99696        0.231761 
        6.01617         2.97771        0.230215 
        6.03185         2.96901        0.228685 
        6.04756         2.94423        0.227166 
        6.06331         2.93177        0.225657 
        6.07903         2.91073        0.224165 
        6.09473         2.89361        0.222688 
        6.11044         2.87438        0.221223 
        6.12616         2.86324        0.219772 
        6.14186         2.84328        0.218334 
        6.15755         2.83058         0.21691 
        6.17326         2.81055        0.215498 
        6.18898          2.7929        0.214097 
        6.20467         2.78343        0.212711 
        6.22036         2.76397        0.211338 
         6.2361         2.74484        0.209973 
         6.2518          2.7306        0.208622 
        6.26748          2.7197        0.207286 
        6.28319         2.70755        0.205959 
        6.29893         2.69145        0.204641 
        6.31463         2.67437        0.203338 
        6.33033         2.65924        0.202046 
        6.34604         2.64641        0.200765 
        6.36177         2.62961        0.199493 
        6.37747         2.61466        0.198235 
