# k  (h/Mpc)    Pcb(k)  (Mpc/h)^3    Pcb_linear(k) (Mpc/h)^3   ShotnoiseSubtracted = true
      0.0200456         23908.8           24457 
      0.0350414         15804.7         16541.9 
      0.0492313         11033.7         11198.1 
      0.0637834         9458.74          9157.4 
      0.0800726         7613.43         7487.63 
       0.096163         5175.59         5302.01 
       0.111083          3997.6         3981.27 
       0.126058         3642.86         3500.97 
       0.142273         3243.26         3106.47 
       0.158546         2832.89         2453.33 
        0.17375         2209.07         1957.35 
       0.188953         2145.01         1738.29 
       0.204907          2031.1         1597.69 
       0.220756         1762.01         1377.52 
        0.23588         1569.36         1158.98 
         0.2514          1354.3         1022.89 
       0.267535         1351.03         942.319 
       0.283568         1227.18         850.231 
       0.299022         1162.07         747.779 
       0.314451         1103.55         667.576 
       0.330372         1010.64         613.474 
       0.346141         963.134         565.801 
       0.361624         926.501          514.22 
       0.377134         862.693         466.698 
       0.392932         823.312         429.542 
       0.408854         809.625         398.802 
       0.424564         746.355         368.975 
       0.440253         734.361         340.127 
       0.455999         703.936           315.2 
       0.471626         680.307         294.329 
        0.48727          649.77         275.188 
       0.502856         632.329         256.951 
       0.518488         625.667         240.159 
       0.534347         586.101         225.156 
       0.550082         569.125         211.719 
       0.565732         567.429         199.255 
       0.581496         534.232         187.519 
       0.597222         523.943         176.849 
       0.612804         513.995         167.203 
       0.628434         499.097         158.252 
       0.644267         486.157         149.783 
       0.660051         472.282         141.936 
       0.675724         466.656         134.746 
       0.691403         450.769          128.07 
       0.707174         435.668         121.808 
       0.722871         429.844         115.987 
        0.73838         423.143         110.607 
       0.754018         412.835         105.527 
       0.769845         405.878         100.709 
        0.78569         399.216          96.187 
       0.801365         389.367         91.9867 
       0.817031         377.185         88.0405 
       0.832809         374.738         84.3014 
       0.848511         366.616         80.7973 
       0.864097         356.248         77.5178 
       0.879701         351.443         74.4185 
       0.895507          348.56         71.4532 
       0.911279         338.358         68.6568 
        0.92691           334.3         66.0342 
       0.942635         325.857          63.535 
       0.958396         319.337         61.1607 
       0.974128         313.988         58.9128 
       0.989692         311.922         56.8007 
        1.00528         304.046         54.7897 
        1.02113         301.266         52.8451 
        1.03692         293.897         51.0026 
        1.05264         291.735         49.2568 
        1.06832           284.4         47.5958 
        1.08405          280.22         46.0074 
        1.09979         274.588         44.4908 
        1.11537         270.736         43.0579 
        1.13105           266.2         41.6799 
        1.14679         259.307         40.3571 
        1.16256          255.97         39.0894 
        1.17828         254.803         37.8805 
        1.19395         248.149         36.7271 
         1.2097         245.749          35.616 
        1.22537         240.944         34.5564 
          1.241         239.118         33.5434 
        1.25666         235.514         32.5685 
        1.27241         231.592         31.6281 
        1.28819         228.732         30.7233 
        1.30392         223.201         29.8567 
        1.31957         223.661         29.0275 
        1.33529         219.088         28.2269 
        1.35108         214.247         27.4535 
        1.36674         212.138         26.7147 
         1.3824         210.956         26.0038 
        1.39811         207.122         25.3166 
        1.41389         204.128         24.6517 
        1.42964         202.413         24.0119 
        1.44531         199.847          23.398 
        1.46101         196.205         22.8043 
        1.47667         193.325         22.2331 
        1.49229         192.438          21.683 
        1.50793         187.326          21.151 
        1.52367         186.538         20.6335 
        1.53953         184.028         20.1299 
        1.55526         180.141         19.6472 
        1.57092         178.546         19.1824 
        1.58662          176.78         18.7315 
        1.60235         173.541         18.2943 
        1.61809         172.735         17.8709 
        1.63369         169.475         17.4647 
        1.64941         166.137         17.0682 
        1.66519         165.103         16.6827 
        1.68085         162.566         16.3119 
        1.69652         161.004         15.9522 
        1.71228         157.886         15.6014 
        1.72806         155.924         15.2609 
        1.74368         154.755          14.934 
        1.75933         151.914          14.616 
        1.77505         150.802         14.3059 
        1.79081         149.274         14.0042 
         1.8065         146.993         13.7126 
        1.82218         145.556         13.4295 
        1.83797         143.869         13.1525 
        1.85367         141.929         12.8848 
        1.86928         139.546         12.6263 
        1.88497         138.329         12.3734 
        1.90073         136.459         12.1266 
        1.91647         134.873         11.8867 
        1.93218         133.549         11.6538 
        1.94787         131.043         11.4275 
        1.96363         129.682         11.2064 
        1.97935         128.439         10.9916 
        1.99499         126.415         10.7836 
        2.01064         124.911         10.5808 
         2.0264         123.741         10.3818 
        2.04216          122.06         10.1882 
        2.05781         120.963         10.0006 
        2.07353         119.982          9.8172 
        2.08928          117.33         9.63796 
        2.10499         116.425         9.46369 
        2.12065         114.823         9.29426 
        2.13633         113.568         9.12884 
        2.15211         111.852         8.96639 
        2.16785         110.278         8.80835 
        2.18349         109.437         8.65512 
        2.19916         108.208         8.50523 
        2.21489         106.918         8.35839 
        2.23063         105.189         8.21493 
         2.2463         104.505         8.07549 
        2.26194         102.779         7.93964 
        2.27765         101.602         7.80622 
        2.29341         100.836         7.67553 
        2.30914         99.5871         7.54811 
        2.32486         98.3448         7.42366 
        2.34061         97.6229         7.30181 
        2.35635         96.0983         7.18281 
        2.37203         94.7838         7.06688 
        2.38768         93.8306         6.95375 
        2.40339          92.905         6.84269 
        2.41914         91.6593         6.73381 
        2.43483         90.8708         6.62768 
         2.4505         89.4519         6.52402 
        2.46622         88.6549         6.42223 
        2.48195          87.214          6.3226 
        2.49759          86.246         6.22563 
        2.51328         85.9998         6.13044 
        2.52906         84.6535         6.03664 
        2.54479         83.5633         5.94516 
        2.56049         82.5048         5.85575 
        2.57618          81.886         5.76826 
        2.59189         80.8088         5.68243 
        2.60758          80.002         5.59849 
        2.62325         79.1114         5.51634 
        2.63898         78.0782         5.43556 
        2.65468         77.1635         5.35657 
        2.67044         76.5005         5.27882 
        2.68618         75.6917         5.20279 
        2.70184         75.3879         5.12856 
        2.71755          73.864          5.0556 
        2.73329         73.3268         4.98394 
        2.74897         72.6369         4.91391 
        2.76462         71.6187         4.84539 
        2.78034         70.9871         4.77789 
        2.79607         69.9184          4.7116 
        2.81179         69.2912         4.64665 
        2.82749         68.6808           4.583 
        2.84321         67.9559         4.52048 
        2.85893         67.2238         4.45914 
        2.87462         66.5268         4.39904 
        2.89033         65.8045            4.34 
        2.90605         65.1085         4.28199 
        2.92176         64.3103         4.22508 
        2.93747         64.0138         4.16922 
        2.95318         63.1097         4.11437 
        2.96891          62.722         4.06048 
        2.98456         61.9893          4.0078 
        3.00023         60.9156         3.95597 
        3.01596          60.565          3.9049 
        3.03164         59.7218         3.85488 
        3.04738          59.387         3.80559 
         3.0631         58.5626         3.75718 
        3.07883         58.2319         3.70961 
        3.09456         57.3646         3.66288 
        3.11026         56.8741         3.61702 
        3.12596         56.0994         3.57195 
        3.14163         55.8651         3.52775 
        3.15734         55.2002          3.4842 
        3.17308         54.4131         3.44128 
        3.18879         54.1722         3.39921 
        3.20447         53.4364         3.35789 
         3.2202         53.1032         3.31714 
         3.2359         52.3853         3.27714 
        3.25157         51.8213         3.23789 
        3.26729         51.4045         3.19917 
        3.28304         50.9621           3.161 
        3.29877         50.6017         3.12351 
        3.31446         49.6228         3.08671 
        3.33014         49.3903         3.05054 
        3.34585         48.9307         3.01489 
        3.36158         48.5775         2.97975 
        3.37727         48.1262         2.94529 
        3.39294          47.745          2.9114 
        3.40867         47.0716         2.87793 
        3.42439         46.6782           2.845 
        3.44008         46.1717         2.81265 
        3.45578         45.7834         2.78078 
        3.47153         45.2655         2.74934 
        3.48724         44.8375         2.71843 
        3.50292         44.5361         2.68808 
        3.51859         44.0785          2.6582 
        3.53431         43.6638         2.62868 
        3.55007         43.0573         2.59954 
        3.56577         42.7718         2.57096 
        3.58146         42.4143         2.54282 
        3.59719         41.9834         2.51504 
        3.61292         41.5478         2.48768 
        3.62859         41.1728         2.46083 
        3.64429         40.8025         2.43433 
        3.66003         40.4345         2.40813 
        3.67578         40.0984         2.38234 
        3.69146          39.662         2.35701 
        3.70712         39.3329         2.33211 
        3.72284         38.8644         2.30747 
        3.73853         38.6269         2.28323 
        3.75422         38.1732         2.25932 
        3.76993         37.9662         2.23574 
        3.78564         37.5062         2.21251 
        3.80137         37.1766         2.18957 
        3.81707         36.8588           2.167 
        3.83279         36.6022         2.14474 
        3.84853         36.2272         2.12275 
        3.86424         35.9776         2.10111 
        3.87992          35.646          2.0798 
        3.89561         35.2943         2.05879 
        3.91134         34.9541         2.03803 
        3.92704         34.6378         2.01758 
        3.94273         34.2361         1.99743 
        3.95845         34.1499         1.97752 
        3.97418         33.7167         1.95787 
        3.98988         33.4918         1.93852 
        4.00554         33.1153         1.91948 
        4.02125         32.7757         1.90065 
        4.03698         32.6288         1.88204 
        4.05268         32.2964         1.86372 
        4.06839         31.9718         1.84563 
         4.0841          31.696         1.82779 
        4.09983         31.4587         1.81015 
        4.11555         31.1405         1.79276 
        4.13124         30.9017         1.77564 
        4.14693         30.7007         1.75874 
        4.16266         30.3187         1.74201 
        4.17839         30.0413         1.72551 
        4.19408         29.8308         1.70927 
        4.20977         29.5737         1.69322 
        4.22551         29.2634         1.67735 
        4.24123          28.996         1.66169 
        4.25691         28.8673         1.64627 
        4.27259         28.5932         1.63105 
        4.28831         28.3724         1.61599 
        4.30404         28.1657          1.6011 
        4.31974         27.8452         1.58644 
        4.33543         27.6697         1.57197 
        4.35116          27.415         1.55764 
        4.36688         27.1935          1.5435 
        4.38255         26.9662         1.52958 
        4.39825         26.6826         1.51581 
        4.41398          26.481         1.50218 
         4.4297         26.1941         1.48873 
        4.44541         26.0803         1.47545 
        4.46111         25.8154         1.46234 
        4.47683         25.6547         1.44938 
        4.49251         25.3642          1.4366 
        4.50819         25.1918         1.42398 
         4.5239         25.0522          1.4115 
        4.53962         24.7279         1.39915 
        4.55535         24.6471         1.38694 
        4.57106         24.4283         1.37489 
        4.58678         24.2175         1.36299 
         4.6025         24.0436         1.35122 
        4.61821          23.797          1.3396 
        4.63391         23.6097         1.32812 
         4.6496         23.4264         1.31679 
        4.66532         23.2713         1.30557 
        4.68103         23.0566         1.29448 
        4.69673           22.87         1.28354 
        4.71241         22.7089         1.27273 
        4.72811         22.5312         1.26203 
        4.74384         22.3393         1.25144 
        4.75955         22.2504         1.24099 
        4.77525          22.023         1.23066 
        4.79096         21.8545         1.22044 
        4.80669          21.601         1.21032 
         4.8224         21.4768         1.20034 
        4.83809          21.298         1.19048 
        4.85379         21.1467         1.18072 
         4.8695         20.9967         1.17106 
        4.88521         20.8052         1.16152 
        4.90093         20.6158         1.15208 
        4.91663         20.4621         1.14276 
        4.93234         20.3092         1.13352 
        4.94807         20.1684         1.12439 
        4.96377         19.9912         1.11537 
        4.97943         19.8727         1.10647 
        4.99514         19.7341         1.09764 
        5.01086         19.5734         1.08891 
        5.02654         19.3903         1.08029 
        5.04227         19.3214         1.07174 
          5.058         19.1802         1.06327 
        5.07371         18.9486         1.05492 
        5.08942         18.8259         1.04665 
        5.10513         18.7015         1.03848 
        5.12084         18.5314         1.03038 
        5.13656         18.4026         1.02237 
        5.15225         18.2878         1.01447 
        5.16796         18.1236         1.00663 
        5.18369         17.9961        0.998867 
         5.1994         17.8958        0.991202 
        5.21509         17.7479        0.983624 
        5.23079         17.5937        0.976116 
        5.24649         17.4991        0.968693 
        5.26217         17.3154        0.961352 
        5.27788         17.2144        0.954077 
        5.29359         17.0997        0.946876 
        5.30933         16.9644        0.939738 
        5.32504         16.8281        0.932687 
        5.34073         16.6938        0.925715 
        5.35646          16.572        0.918801 
        5.37218         16.4531        0.911956 
        5.38789         16.3733        0.905192 
        5.40357          16.244        0.898504 
        5.41929         16.1153        0.891869 
        5.43502         15.9885        0.885301 
         5.4507         15.8973        0.878814 
        5.46639         15.7595        0.872391 
        5.48212         15.6496        0.866018 
        5.49786         15.5409          0.8597 
        5.51353         15.4055        0.853477 
        5.52921         15.3605         0.84731 
        5.54495         15.2282        0.841185 
        5.56066          15.131        0.835128 
        5.57637         15.0033        0.829131 
        5.59207         14.8737        0.823198 
        5.60778         14.7787        0.817321 
        5.62346          14.678         0.81151 
        5.63916         14.5584        0.805749 
        5.65487         14.4369        0.800042 
         5.6706         14.3903        0.794383 
        5.68633         14.2512        0.788777 
        5.70203         14.1773        0.783237 
        5.71773         14.1066        0.777751 
        5.73344         13.9592        0.772314 
        5.74916         13.8994        0.766924 
        5.76486         13.7802        0.761594 
        5.78054         13.6951        0.756322 
        5.79626         13.5818        0.751085 
          5.812         13.4736        0.745893 
         5.8277         13.3829        0.740765 
        5.84339         13.3075        0.735685 
        5.85911         13.2166        0.730643 
        5.87484         13.0966        0.725649 
        5.89053         13.0546        0.720712 
        5.90623         12.9499        0.715819 
        5.92195         12.8361        0.710962 
        5.93767         12.7574        0.706153 
        5.95336         12.6501        0.701397 
        5.96905         12.5769        0.696686 
        5.98476         12.4888        0.692012 
        6.00048          12.432         0.68738 
        6.01617         12.3261        0.682796 
        6.03185         12.2568        0.678259 
        6.04756         12.1672        0.673753 
        6.06331         12.0986        0.669278 
        6.07903         11.9875        0.664853 
        6.09473         11.9275        0.660472 
        6.11044         11.8416        0.656127 
        6.12616         11.7611        0.651821 
        6.14186         11.7034        0.647559 
        6.15755          11.594        0.643335 
        6.17326         11.5233        0.639145 
        6.18898         11.4592        0.634991 
        6.20467         11.3705        0.630881 
        6.22036         11.2884        0.626808 
         6.2361         11.2271        0.622759 
         6.2518         11.1513        0.618754 
        6.26748         11.0982        0.614792 
        6.28319         11.0093        0.610854 
        6.29893         10.9227        0.606947 
        6.31463          10.836        0.603081 
        6.33033          10.768         0.59925 
        6.34604         10.7126        0.595449 
        6.36177         10.6295        0.591678 
        6.37747         10.5765        0.587946 
