# k  (h/Mpc)    Pcb(k)  (Mpc/h)^3    Pcb_linear(k) (Mpc/h)^3   ShotnoiseSubtracted = true
      0.0200456         749.903         759.727 
      0.0350414         520.422         513.854 
      0.0492313         349.848         347.856 
      0.0637834         283.359         284.464 
      0.0800726         229.451         232.594 
       0.096163         166.969         164.701 
       0.111083         126.382         123.674 
       0.126058          108.52         108.754 
       0.142273         95.4746         96.4988 
       0.158546         76.4651         76.2099 
        0.17375          61.935         60.8027 
       0.188953         54.6061          53.998 
       0.204907         48.8307         49.6305 
       0.220756         42.9501         42.7909 
        0.23588         36.3391         36.0024 
         0.2514         32.1416         31.7748 
       0.267535          29.657          29.272 
       0.283568          26.639         26.4114 
       0.299022         23.6412         23.2289 
       0.314451         21.5169         20.7375 
       0.330372         19.4968         19.0569 
       0.346141         17.9412         17.5759 
       0.361624          16.301         15.9737 
       0.377134         14.7807         14.4974 
       0.392932          13.989         13.3432 
       0.408854         12.7097         12.3883 
       0.424564         12.0236         11.4618 
       0.440253         10.9513         10.5657 
       0.455999         10.0175         9.79131 
       0.471626         9.38048         9.14297 
        0.48727         8.96968         8.54838 
       0.502856         8.39833         7.98188 
       0.518488         7.71014         7.46025 
       0.534347         7.19487         6.99422 
       0.550082         6.88384          6.5768 
       0.565732         6.56419         6.18963 
       0.581496         6.14197         5.82507 
       0.597222         5.78065          5.4936 
       0.612804         5.43955         5.19396 
       0.628434         5.21189         4.91592 
       0.644267         4.94793         4.65282 
       0.660051         4.68047         4.40909 
       0.675724         4.41261         4.18574 
       0.691403         4.23035         3.97836 
       0.707174         4.01745         3.78382 
       0.722871         3.91213         3.60301 
        0.73838         3.64647         3.43589 
       0.754018         3.47929         3.27807 
       0.769845         3.29682         3.12841 
        0.78569         3.20502         2.98794 
       0.801365         3.06394         2.85746 
       0.817031          2.9478         2.73488 
       0.832809         2.79355         2.61872 
       0.848511         2.70236         2.50987 
       0.864097         2.60266           2.408 
       0.879701         2.52188         2.31172 
       0.895507         2.39735         2.21961 
       0.911279         2.31726         2.13274 
        0.92691         2.24875         2.05127 
       0.942635         2.13446         1.97364 
       0.958396         2.06755         1.89988 
       0.974128         2.00221         1.83006 
       0.989692         1.91876         1.76445 
        1.00528         1.85683         1.70198 
        1.02113         1.80545         1.64157 
        1.03692         1.75657         1.58433 
        1.05264         1.67454          1.5301 
        1.06832         1.62947         1.47851 
        1.08405         1.56714         1.42917 
        1.09979         1.52989         1.38205 
        1.11537         1.47508         1.33754 
        1.13105         1.41893         1.29474 
        1.14679         1.38512         1.25365 
        1.16256         1.34068         1.21427 
        1.17828         1.31295         1.17671 
        1.19395         1.26545         1.14088 
         1.2097          1.2258         1.10637 
        1.22537         1.18434         1.07346 
          1.241         1.15723         1.04199 
        1.25666         1.13453          1.0117 
        1.27241         1.09937        0.982489 
        1.28819         1.05809        0.954383 
        1.30392         1.03287        0.927463 
        1.31957         1.01021        0.901705 
        1.33529        0.971436        0.876836 
        1.35108        0.951148         0.85281 
        1.36674        0.923399         0.82986 
         1.3824        0.909758        0.807779 
        1.39811        0.881375        0.786431 
        1.41389        0.858142        0.765776 
        1.42964        0.835902        0.745901 
        1.44531        0.817032         0.72683 
        1.46101        0.792393        0.708389 
        1.47667        0.777789        0.690645 
        1.49229        0.751867        0.673558 
        1.50793        0.735655        0.657032 
        1.52367        0.716724        0.640956 
        1.53953        0.698139        0.625312 
        1.55526         0.68798        0.610317 
        1.57092        0.676205        0.595878 
        1.58662        0.663153        0.581872 
        1.60235        0.641521        0.568291 
        1.61809        0.626633        0.555139 
        1.63369        0.608163         0.54252 
        1.64941         0.59945        0.530205 
        1.66519        0.588555        0.518229 
        1.68085        0.571742        0.506709 
        1.69652        0.560134        0.495537 
        1.71228        0.546813         0.48464 
        1.72806        0.536277        0.474062 
        1.74368        0.524956        0.463907 
        1.75933        0.515358         0.45403 
        1.77505        0.506161        0.444396 
        1.79081        0.489594        0.435025 
         1.8065        0.485157        0.425964 
        1.82218        0.471433        0.417171 
        1.83797         0.45875        0.408566 
        1.85367        0.455192        0.400252 
        1.86928        0.444777         0.39222 
        1.88497        0.433285        0.384365 
        1.90073        0.428726        0.376697 
        1.91647        0.417282        0.369246 
        1.93218        0.410722        0.362012 
        1.94787         0.40256        0.354983 
        1.96363        0.395351        0.348114 
        1.97935        0.386829        0.341441 
        1.99499        0.380122        0.334981 
        2.01064        0.373432        0.328679 
         2.0264        0.363867          0.3225 
        2.04216        0.357848        0.316483 
        2.05781        0.352357        0.310658 
        2.07353        0.345128         0.30496 
        2.08928        0.340298        0.299392 
        2.10499        0.333014        0.293978 
        2.12065        0.327265        0.288715 
        2.13633        0.321864        0.283577 
        2.15211        0.315288         0.27853 
        2.16785        0.310866        0.273621 
        2.18349        0.305241        0.268861 
        2.19916        0.299139        0.264205 
        2.21489        0.293467        0.259644 
        2.23063        0.288658        0.255187 
         2.2463        0.284005        0.250856 
        2.26194        0.279829        0.246636 
        2.27765        0.274639        0.242491 
        2.29341        0.269939        0.238431 
        2.30914        0.264173        0.234473 
        2.32486        0.260628        0.230607 
        2.34061        0.255471        0.226822 
        2.35635        0.252051        0.223126 
        2.37203        0.249334        0.219524 
        2.38768        0.244689         0.21601 
        2.40339         0.24019         0.21256 
        2.41914        0.236953        0.209178 
        2.43483        0.232556        0.205881 
         2.4505        0.228946        0.202661 
        2.46622         0.22559        0.199499 
        2.48195        0.221129        0.196404 
        2.49759        0.219826        0.193392 
        2.51328        0.214533        0.190435 
        2.52906        0.211193        0.187521 
        2.54479        0.208208        0.184679 
        2.56049        0.204382        0.181902 
        2.57618         0.20267        0.179184 
        2.59189         0.19841        0.176518 
        2.60758        0.196692        0.173911 
        2.62325        0.193497        0.171359 
        2.63898        0.191287        0.168849 
        2.65468        0.186663        0.166396 
        2.67044        0.184694         0.16398 
        2.68618        0.181917        0.161618 
        2.70184        0.179487        0.159313 
        2.71755        0.176457        0.157046 
        2.73329        0.175023         0.15482 
        2.74897        0.171196        0.152645 
        2.76462        0.169728        0.150516 
        2.78034        0.166631        0.148419 
        2.79607        0.164996         0.14636 
        2.81179        0.161236        0.144343 
        2.82749        0.160097        0.142366 
        2.84321        0.157921        0.140423 
        2.85893        0.155542        0.138518 
        2.87462        0.153236        0.136651 
        2.89033         0.15123        0.134817 
        2.90605        0.149397        0.133015 
        2.92176        0.147913        0.131247 
        2.93747        0.145343        0.129512 
        2.95318        0.143656        0.127808 
        2.96891        0.142023        0.126134 
        2.98456        0.140473        0.124498 
        3.00023        0.138001        0.122888 
        3.01596        0.136168        0.121301 
        3.03164        0.134347        0.119747 
        3.04738         0.13318        0.118216 
         3.0631        0.131327        0.116712 
        3.07883        0.129472        0.115235 
        3.09456        0.128083        0.113783 
        3.11026        0.126091        0.112358 
        3.12596        0.124463        0.110958 
        3.14163        0.123274        0.109586 
        3.15734         0.12212        0.108233 
        3.17308        0.120424        0.106899 
        3.18879        0.118883        0.105592 
        3.20447        0.117255        0.104309 
         3.2202        0.116335        0.103043 
         3.2359        0.114653        0.101801 
        3.25157        0.112979        0.100581 
        3.26729        0.112152       0.0993784 
        3.28304        0.111009       0.0981929 
        3.29877        0.109192       0.0970283 
        3.31446        0.108621       0.0958851 
        3.33014        0.107148       0.0947613 
        3.34585        0.105499       0.0936539 
        3.36158        0.104561       0.0925625 
        3.37727        0.103691        0.091492 
        3.39294        0.102688       0.0904394 
        3.40867        0.101235       0.0893995 
        3.42439        0.100455       0.0883766 
        3.44008        0.099483       0.0873717 
        3.45578       0.0984323       0.0863817 
        3.47153       0.0975081       0.0854049 
        3.48724       0.0964593       0.0844449 
        3.50292       0.0957588        0.083502 
        3.51859       0.0945526       0.0825738 
        3.53431       0.0934995        0.081657 
        3.55007       0.0926891       0.0807518 
        3.56577       0.0921131       0.0798639 
        3.58146       0.0909241       0.0789898 
        3.59719       0.0900199       0.0781267 
        3.61292        0.089165       0.0772769 
        3.62859       0.0886396       0.0764428 
        3.64429       0.0872357       0.0756196 
        3.66003       0.0868823       0.0748059 
        3.67578       0.0859735       0.0740045 
        3.69146        0.085299       0.0732179 
        3.70712       0.0844639       0.0724442 
        3.72284       0.0836813       0.0716787 
        3.73853       0.0831663       0.0709257 
        3.75422       0.0822529       0.0701832 
        3.76993       0.0815976       0.0694508 
        3.78564       0.0809823       0.0687291 
        3.80137       0.0804821       0.0680164 
        3.81707       0.0793407       0.0673154 
        3.83279       0.0788884       0.0666237 
        3.84853       0.0782453       0.0659406 
        3.86424       0.0774488       0.0652685 
        3.87992       0.0769604       0.0646067 
        3.89561       0.0762635        0.063954 
        3.91134       0.0754618       0.0633091 
        3.92704       0.0748115       0.0626738 
        3.94273       0.0741612       0.0620478 
        3.95845       0.0734483       0.0614293 
        3.97418       0.0730366        0.060819 
        3.98988       0.0719028       0.0602179 
        4.00554       0.0714781       0.0596266 
        4.02125       0.0707588       0.0590415 
        4.03698         0.06977       0.0584633 
        4.05268       0.0691105       0.0578942 
        4.06839       0.0680936       0.0573323 
         4.0841       0.0671427        0.056778 
        4.09983       0.0663771       0.0562303 
        4.11555       0.0654688         0.05569 
        4.13124       0.0646325       0.0551583 
        4.14693       0.0638203       0.0546331 
        4.16266       0.0630594       0.0541136 
        4.17839       0.0623249       0.0536011 
        4.19408       0.0614892       0.0530964 
        4.20977       0.0608969        0.052598 
        4.22551       0.0602363       0.0521048 
        4.24123       0.0595183       0.0516184 
        4.25691         0.05904       0.0511396 
        4.27259        0.058374       0.0506667 
        4.28831       0.0579932       0.0501988 
        4.30404       0.0571425       0.0497364 
        4.31974       0.0567035       0.0492809 
        4.33543       0.0563413       0.0488313 
        4.35116        0.055934       0.0483862 
        4.36688       0.0553051       0.0479469 
        4.38255       0.0549338       0.0475146 
        4.39825       0.0546237       0.0470868 
        4.41398       0.0541257       0.0466634 
         4.4297       0.0538564       0.0462456 
        4.44541       0.0534798        0.045833 
        4.46111        0.053083       0.0454258 
        4.47683       0.0528307       0.0450232 
        4.49251       0.0526093       0.0446264 
        4.50819       0.0524446       0.0442344 
         4.5239       0.0520898       0.0438466 
        4.53962       0.0518726       0.0434629 
        4.55535        0.051821       0.0430836 
        4.57106       0.0515808       0.0427095 
        4.58678       0.0514313       0.0423397 
         4.6025       0.0513319       0.0419741 
        4.61821       0.0513142        0.041613 
        4.63391       0.0512254       0.0412566 
         4.6496        0.051095       0.0409045 
        4.66532       0.0510573        0.040556 
        4.68103       0.0510448       0.0402117 
        4.69673       0.0509839       0.0398717 
        4.71241       0.0511581       0.0395359 
        4.72811       0.0510444       0.0392036 
        4.74384       0.0509817       0.0388746 
        4.75955       0.0511075       0.0385498 
        4.77525       0.0512673        0.038229 
        4.79096       0.0514342       0.0379114 
        4.80669        0.051401       0.0375973 
         4.8224        0.051652       0.0372871 
        4.83809       0.0517753       0.0369808 
        4.85379       0.0519841       0.0366777 
         4.8695       0.0522871       0.0363777 
        4.88521       0.0523905       0.0360813 
        4.90093       0.0528105        0.035788 
        4.91663       0.0529923       0.0354984 
        4.93234       0.0531958       0.0352116 
        4.94807       0.0535732       0.0349278 
        4.96377       0.0538272       0.0346476 
        4.97943       0.0545314       0.0343712 
        4.99514        0.054561        0.034097 
        5.01086       0.0549446       0.0338256 
        5.02654       0.0556154       0.0335579 
        5.04227       0.0559366       0.0332922 
          5.058       0.0561889       0.0330293 
        5.07371       0.0569071       0.0327698 
        5.08942       0.0575137       0.0325131 
        5.10513        0.057998        0.032259 
        5.12084       0.0584752       0.0320076 
        5.13656       0.0589991       0.0317589 
        5.15225       0.0598799       0.0315132 
        5.16796       0.0603924       0.0312697 
        5.18369       0.0610566       0.0310286 
         5.1994        0.061686       0.0307905 
        5.21509       0.0625375       0.0305551 
        5.23079       0.0632355       0.0303219 
        5.24649       0.0640409       0.0300913 
        5.26217       0.0648748       0.0298633 
        5.27788       0.0658061       0.0296373 
        5.29359       0.0667428       0.0294136 
        5.30933       0.0674196       0.0291919 
        5.32504       0.0684284       0.0289728 
        5.34073       0.0691155       0.0287563 
        5.35646        0.070287       0.0285415 
        5.37218       0.0712745       0.0283289 
        5.38789       0.0724015       0.0281187 
        5.40357       0.0733234        0.027911 
        5.41929       0.0744177       0.0277049 
        5.43502       0.0760095       0.0275008 
         5.4507       0.0769333       0.0272993 
        5.46639       0.0780959       0.0270998 
        5.48212       0.0793099       0.0269018 
        5.49786       0.0806879       0.0267056 
        5.51353        0.082563       0.0265123 
        5.52921       0.0831565       0.0263207 
        5.54495       0.0851017       0.0261304 
        5.56066       0.0863475       0.0259423 
        5.57637       0.0878673        0.025756 
        5.59207       0.0889172       0.0255717 
        5.60778       0.0906657       0.0253891 
        5.62346       0.0923751       0.0252086 
        5.63916       0.0938785       0.0250297 
        5.65487       0.0964087       0.0248524 
         5.6706       0.0970061       0.0246766 
        5.68633       0.0992052       0.0245024 
        5.70203        0.101159       0.0243303 
        5.71773        0.103178       0.0241599 
        5.73344        0.105437        0.023991 
        5.74916        0.107466       0.0238236 
        5.76486        0.109278        0.023658 
        5.78054        0.111405       0.0234943 
        5.79626        0.113636       0.0233316 
          5.812         0.11555       0.0231703 
         5.8277        0.117783        0.023011 
        5.84339        0.120103       0.0228532 
        5.85911        0.122075       0.0226966 
        5.87484        0.124607       0.0225414 
        5.89053        0.127248       0.0223881 
        5.90623        0.130762       0.0222361 
        5.92195        0.132084       0.0220852 
        5.93767         0.13509       0.0219358 
        5.95336        0.138079       0.0217881 
        5.96905        0.141038       0.0216417 
        5.98476        0.143028       0.0214966 
        6.00048        0.146109       0.0213526 
        6.01617        0.149024       0.0212102 
        6.03185        0.152088       0.0210693 
        6.04756        0.154454       0.0209293 
        6.06331        0.158689       0.0207903 
        6.07903         0.16184       0.0206529 
        6.09473        0.164181       0.0205168 
        6.11044        0.169574       0.0203818 
        6.12616        0.170212       0.0202481 
        6.14186        0.174804       0.0201157 
        6.15755         0.17838       0.0199844 
        6.17326        0.182341       0.0198543 
        6.18898        0.185011       0.0197253 
        6.20467        0.189149       0.0195976 
        6.22036        0.192467        0.019471 
         6.2361         0.19509       0.0193453 
         6.2518         0.20044       0.0192209 
        6.26748        0.205032       0.0190978 
        6.28319        0.209433       0.0189755 
        6.29893        0.213168       0.0188541 
        6.31463        0.217567        0.018734 
        6.33033        0.220173        0.018615 
        6.34604        0.225407       0.0184969 
        6.36177        0.229448       0.0183798 
        6.37747        0.233299       0.0182639 
