#  k  (h/Mpc)          P(k)  (Mpc/h)^3     P_linear(k) (Mpc/h)^3
      0.0200456         24256.9         24643.4 
      0.0350414         17002.4         16355.8 
      0.0492313           10864         11016.1 
      0.0637834         8500.42         8829.61 
      0.0800726         6645.18         7019.87 
       0.096163         5256.29         4947.07 
       0.111083         4092.23         3735.27 
       0.126058         3334.76          3247.1 
       0.142273          2953.8          2815.8 
       0.158546         2400.61         2207.56 
        0.17375         2094.56         1773.04 
       0.188953         1967.99         1570.14 
       0.204907         1688.32         1419.34 
       0.220756         1526.68         1210.11 
        0.23588         1348.08         1020.32 
         0.2514          1208.6         902.536 
       0.267535         1164.42         824.017 
       0.283568         1032.46         735.161 
       0.299022         976.595         644.899 
       0.314451         1016.34         576.736 
       0.330372         885.847         528.065 
       0.346141         811.317         483.197 
       0.361624          776.22         436.963 
       0.377134         743.193         396.329 
       0.392932         703.154         364.252 
       0.408854         674.571         336.556 
       0.424564         657.047         309.871 
       0.440253         604.426          284.98 
       0.455999         575.726         263.697 
       0.471626         586.777         245.542 
        0.48727         550.036         228.725 
       0.502856         527.317         212.929 
       0.518488         509.363         198.632 
       0.534347         489.728         185.819 
       0.550082         465.111         174.253 
       0.565732         457.878         163.542 
       0.581496         446.293         153.571 
       0.597222         436.119         144.536 
       0.612804         423.782         136.359 
       0.628434         406.465         128.754 
       0.644267         393.419         121.597 
       0.660051         389.184         114.996 
       0.675724         379.213         108.953 
       0.691403         369.916          103.35 
       0.707174         357.485         98.1055 
       0.722871         354.456         93.2396 
        0.73838          344.54         88.7504 
       0.754018         334.521         84.5187 
       0.769845         332.779         80.5131 
        0.78569         323.846         76.7601 
       0.801365         312.709         73.2803 
       0.817031         311.218         70.0167 
       0.832809         304.957         66.9298 
       0.848511         300.129         64.0418 
       0.864097          290.34         61.3434 
       0.879701         290.879         58.7975 
       0.895507         280.363         56.3656 
       0.911279          274.65         54.0759 
        0.92691         272.504         51.9318 
       0.942635          268.12         49.8918 
       0.958396           260.3         47.9566 
       0.974128         257.401         46.1272 
       0.989692         249.725         44.4108 
        1.00528         247.302         42.7788 
        1.02113         244.771         41.2029 
        1.03692         240.238         39.7118 
        1.05264         236.234          38.301 
        1.06832         232.006         36.9604 
        1.08405         229.395         35.6801 
        1.09979         224.796         34.4593 
        1.11537         221.238         33.3074 
        1.13105         217.306         32.2009 
        1.14679         214.888         31.1402 
        1.16256          212.77         30.1249 
        1.17828         209.501         29.1579 
        1.19395         204.448         28.2363 
         1.2097         203.984         27.3497 
        1.22537         200.677         26.5052 
          1.241         194.527         25.6986 
        1.25666         194.186         24.9234 
        1.27241         191.082         24.1764 
        1.28819         188.088         23.4585 
        1.30392         187.318         22.7717 
        1.31957           182.1         22.1153 
        1.33529         178.743         21.4822 
        1.35108         178.669         20.8713 
        1.36674         173.318         20.2883 
         1.3824         172.139          19.728 
        1.39811         171.024         19.1869 
        1.41389         167.096         18.6638 
        1.42964         164.084          18.161 
        1.44531         163.488         17.6791 
        1.46101         160.303         17.2136 
        1.47667         158.894          16.766 
        1.49229         157.103         16.3355 
        1.50793         154.264         15.9195 
        1.52367         151.651         15.5152 
        1.53953         149.665         15.1222 
        1.55526         147.863         14.7458 
        1.57092         147.085         14.3837 
        1.58662         144.068         14.0328 
        1.60235         142.483         13.6929 
        1.61809         140.178          13.364 
        1.63369         137.786         13.0487 
        1.64941          136.78         12.7413 
        1.66519         134.377         12.4426 
        1.68085          132.45         12.1555 
        1.69652         131.639         11.8773 
        1.71228         129.289         11.6062 
        1.72806         128.175         11.3433 
        1.74368         126.686         11.0911 
        1.75933         125.402         10.8461 
        1.77505         123.612         10.6072 
        1.79081         121.728          10.375 
         1.8065          120.08         10.1508 
        1.82218         117.822         9.93328 
        1.83797          117.05         9.72063 
        1.85367         115.621         9.51533 
        1.86928         114.439         9.31715 
        1.88497         113.295          9.1235 
        1.90073         112.251         8.93459 
        1.91647         110.208         8.75116 
        1.93218         108.769         8.57323 
        1.94787         106.999         8.40047 
        1.96363         106.572         8.23175 
        1.97935         105.204         8.06798 
        1.99499         103.783         7.90955 
        2.01064         102.181         7.75512 
         2.0264         101.076         7.60381 
        2.04216         99.6135         7.45658 
        2.05781         98.3726         7.31415 
        2.07353         97.7006         7.17491 
        2.08928         96.1636         7.03895 
        2.10499         95.6376         6.90686 
        2.12065         94.0474         6.77853 
        2.13633         93.2497         6.65332 
        2.15211         91.7292         6.53044 
        2.16785           90.81         6.41099 
        2.18349            89.3         6.29524 
        2.19916         89.2105         6.18209 
        2.21489         87.7951         6.07133 
        2.23063         86.2964         5.96318 
         2.2463          85.563         5.85813 
        2.26194         84.7302         5.75585 
        2.27765         83.7386         5.65548 
        2.29341         82.5857         5.55721 
        2.30914         81.3787         5.46147 
        2.32486         80.5236         5.36801 
        2.34061         79.3021         5.27657 
        2.35635         78.8838         5.18733 
        2.37203          77.632         5.10044 
        2.38768         76.7571          5.0157 
        2.40339         75.7615         4.93257 
        2.41914         75.0612         4.85111 
        2.43483         74.2317         4.77177 
         2.4505         73.1482         4.69432 
        2.46622         72.3415          4.6183 
        2.48195         71.8616         4.54396 
        2.49759          70.726         4.47163 
        2.51328         70.0514         4.40067 
        2.52906         69.0994          4.3308 
        2.54479         68.2206         4.26268 
        2.56049         67.2576         4.19616 
        2.57618         66.6354          4.1311 
        2.59189         65.7943         4.06731 
        2.60758         64.9526         4.00495 
        2.62325         64.2655         3.94397 
        2.63898         64.0013         3.88403 
        2.65468         63.1346         3.82546 
        2.67044         62.3953         3.76783 
        2.68618          61.693         3.71151 
        2.70184         61.0499         3.65656 
        2.71755         60.2293         3.60257 
        2.73329         59.5721         3.54959 
        2.74897         59.1241         3.49783 
        2.76462         58.3734         3.44721 
        2.78034         57.5282         3.39737 
        2.79607         57.0564         3.34846 
        2.81179         56.5656         3.30056 
        2.82749         56.2115         3.25364 
        2.84321         55.2464         3.20758 
        2.85893         54.7129         3.16241 
        2.87462         54.3967         3.11818 
        2.89033           53.47         3.07475 
        2.90605         52.9556          3.0321 
        2.92176         52.4149         2.99028 
        2.93747         52.1491         2.94926 
        2.95318         51.4147         2.90899 
        2.96891         50.7973         2.86946 
        2.98456         50.2025         2.83082 
        3.00023          49.844         2.79283 
        3.01596         49.1767         2.75542 
        3.03164         48.5644         2.71879 
        3.04738         48.2556         2.68272 
         3.0631         47.6323          2.6473 
        3.07883         47.0444         2.61252 
        3.09456         46.4848         2.57837 
        3.11026         46.1175         2.54487 
        3.12596         45.5188         2.51196 
        3.14163          45.164         2.47971 
        3.15734         44.5192         2.44795 
        3.17308         44.1194         2.41666 
        3.18879         43.8571         2.38599 
        3.20447         43.4464          2.3559 
         3.2202         42.8911         2.32623 
         3.2359         42.4314         2.29712 
        3.25157         42.0797         2.26857 
        3.26729         41.6226         2.24042 
        3.28304         41.1443         2.21269 
        3.29877         40.7323         2.18545 
        3.31446         40.2974         2.15874 
        3.33014         39.9567         2.13248 
        3.34585         39.4628         2.10662 
        3.36158          39.123         2.08115 
        3.37727         38.6672         2.05617 
        3.39294         38.3726         2.03162 
        3.40867          38.007         2.00739 
        3.42439         37.7527         1.98355 
        3.44008         37.2321         1.96015 
        3.45578         36.8482          1.9371 
        3.47153         36.4176         1.91437 
        3.48724         36.1098         1.89204 
        3.50292         35.7041         1.87012 
        3.51859          35.384         1.84855 
        3.53431         35.0386         1.82725 
        3.55007         34.7247         1.80623 
        3.56577         34.4632         1.78563 
        3.58146         34.0915         1.76535 
        3.59719         33.7816         1.74533 
        3.61292         33.3857         1.72563 
        3.62859         33.0965         1.70631 
        3.64429         32.7451         1.68724 
        3.66003         32.5641          1.6684 
        3.67578         32.2166         1.64985 
        3.69146         31.8319         1.63166 
        3.70712         31.6235         1.61377 
        3.72284         31.2896         1.59607 
        3.73853         31.0023         1.57867 
        3.75422         30.6165         1.56153 
        3.76993          30.512         1.54462 
        3.78564         30.1403         1.52796 
        3.80137         29.9535         1.51152 
        3.81707         29.4951         1.49536 
        3.83279          29.384         1.47941 
        3.84853         29.0646         1.46367 
        3.86424         28.7534         1.44819 
        3.87992         28.5184         1.43296 
        3.89561         28.2216         1.41794 
        3.91134         27.9792          1.4031 
        3.92704         27.7049         1.38849 
        3.94273         27.4647          1.3741 
        3.95845         27.1668         1.35989 
        3.97418         26.9665         1.34587 
        3.98988         26.6673         1.33207 
        4.00554         26.4791         1.31849 
        4.02125         26.1913         1.30507 
        4.03698         25.9361         1.29181 
        4.05268         25.8062         1.27876 
        4.06839         25.4821         1.26588 
         4.0841         25.2542         1.25319 
        4.09983         24.9628         1.24064 
        4.11555         24.7126         1.22827 
        4.13124           24.59         1.21611 
        4.14693         24.3447         1.20409 
        4.16266         24.1455         1.19221 
        4.17839         23.9174         1.18049 
        4.19408         23.7378         1.16896 
        4.20977         23.5395         1.15758 
        4.22551         23.2682         1.14631 
        4.24123         23.1086         1.13521 
        4.25691         22.8654         1.12428 
        4.27259         22.7268          1.1135 
        4.28831         22.4781         1.10283 
        4.30404         22.2735         1.09229 
        4.31974         22.1668         1.08191 
        4.33543         21.8959         1.07167 
        4.35116         21.7292         1.06153 
        4.36688         21.5769         1.05153 
        4.38255         21.3536          1.0417 
        4.39825         21.1635         1.03196 
        4.41398         21.0162         1.02233 
         4.4297         20.8507         1.01284 
        4.44541         20.6437         1.00346 
        4.46111         20.4581        0.994211 
        4.47683         20.3311         0.98507 
        4.49251         20.0964         0.97606 
        4.50819         19.9616        0.967165 
         4.5239         19.7448        0.958367 
        4.53962         19.6025        0.949666 
        4.55535         19.4378        0.941068 
        4.57106           19.28        0.932588 
        4.58678         19.0839         0.92421 
         4.6025         18.9678        0.915931 
        4.61821         18.7549        0.907755 
        4.63391         18.6283        0.899688 
         4.6496         18.4958        0.891721 
        4.66532         18.3201        0.883838 
        4.68103         18.2124        0.876053 
        4.69673         17.9731        0.868368 
        4.71241         17.8545        0.860782 
        4.72811         17.6827        0.853273 
        4.74384         17.5651        0.845843 
        4.75955         17.3942        0.838513 
        4.77525         17.2614        0.831272 
        4.79096         17.1452        0.824108 
        4.80669          17.014        0.817023 
         4.8224         16.8571         0.81003 
        4.83809         16.6855        0.803124 
        4.85379         16.5592        0.796295 
         4.8695         16.4772        0.789538 
        4.88521         16.2655        0.782862 
        4.90093         16.1623        0.776262 
        4.91663         16.0509        0.769742 
        4.93234          15.906         0.76329 
        4.94807         15.8181        0.756908 
        4.96377         15.6226        0.750609 
        4.97943         15.5336        0.744394 
        4.99514         15.4439        0.738234 
        5.01086         15.2728        0.732137 
        5.02654         15.1791        0.726125 
        5.04227         15.0657        0.720162 
          5.058         14.9219        0.714262 
        5.07371         14.7932        0.708439 
        5.08942         14.7216         0.70268 
        5.10513         14.5903        0.696984 
        5.12084         14.4833        0.691347 
        5.13656          14.342        0.685773 
        5.15225         14.2834         0.68027 
        5.16796         14.1296        0.674817 
        5.18369         14.0295        0.669419 
         5.1994         13.8859        0.664089 
        5.21509         13.8236        0.658822 
        5.23079         13.7025        0.653605 
        5.24649          13.587        0.648448 
        5.26217         13.4887        0.643349 
        5.27788         13.3422        0.638298 
        5.29359         13.2615        0.633299 
        5.30933          13.177        0.628347 
        5.32504         13.0857        0.623455 
        5.34073         12.9725         0.61862 
        5.35646          12.884        0.613826 
        5.37218          12.781        0.609082 
        5.38789         12.7017        0.604395 
        5.40357         12.6183        0.599762 
        5.41929         12.4983        0.595167 
        5.43502         12.3888         0.59062 
         5.4507         12.3091         0.58613 
        5.46639         12.2281        0.581686 
        5.48212         12.1178        0.577277 
        5.49786         11.9873        0.572908 
        5.51353         11.9719        0.568605 
        5.52921         11.8576        0.564342 
        5.54495         11.7616         0.56011 
        5.56066         11.6422        0.555925 
        5.57637         11.5648        0.551784 
        5.59207         11.4904        0.547687 
        5.60778         11.4121        0.543631 
        5.62346          11.329        0.539621 
        5.63916         11.2408        0.535647 
        5.65487         11.1373         0.53171 
         5.6706         11.0482        0.527809 
        5.68633         10.9977        0.523944 
        5.70203         10.9061        0.520126 
        5.71773         10.8262        0.516347 
        5.73344         10.7459        0.512602 
        5.74916         10.6605        0.508891 
        5.76486         10.5933        0.505221 
        5.78054         10.4883        0.501593 
        5.79626         10.4382         0.49799 
          5.812         10.3588        0.494418 
         5.8277         10.3106        0.490892 
        5.84339         10.2102        0.487399 
        5.85911         10.1249        0.483934 
        5.87484         10.0379        0.480502 
        5.89053         9.98608        0.477111 
        5.90623         9.90849         0.47375 
        5.92195         9.83056        0.470415 
        5.93767         9.77122        0.467114 
        5.95336         9.69628         0.46385 
        5.96905         9.61056        0.460618 
        5.98476         9.55362        0.457412 
        6.00048         9.47412        0.454235 
        6.01617         9.42853        0.451093 
        6.03185         9.33669        0.447983 
        6.04756         9.30629        0.444895 
        6.06331         9.22922         0.44183 
        6.07903         9.16482        0.438799 
        6.09473         9.09263          0.4358 
        6.11044         9.03307        0.432825 
        6.12616         8.95741        0.429879 
        6.14186         8.89258        0.426963 
        6.15755          8.8293        0.424073 
        6.17326          8.7649        0.421208 
        6.18898         8.72763        0.418368 
        6.20467         8.64287        0.415559 
        6.22036         8.57247        0.412775 
         6.2361         8.52676        0.410009 
         6.2518          8.4788        0.407273 
        6.26748         8.40143        0.404568 
        6.28319         8.34791         0.40188 
        6.29893         8.27309        0.399213 
        6.31463         8.23143        0.396575 
        6.33033         8.16947        0.393961 
        6.34604         8.11926        0.391369 
        6.36177         8.07343        0.388798 
        6.37747         8.00104        0.386254 
