# k  (h/Mpc)    Pcb(k)  (Mpc/h)^3    Pcb_linear(k) (Mpc/h)^3   ShotnoiseSubtracted = true
      0.0200456         22361.1         22758.6 
      0.0350414           17068         16544.7 
      0.0492313           11754         12021.1 
      0.0637834         9474.72            9993 
      0.0800726         7434.19          7931.2 
       0.096163          5982.2         5754.77 
       0.111083         4872.82         4590.16 
       0.126058         4026.95         4067.81 
       0.142273         3530.85         3446.33 
       0.158546         2897.88         2721.88 
        0.17375         2593.77         2293.18 
       0.188953         2462.07         2076.42 
       0.204907            2119         1837.21 
       0.220756         1917.66         1554.39 
        0.23588         1712.71         1352.19 
         0.2514         1552.93         1228.45 
       0.267535         1498.39         1111.53 
       0.283568         1337.15         980.224 
       0.299022         1275.49         873.329 
       0.314451         1329.71         798.163 
       0.330372          1177.7         732.225 
       0.346141         1082.16         664.606 
       0.361624         1039.18         604.036 
       0.377134         997.637         555.808 
       0.392932         951.438         514.279 
       0.408854         913.289         474.066 
       0.424564         894.462         436.953 
       0.440253         830.635         405.106 
       0.455999         794.799         377.414 
       0.471626         809.253         351.965 
        0.48727         764.399         328.159 
       0.502856         734.878         306.773 
       0.518488         713.202         287.691 
       0.534347         685.829         269.952 
       0.550082         654.459         253.595 
       0.565732         645.434         238.631 
       0.581496         632.302         224.926 
       0.597222         619.504         212.356 
       0.612804         604.975         200.799 
       0.628434         580.505         190.026 
       0.644267         564.908         179.954 
       0.660051         559.019         170.672 
       0.675724         547.941           162.1 
       0.691403         532.433          154.11 
       0.707174         516.849         146.614 
       0.722871         511.674         139.646 
        0.73838         500.734         133.205 
       0.754018         488.755         127.122 
       0.769845         483.049         121.353 
        0.78569          473.06         115.937 
       0.801365         457.424         110.906 
       0.817031         454.003         106.177 
       0.832809         447.221         101.696 
       0.848511         439.986         97.4946 
       0.864097         430.174         93.5605 
       0.879701         429.493         89.8409 
       0.895507         412.927         86.2805 
       0.911279         407.454         82.9214 
        0.92691          403.17         79.7698 
       0.942635         398.665         76.7653 
       0.958396         385.889         73.9099 
       0.974128         381.217         71.2055 
       0.989692         370.403         68.6638 
        1.00528          367.52         66.2429 
        1.02113         361.417         63.9012 
        1.03692         356.096         61.6819 
        1.05264         351.012         59.5786 
        1.06832         344.054         57.5771 
        1.08405         342.304         55.6625 
        1.09979          335.36         53.8343 
        1.11537         326.704         52.1066 
        1.13105          323.23         50.4447 
        1.14679         318.139         48.8491 
        1.16256         316.438         47.3197 
        1.17828         311.315         45.8611 
        1.19395         303.629         44.4691 
         1.2097         302.394          43.128 
        1.22537         297.396         41.8489 
          1.241         290.912         40.6257 
        1.25666         288.364         39.4485 
        1.27241         284.517         38.3126 
        1.28819         278.037         37.2196 
        1.30392         278.207         36.1726 
        1.31957         270.248         35.1707 
        1.33529         267.053         34.2032 
        1.35108         265.772         33.2684 
        1.36674         258.585         32.3752 
         1.3824         256.624         31.5158 
        1.39811         253.958         30.6849 
        1.41389         247.739         29.8807 
        1.42964         244.929         29.1069 
        1.44531         242.582         28.3643 
        1.46101         238.381         27.6461 
        1.47667         235.752          26.955 
        1.49229         232.532         26.2894 
        1.50793          229.37         25.6456 
        1.52367         225.925         25.0193 
        1.53953         221.993         24.4097 
        1.55526         220.165         23.8254 
        1.57092         218.378         23.2627 
        1.58662         213.445         22.7168 
        1.60235         211.217         22.1874 
        1.61809         209.102         21.6747 
        1.63369         205.193         21.1828 
        1.64941         202.436         20.7026 
        1.66519          200.06         20.2357 
        1.68085         196.625         19.7865 
        1.69652         194.921         19.3508 
        1.71228         191.887         18.9258 
        1.72806         189.908         18.5133 
        1.74368          187.67         18.1172 
        1.75933         186.431         17.7319 
        1.77505         183.588         17.3561 
        1.79081         179.942         16.9905 
         1.8065         178.833          16.637 
        1.82218         174.663         16.2939 
        1.83797         173.653         15.9581 
        1.85367         171.123         15.6337 
        1.86928         168.715         15.3203 
        1.88497         167.375         15.0137 
        1.90073         165.687         14.7145 
        1.91647         162.493         14.4237 
        1.93218         160.365         14.1413 
        1.94787         158.363          13.867 
        1.96363         157.807         13.5988 
        1.97935         155.892         13.3383 
        1.99499          153.46         13.0861 
        2.01064         150.255         12.8401 
         2.0264         149.928         12.5988 
        2.04216         147.463         12.3639 
        2.05781         144.907         12.1365 
        2.07353         144.133          11.914 
        2.08928         142.327         11.6966 
        2.10499         140.957         11.4852 
        2.12065         139.357         11.2796 
        2.13633          137.34         11.0789 
        2.15211         135.173         10.8819 
        2.16785         133.878         10.6901 
        2.18349         132.411         10.5042 
        2.19916         130.639         10.3223 
        2.21489         129.106         10.1442 
        2.23063         127.484          9.9701 
         2.2463         125.761         9.80089 
        2.26194         124.813         9.63604 
        2.27765         122.819         9.47414 
        2.29341         121.837         9.31554 
        2.30914         120.574         9.16091 
        2.32486          118.44         9.00987 
        2.34061         117.208         8.86199 
        2.35635         116.374         8.71756 
        2.37203         114.358         8.57685 
        2.38768         113.647         8.43955 
        2.40339         111.622         8.30475 
        2.41914         110.612         8.17259 
        2.43483         109.846         8.04377 
         2.4505         108.271         7.91795 
        2.46622         106.774         7.79439 
        2.48195         105.915         7.67345 
        2.49759         104.352         7.55573 
        2.51328         103.457         7.44018 
        2.52906         102.365         7.32631 
        2.54479         100.996         7.21525 
        2.56049         99.7006         7.10671 
        2.57618         98.7333          7.0005 
        2.59189         97.9705          6.8963 
        2.60758         96.3556         6.79439 
        2.62325         95.9524         6.69466 
        2.63898          94.762         6.59659 
        2.65468         93.7698         6.50068 
        2.67044         92.5356         6.40628 
        2.68618         91.2944         6.31397 
        2.70184         90.2863         6.22384 
        2.71755         89.7208         6.13525 
        2.73329         88.1878         6.04825 
        2.74897         87.4083         5.96322 
        2.76462         86.9264         5.88002 
        2.78034         85.3462         5.79806 
        2.79607         84.3832         5.71758 
        2.81179         83.7843         5.63871 
        2.82749         82.9761         5.56142 
        2.84321         81.7086          5.4855 
        2.85893         80.6148         5.41102 
        2.87462         80.1043         5.33804 
        2.89033         79.1857         5.26635 
        2.90605         78.4471         5.19591 
        2.92176         77.6789         5.12679 
        2.93747          76.913         5.05897 
        2.95318         75.6473         4.99236 
        2.96891         75.2223         4.92692 
        2.98456         74.2241         4.86295 
        3.00023          73.521         4.80001 
        3.01596         72.9596           4.738 
        3.03164         72.0563         4.67725 
        3.04738         71.7442          4.6174 
         3.0631         70.5001         4.55861 
        3.07883         69.9986         4.50084 
        3.09456         69.0871         4.44409 
        3.11026         68.5931          4.3884 
        3.12596          67.768         4.33367 
        3.14163           67.08            4.28 
        3.15734         66.1757         4.22711 
        3.17308         65.7502         4.17499 
        3.18879         65.1212         4.12389 
        3.20447         64.6089         4.07372 
         3.2202          63.625         4.02423 
         3.2359         63.0025         3.97565 
        3.25157          62.664         3.92799 
        3.26729         61.9256         3.88096 
        3.28304         61.0572         3.83461 
        3.29877         60.6803         3.78908 
        3.31446         59.9608         3.74439 
        3.33014         59.4875         3.70046 
        3.34585         58.9083         3.65716 
        3.36158          58.504          3.6145 
        3.37727         57.7903         3.57264 
        3.39294         57.2267         3.53149 
        3.40867         56.7509         3.49084 
        3.42439         56.1101         3.45085 
        3.44008         55.4922         3.41157 
        3.45578         55.0383         3.37287 
        3.47153         54.5306         3.33468 
        3.48724         53.9827         3.29715 
        3.50292         53.4455         3.26028 
        3.51859         53.0188           3.224 
        3.53431         52.3435         3.18816 
        3.55007         51.8137         3.15277 
        3.56577         51.3369         3.11806 
        3.58146         50.7944         3.08388 
        3.59719         50.3819         3.05014 
        3.61292         49.7789         3.01692 
        3.62859          49.473         2.98432 
        3.64429         49.1031         2.95213 
        3.66003         48.6865         2.92032 
        3.67578         48.1372           2.889 
        3.69146         47.7186         2.85824 
        3.70712         47.3457           2.828 
        3.72284         46.8617         2.79808 
        3.73853         46.4047         2.76864 
        3.75422         45.9383         2.73961 
        3.76993         45.5695         2.71098 
        3.78564          45.147         2.68277 
        3.80137         44.8353         2.65491 
        3.81707         44.2692         2.62751 
        3.83279         43.9755         2.60047 
        3.84853         43.4812         2.57376 
        3.86424         43.0539         2.54749 
        3.87992         42.6918         2.52162 
        3.89561         42.3866         2.49611 
        3.91134         42.0028         2.47089 
        3.92704         41.6126         2.44606 
        3.94273         41.2713         2.42159 
        3.95845         40.8344         2.39741 
        3.97418         40.5151         2.37356 
        3.98988         40.1213         2.35006 
        4.00554         39.7575         2.32695 
        4.02125         39.5201         2.30408 
        4.03698         39.0524         2.28148 
        4.05268         38.8818         2.25923 
        4.06839         38.4533         2.23727 
         4.0841         38.2119          2.2156 
        4.09983         37.7624         2.19419 
        4.11555         37.4992         2.17308 
        4.13124         37.0482         2.15229 
        4.14693         36.7852         2.13176 
        4.16266         36.4926         2.11146 
        4.17839         36.1522         2.09143 
        4.19408         35.8869          2.0717 
        4.20977         35.6099         2.05222 
        4.22551         35.2258         2.03294 
        4.24123         34.9923         2.01393 
        4.25691         34.6636         1.99522 
        4.27259         34.3852         1.97673 
        4.28831         34.0826         1.95845 
        4.30404         33.8293         1.94038 
        4.31974         33.5292         1.92257 
        4.33543          33.261           1.905 
        4.35116         32.9464         1.88761 
        4.36688          32.657         1.87044 
        4.38255         32.4636         1.85354 
        4.39825         32.1248         1.83682 
        4.41398         31.8764         1.82027 
         4.4297         31.6136         1.80395 
        4.44541         31.4651         1.78782 
        4.46111          31.056         1.77191 
        4.47683         30.8588         1.75618 
        4.49251         30.6492         1.74067 
        4.50819         30.3974         1.72535 
         4.5239         30.0623         1.71019 
        4.53962         29.8999          1.6952 
        4.55535         29.6043         1.68038 
        4.57106         29.3379         1.66576 
        4.58678         29.1688          1.6513 
         4.6025         28.9522         1.63702 
        4.61821         28.7543         1.62291 
        4.63391          28.397         1.60898 
         4.6496         28.1977         1.59522 
        4.66532         28.0121          1.5816 
        4.68103         27.7849         1.56815 
        4.69673         27.5644         1.55486 
        4.71241         27.3854         1.54175 
        4.72811          27.129         1.52876 
        4.74384         26.9426          1.5159 
        4.75955         26.7594         1.50321 
        4.77525          26.481         1.49068 
        4.79096          26.252         1.47827 
        4.80669         26.1248           1.466 
         4.8224         25.8998         1.45388 
        4.83809         25.6192         1.44191 
        4.85379         25.4608         1.43006 
         4.8695         25.2997         1.41834 
        4.88521          25.024         1.40676 
        4.90093         24.9325          1.3953 
        4.91663         24.6777         1.38399 
        4.93234         24.4504         1.37278 
        4.94807         24.2776         1.36169 
        4.96377         24.1232         1.35075 
        4.97943          23.929         1.33995 
        4.99514           23.79         1.32924 
        5.01086         23.5868         1.31863 
        5.02654         23.3898         1.30817 
        5.04227         23.2501          1.2978 
          5.058         23.0186         1.28753 
        5.07371         22.8065         1.27739 
        5.08942         22.6437         1.26736 
        5.10513         22.5555         1.25743 
        5.12084         22.3761         1.24761 
        5.13656         22.1707         1.23789 
        5.15225         22.0651          1.2283 
        5.16796         21.8444         1.21879 
        5.18369         21.6674         1.20937 
         5.1994         21.4823         1.20007 
        5.21509         21.3316         1.19087 
        5.23079           21.19         1.18176 
        5.24649         21.0377         1.17276 
        5.26217         20.9036         1.16385 
        5.27788         20.7521         1.15502 
        5.29359         20.5782         1.14628 
        5.30933         20.3953         1.13762 
        5.32504         20.2734         1.12907 
        5.34073         20.0987         1.12061 
        5.35646         19.9838         1.11222 
        5.37218         19.8013         1.10391 
        5.38789         19.6674         1.09571 
        5.40357         19.5226         1.08759 
        5.41929         19.4088         1.07954 
        5.43502         19.2547         1.07157 
         5.4507         19.0761          1.0637 
        5.46639         18.9326         1.05591 
        5.48212         18.8277         1.04818 
        5.49786         18.7055         1.04051 
        5.51353         18.6053         1.03297 
        5.52921         18.4475         1.02548 
        5.54495         18.3043         1.01805 
        5.56066         18.1695          1.0107 
        5.57637         18.0446         1.00343 
        5.59207         17.9065        0.996232 
        5.60778         17.8279        0.989103 
        5.62346         17.6673        0.982053 
        5.63916         17.5425        0.975065 
        5.65487         17.4059        0.968142 
         5.6706         17.2886        0.961278 
        5.68633         17.1804        0.954477 
        5.70203         17.0485        0.947757 
        5.71773         16.9432        0.941102 
        5.73344          16.831        0.934508 
        5.74916         16.7005         0.92797 
        5.76486         16.5797        0.921504 
        5.78054         16.4499         0.91511 
        5.79626         16.3259        0.908758 
          5.812         16.2643        0.902461 
         5.8277         16.1087        0.896241 
        5.84339         16.0029         0.89008 
        5.85911         15.9107        0.883964 
        5.87484         15.7702        0.877908 
        5.89053         15.6358         0.87192 
        5.90623         15.5899        0.865985 
        5.92195         15.4511        0.860095 
        5.93767         15.3674        0.854263 
        5.95336          15.251        0.848495 
        5.96905         15.1479        0.842782 
        5.98476         15.0611        0.837113 
        6.00048         14.9495        0.831495 
        6.01617         14.8647        0.825936 
        6.03185           14.73        0.820434 
        6.04756         14.6429        0.814969 
        6.06331         14.5501        0.809543 
        6.07903         14.4347        0.804177 
        6.09473         14.3306        0.798865 
        6.11044          14.237        0.793595 
        6.12616         14.1473        0.788375 
        6.14186         14.0625        0.783206 
        6.15755         13.9509        0.778084 
        6.17326         13.8526        0.773004 
        6.18898         13.7591        0.767966 
        6.20467         13.6456        0.762983 
        6.22036         13.5537        0.758044 
         6.2361         13.4677        0.753135 
         6.2518         13.3906        0.748278 
        6.26748         13.3211        0.743475 
        6.28319         13.2307          0.7387 
        6.29893         13.1423        0.733963 
        6.31463         13.0485        0.729276 
        6.33033         12.9793        0.724631 
        6.34604         12.8603        0.720023 
        6.36177         12.7838        0.715451 
        6.37747         12.7121        0.710927 
