# k  (h/Mpc)    Pcb(k)  (Mpc/h)^3    Pcb_linear(k) (Mpc/h)^3   ShotnoiseSubtracted = true
      0.0200456         1155.59         1170.42 
      0.0350414         861.391         850.859 
      0.0492313          620.18         618.218 
      0.0637834          508.63         513.919 
      0.0800726         402.635         407.885 
       0.096163         300.686         295.956 
       0.111083         241.278         236.062 
       0.126058          208.12         209.199 
       0.142273         175.947         177.238 
       0.158546         141.233         139.981 
        0.17375         120.446         117.934 
       0.188953         108.202         106.786 
       0.204907         93.2254          94.484 
       0.220756         81.1081         79.9392 
        0.23588         70.7277         69.5401 
         0.2514         64.1453         63.1765 
       0.267535         58.6854         57.1639 
       0.283568         51.6473         50.4109 
       0.299022          46.564         44.9135 
       0.314451          43.466         41.0479 
       0.330372         39.1912         37.6568 
       0.346141         35.6908         34.1793 
       0.361624          32.515         31.0643 
       0.377134         29.7784         28.5841 
       0.392932         28.5423         26.4483 
       0.408854         25.8222         24.3802 
       0.424564         24.5105         22.4716 
       0.440253         22.3828         20.8338 
       0.455999         20.4963         19.4096 
       0.471626         19.2495         18.1008 
        0.48727         18.5226         16.8765 
       0.502856         17.3412         15.7767 
       0.518488         16.0068         14.7954 
       0.534347         14.9845          13.883 
       0.550082          14.364         13.0419 
       0.565732          13.733         12.2723 
       0.581496           12.91         11.5675 
       0.597222         12.1517          10.921 
       0.612804         11.4677         10.3267 
       0.628434         11.0989         9.77263 
       0.644267           10.53         9.25467 
       0.660051         9.96666         8.77729 
       0.675724         9.42293         8.33648 
       0.691403         9.10793         7.92557 
       0.707174         8.66861         7.54005 
       0.722871         8.43868          7.1817 
        0.73838         7.89526         6.85048 
       0.754018         7.53226         6.53764 
       0.769845         7.18689         6.24094 
        0.78569         6.99963         5.96241 
       0.801365         6.68666         5.70365 
       0.817031         6.45848         5.46048 
       0.832809         6.14015         5.23001 
       0.848511         5.96509         5.01394 
       0.864097         5.74519         4.81162 
       0.879701         5.59547         4.62033 
       0.895507          5.3571         4.43723 
       0.911279         5.15728         4.26448 
        0.92691         5.00859         4.10239 
       0.942635         4.80188         3.94788 
       0.958396          4.6455         3.80103 
       0.974128         4.52297         3.66195 
       0.989692         4.31588         3.53124 
        1.00528         4.23009         3.40673 
        1.02113         4.09965         3.28631 
        1.03692         3.99137         3.17217 
        1.05264         3.83035           3.064 
        1.06832         3.73249         2.96107 
        1.08405         3.62197         2.86261 
        1.09979         3.53252         2.76858 
        1.11537         3.42585         2.67973 
        1.13105         3.31213         2.59426 
        1.14679         3.22861         2.51221 
        1.16256         3.12507         2.43355 
        1.17828         3.08185         2.35854 
        1.19395         2.96606         2.28695 
         1.2097         2.88289         2.21798 
        1.22537         2.79118          2.1522 
          1.241         2.73497         2.08929 
        1.25666         2.69441         2.02875 
        1.27241         2.62859         1.97034 
        1.28819         2.52412         1.91413 
        1.30392         2.46518         1.86028 
        1.31957          2.4278         1.80876 
        1.33529         2.33412           1.759 
        1.35108         2.29194         1.71092 
        1.36674         2.23162         1.66499 
         1.3824         2.20379         1.62079 
        1.39811         2.14099         1.57806 
        1.41389         2.08779          1.5367 
        1.42964         2.04304         1.49691 
        1.44531         2.00761         1.45872 
        1.46101         1.95718         1.42178 
        1.47667         1.92033         1.38624 
        1.49229         1.85511         1.35201 
        1.50793         1.81065          1.3189 
        1.52367          1.7786         1.28669 
        1.53953          1.7348         1.25534 
        1.55526         1.73006         1.22529 
        1.57092         1.68687         1.19635 
        1.58662         1.66707         1.16828 
        1.60235         1.60871         1.14105 
        1.61809         1.58344         1.11469 
        1.63369         1.54507         1.08939 
        1.64941         1.52037         1.06469 
        1.66519         1.49793         1.04068 
        1.68085         1.45911         1.01758 
        1.69652         1.43338        0.995172 
        1.71228         1.40285        0.973315 
        1.72806         1.38139        0.952098 
        1.74368         1.35611        0.931728 
        1.75933         1.33525        0.911915 
        1.77505         1.31106        0.892586 
        1.79081         1.27615        0.873784 
         1.8065         1.26335        0.855605 
        1.82218         1.23264        0.837961 
        1.83797         1.21079        0.820694 
        1.85367         1.19274         0.80401 
        1.86928         1.17216         0.78789 
        1.88497         1.14773        0.772126 
        1.90073         1.13876        0.756735 
        1.91647           1.108        0.741778 
        1.93218         1.09398        0.727258 
        1.94787         1.07597        0.713149 
        1.96363         1.06101        0.699358 
        1.97935         1.04011        0.685961 
        1.99499         1.02439        0.672991 
        2.01064         1.00857        0.660339 
         2.0264         0.98721        0.647932 
        2.04216        0.977319        0.635851 
        2.05781         0.95813        0.624154 
        2.07353        0.947545        0.612711 
        2.08928        0.930357        0.601529 
        2.10499         0.91556        0.590657 
        2.12065        0.900249        0.580087 
        2.13633        0.889009        0.569767 
        2.15211        0.869945        0.559631 
        2.16785        0.862216         0.54977 
        2.18349        0.846964         0.54021 
        2.19916        0.837684        0.530856 
        2.21489        0.824459        0.521694 
        2.23063         0.80791        0.512741 
         2.2463        0.797848         0.50404 
        2.26194        0.788782        0.495562 
        2.27765        0.775564        0.487235 
        2.29341        0.765415        0.479079 
        2.30914        0.750594        0.471126 
        2.32486         0.74376        0.463359 
        2.34061         0.73201        0.455754 
        2.35635        0.721753        0.448326 
        2.37203        0.712691         0.44109 
        2.38768        0.703445        0.434028 
        2.40339        0.695623        0.427096 
        2.41914        0.686345        0.420299 
        2.43483        0.676367        0.413674 
         2.4505        0.666567        0.407204 
        2.46622        0.658267        0.400849 
        2.48195        0.648861         0.39463 
        2.49759        0.641582        0.388576 
        2.51328        0.630657        0.382633 
        2.52906        0.624526        0.376777 
        2.54479        0.614922        0.371066 
        2.56049         0.60858        0.365484 
        2.57618         0.60094        0.360021 
        2.59189         0.59286        0.354663 
        2.60758        0.586873        0.349421 
        2.62325        0.578201        0.344292 
        2.63898        0.573416        0.339249 
        2.65468        0.562703        0.334317 
        2.67044        0.558196        0.329462 
        2.68618        0.553051        0.324714 
        2.70184        0.543999        0.320079 
        2.71755        0.537892        0.315523 
        2.73329         0.53302        0.311049 
        2.74897        0.525019        0.306676 
        2.76462        0.518534        0.302397 
        2.78034        0.513026        0.298182 
        2.79607        0.508309        0.294043 
        2.81179        0.500889        0.289987 
        2.82749        0.495885        0.286012 
        2.84321        0.489286        0.282108 
        2.85893        0.483384        0.278277 
        2.87462        0.477966        0.274524 
        2.89033        0.475954        0.270837 
        2.90605        0.470027        0.267215 
        2.92176        0.465007         0.26366 
        2.93747        0.459199        0.260172 
        2.95318        0.454369        0.256747 
        2.96891        0.451088        0.253381 
        2.98456        0.443286        0.250091 
        3.00023        0.440002        0.246855 
        3.01596        0.435544        0.243665 
        3.03164        0.431019        0.240541 
        3.04738        0.426504        0.237463 
         3.0631        0.421189         0.23444 
        3.07883        0.417684        0.231469 
        3.09456        0.414496         0.22855 
        3.11026         0.40947        0.225686 
        3.12596        0.404723        0.222871 
        3.14163        0.402799        0.220111 
        3.15734        0.398144        0.217391 
        3.17308        0.393928        0.214711 
        3.18879        0.390872        0.212083 
        3.20447        0.386242        0.209503 
         3.2202        0.382085        0.206958 
         3.2359        0.378621        0.204459 
        3.25157        0.372991        0.202008 
        3.26729        0.372661         0.19959 
        3.28304        0.368623        0.197206 
        3.29877        0.365237        0.194865 
        3.31446        0.363194        0.192566 
        3.33014        0.357977        0.190307 
        3.34585        0.355191         0.18808 
        3.36158         0.35231        0.185886 
        3.37727        0.349451        0.183734 
        3.39294        0.347302        0.181617 
        3.40867        0.342368        0.179527 
        3.42439        0.340319         0.17747 
        3.44008        0.337267         0.17545 
        3.45578        0.334231        0.173459 
        3.47153        0.332246        0.171496 
        3.48724        0.329236        0.169565 
        3.50292        0.326201         0.16767 
        3.51859          0.3239        0.165804 
        3.53431        0.320832         0.16396 
        3.55007        0.318622         0.16214 
        3.56577        0.315713        0.160355 
        3.58146        0.313175        0.158598 
        3.59719        0.310917        0.156863 
        3.61292        0.308357        0.155154 
        3.62859        0.306139        0.153477 
        3.64429        0.303405        0.151822 
        3.66003         0.30063        0.150186 
        3.67578        0.299114        0.148575 
        3.69146        0.295993        0.146994 
        3.70712        0.294831        0.145438 
        3.72284         0.29303        0.143899 
        3.73853        0.290619        0.142385 
        3.75422        0.287738        0.140893 
        3.76993        0.285664         0.13942 
        3.78564        0.283017        0.137969 
        3.80137        0.281137        0.136536 
        3.81707        0.279609        0.135127 
        3.83279         0.27733        0.133737 
        3.84853        0.274829        0.132363 
        3.86424        0.273587        0.131012 
        3.87992        0.271275        0.129682 
        3.89561         0.26925        0.128369 
        3.91134        0.266965        0.127073 
        3.92704        0.264796        0.125796 
        3.94273        0.263824        0.124537 
        3.95845        0.261312        0.123294 
        3.97418        0.260005        0.122067 
        3.98988        0.257274        0.120859 
        4.00554        0.254704         0.11967 
        4.02125        0.252641        0.118494 
        4.03698        0.249975        0.117332 
        4.05268        0.247063        0.116188 
        4.06839        0.245369        0.115058 
         4.0841        0.242537        0.113944 
        4.09983        0.240731        0.112843 
        4.11555        0.237787        0.111757 
        4.13124        0.235863        0.110688 
        4.14693        0.233447        0.109632 
        4.16266        0.230786        0.108588 
        4.17839        0.228913        0.107558 
        4.19408        0.226775        0.106543 
        4.20977         0.22537        0.105541 
        4.22551         0.22312         0.10455 
        4.24123        0.220859        0.103572 
        4.25691        0.219661         0.10261 
        4.27259        0.217514        0.101659 
        4.28831        0.216212        0.100719 
        4.30404        0.214066       0.0997895 
        4.31974        0.212688       0.0988739 
        4.33543        0.211006       0.0979702 
        4.35116        0.210049       0.0970756 
        4.36688        0.208391       0.0961926 
        4.38255        0.206209       0.0953238 
        4.39825        0.205538       0.0944639 
        4.41398        0.204147       0.0936128 
         4.4297        0.202877       0.0927732 
        4.44541        0.201414        0.091944 
        4.46111        0.200574       0.0911255 
        4.47683         0.19971       0.0903164 
        4.49251         0.19826       0.0895188 
        4.50819        0.197771        0.088731 
         4.5239        0.196688       0.0879516 
        4.53962        0.195357       0.0871805 
        4.55535        0.194583       0.0864183 
        4.57106        0.194041       0.0856663 
        4.58678        0.192552       0.0849231 
         4.6025         0.19252       0.0841886 
        4.61821        0.192124       0.0834628 
        4.63391        0.191372       0.0827465 
         4.6496        0.190396       0.0820389 
        4.66532         0.19002       0.0813385 
        4.68103         0.18911       0.0806466 
        4.69673        0.188994       0.0799634 
        4.71241        0.188563       0.0792888 
        4.72811        0.188726       0.0786208 
        4.74384         0.18791       0.0779597 
        4.75955        0.187473       0.0773072 
        4.77525        0.187448       0.0766625 
        4.79096        0.187057       0.0760243 
        4.80669        0.186689       0.0753931 
         4.8224         0.18691       0.0747698 
        4.83809         0.18648       0.0741542 
        4.85379        0.186462       0.0735452 
         4.8695        0.187087       0.0729425 
        4.88521        0.186536       0.0723468 
        4.90093        0.186932       0.0717576 
        4.91663        0.186806       0.0711756 
        4.93234        0.186706       0.0705993 
        4.94807        0.187293       0.0700291 
        4.96377        0.187725       0.0694662 
        4.97943        0.188074       0.0689107 
        4.99514        0.187234       0.0683598 
        5.01086        0.188918       0.0678146 
        5.02654        0.188785       0.0672766 
        5.04227        0.189283        0.066743 
          5.058        0.190368       0.0662148 
        5.07371        0.190148       0.0656934 
        5.08942        0.191349       0.0651775 
        5.10513        0.191942       0.0646672 
        5.12084         0.19229        0.064162 
        5.13656        0.192934       0.0636623 
        5.15225        0.193827       0.0631688 
        5.16796        0.194947       0.0626797 
        5.18369        0.195487       0.0621954 
         5.1994        0.196742        0.061717 
        5.21509        0.196755       0.0612441 
        5.23079        0.197836       0.0607756 
        5.24649        0.198978       0.0603124 
        5.26217        0.200373       0.0598543 
        5.27788        0.200928       0.0594003 
        5.29359        0.202555       0.0589509 
        5.30933        0.203645       0.0585055 
        5.32504        0.204535       0.0580655 
        5.34073        0.206479       0.0576305 
        5.35646        0.207331       0.0571991 
        5.37218        0.208759        0.056772 
        5.38789        0.209193       0.0563499 
        5.40357        0.211023       0.0559326 
        5.41929        0.212235       0.0555186 
        5.43502        0.214613       0.0551088 
         5.4507        0.215651        0.054704 
        5.46639        0.217329       0.0543033 
        5.48212        0.218509       0.0539057 
        5.49786        0.220177       0.0535115 
        5.51353        0.223231       0.0531232 
        5.52921        0.223098       0.0527384 
        5.54495        0.225713       0.0523563 
        5.56066         0.22736       0.0519784 
        5.57637        0.229079       0.0516043 
        5.59207        0.231234       0.0512341 
        5.60778        0.232671       0.0508675 
        5.62346        0.235506       0.0505049 
        5.63916        0.236592       0.0501456 
        5.65487        0.239052       0.0497895 
         5.6706        0.239593       0.0494365 
        5.68633        0.243471       0.0490868 
        5.70203        0.246371       0.0487412 
        5.71773        0.247075       0.0483989 
        5.73344        0.249502       0.0480598 
        5.74916        0.252333       0.0477236 
        5.76486        0.254865       0.0473911 
        5.78054        0.255828       0.0470622 
        5.79626        0.258137       0.0467355 
          5.812        0.261469       0.0464117 
         5.8277        0.263505       0.0460918 
        5.84339        0.265528       0.0457749 
        5.85911        0.269034       0.0454604 
        5.87484        0.270577        0.045149 
        5.89053        0.273699        0.044841 
        5.90623           0.275       0.0445358 
        5.92195        0.277837       0.0442329 
        5.93767        0.280004        0.043933 
        5.95336        0.282276       0.0436363 
        5.96905        0.285511       0.0433425 
        5.98476        0.288374        0.043051 
        6.00048        0.289984       0.0427621 
        6.01617        0.294527       0.0424762 
        6.03185        0.296085       0.0421932 
        6.04756        0.297555       0.0419122 
        6.06331        0.300378       0.0416331 
        6.07903        0.304757       0.0413571 
        6.09473        0.306564       0.0410839 
        6.11044        0.308828        0.040813 
        6.12616        0.312335       0.0405445 
        6.14186        0.314603       0.0402787 
        6.15755        0.319137       0.0400152 
        6.17326        0.320366        0.039754 
        6.18898         0.32243       0.0394949 
        6.20467        0.323273       0.0392386 
        6.22036        0.329279       0.0389846 
         6.2361        0.329446       0.0387322 
         6.2518        0.333735       0.0384824 
        6.26748        0.335693       0.0382354 
        6.28319        0.340031       0.0379898 
        6.29893        0.341457       0.0377462 
        6.31463        0.344411       0.0375051 
        6.33033        0.347078       0.0372662 
        6.34604        0.351006       0.0370293 
        6.36177        0.351667       0.0367941 
        6.37747         0.35487       0.0365615 
