# k  (h/Mpc)    Pcb(k)  (Mpc/h)^3    Pcb_linear(k) (Mpc/h)^3   ShotnoiseSubtracted = true
      0.0200456         4714.35         4777.15 
      0.0350414          3541.6         3472.82 
      0.0492313         2520.91         2523.29 
      0.0637834         2052.59         2097.59 
      0.0800726         1622.03          1664.8 
       0.096163         1239.65         1207.96 
       0.111083          1001.5         963.499 
       0.126058         848.302         853.857 
       0.142273         721.783         723.404 
       0.158546         587.325         571.338 
        0.17375         506.284         481.352 
       0.188953         459.563         435.853 
       0.204907          391.35         385.641 
       0.220756         347.196         326.276 
        0.23588         305.176         283.832 
         0.2514         274.699         257.858 
       0.267535         259.327         233.317 
       0.283568         226.554         205.755 
       0.299022         210.782         183.317 
       0.314451         202.496         167.539 
       0.330372         177.691         153.698 
       0.346141         163.626         139.505 
       0.361624         152.725         126.791 
       0.377134         139.579         116.667 
       0.392932         135.721          107.95 
       0.408854          126.56          99.509 
       0.424564          120.61         91.7189 
       0.440253         109.597          85.034 
       0.455999         101.455         79.2213 
       0.471626         97.4385         73.8794 
        0.48727         94.4916         68.8824 
       0.502856         87.0232         64.3934 
       0.518488         83.8527          60.388 
       0.534347         79.0517         56.6644 
       0.550082         76.5238          53.231 
       0.565732          74.191         50.0899 
       0.581496         68.7174         47.2131 
       0.597222         66.2643         44.5748 
       0.612804         63.9021         42.1488 
       0.628434         62.4946         39.8875 
       0.644267          59.102         37.7734 
       0.660051         56.8156         35.8249 
       0.675724          54.898         34.0258 
       0.691403         53.9497         32.3486 
       0.707174         52.0506         30.7751 
       0.722871         50.5173         29.3125 
        0.73838         48.3397         27.9606 
       0.754018         45.8467         26.6837 
       0.769845         45.2428         25.4727 
        0.78569         43.6183         24.3359 
       0.801365         42.4419         23.2797 
       0.817031         40.8123         22.2872 
       0.832809         40.1122         21.3465 
       0.848511          38.881         20.4647 
       0.864097         38.0012         19.6389 
       0.879701         37.2681         18.8581 
       0.895507         35.9025         18.1108 
       0.911279         34.9231         17.4057 
        0.92691         34.2271         16.7441 
       0.942635         33.5136         16.1135 
       0.958396          32.926         15.5141 
       0.974128         32.0233         14.9464 
       0.989692         30.8628         14.4129 
        1.00528         30.5471         13.9048 
        1.02113         29.7431         13.4132 
        1.03692         29.2665         12.9474 
        1.05264         28.6281         12.5059 
        1.06832         28.1081         12.0858 
        1.08405         27.3287         11.6839 
        1.09979         27.0603         11.3001 
        1.11537         26.2048         10.9375 
        1.13105         25.7669         10.5886 
        1.14679          25.172         10.2537 
        1.16256          24.833         9.93267 
        1.17828         24.4657          9.6265 
        1.19395         23.9882         9.33431 
         1.2097         23.5496          9.0528 
        1.22537         23.1138         8.78431 
          1.241         22.6761         8.52755 
        1.25666         22.3782         8.28045 
        1.27241         22.0335         8.04202 
        1.28819          21.212         7.81261 
        1.30392         21.4488         7.59284 
        1.31957         20.9186         7.38253 
        1.33529         20.5064         7.17944 
        1.35108         20.3132         6.98321 
        1.36674         19.9672         6.79575 
         1.3824         19.5859         6.61535 
        1.39811         19.1964         6.44092 
        1.41389         19.0001         6.27214 
        1.42964         18.7894          6.1097 
        1.44531         18.4768         5.95383 
        1.46101         18.2362         5.80308 
        1.47667         17.9759         5.65801 
        1.49229         17.5853          5.5183 
        1.50793         17.4563         5.38316 
        1.52367         17.2294         5.25169 
        1.53953         16.9979         5.12374 
        1.55526         16.6744         5.00109 
        1.57092         16.6423         4.88296 
        1.58662         16.3951         4.76838 
        1.60235         16.1191         4.65727 
        1.61809         15.9527         4.54965 
        1.63369         15.7192         4.44639 
        1.64941         15.5465          4.3456 
        1.66519         15.3185         4.24758 
        1.68085         15.0213         4.15329 
        1.69652         15.0689         4.06184 
        1.71228         14.7653         3.97263 
        1.72806         14.5585         3.88604 
        1.74368         14.4336          3.8029 
        1.75933          14.291         3.72203 
        1.77505         14.1035         3.64313 
        1.79081         13.9442         3.56639 
         1.8065         13.8315          3.4922 
        1.82218         13.7132         3.42018 
        1.83797         13.5717          3.3497 
        1.85367         13.4493         3.28161 
        1.86928         13.2784         3.21581 
        1.88497         13.1325         3.15147 
        1.90073         12.9487         3.08865 
        1.91647         12.6793          3.0276 
        1.93218         12.7069         2.96834 
        1.94787         12.4622         2.91075 
        1.96363         12.4186         2.85446 
        1.97935         12.2622         2.79978 
        1.99499         12.1156         2.74685 
        2.01064         12.0051          2.6952 
         2.0264         11.8321         2.64457 
        2.04216         11.8592         2.59526 
        2.05781         11.7121         2.54752 
        2.07353         11.5733         2.50081 
        2.08928         11.4277         2.45517 
        2.10499         11.3024          2.4108 
        2.12065         11.2317         2.36765 
        2.13633         11.0996         2.32553 
        2.15211          11.005         2.28416 
        2.16785          10.874         2.24392 
        2.18349         10.7666         2.20489 
        2.19916         10.6737         2.16672 
        2.21489         10.5814         2.12932 
        2.23063         10.5376         2.09278 
         2.2463         10.3474         2.05726 
        2.26194         10.2822         2.02266 
        2.27765         10.1626         1.98868 
        2.29341         10.0476         1.95538 
        2.30914         10.0122         1.92293 
        2.32486         9.92178         1.89122 
        2.34061         9.84944         1.86018 
        2.35635         9.74282         1.82986 
        2.37203          9.6219         1.80033 
        2.38768         9.52393         1.77151 
        2.40339         9.49345         1.74321 
        2.41914         9.37175         1.71547 
        2.43483         9.33535         1.68843 
         2.4505         9.24705         1.66202 
        2.46622         9.14412         1.63609 
        2.48195         9.12318          1.6107 
        2.49759         8.96167         1.58599 
        2.51328          8.9404         1.56174 
        2.52906         8.83661         1.53783 
        2.54479         8.75492         1.51452 
        2.56049         8.67308         1.49174 
        2.57618          8.6298         1.46944 
        2.59189         8.63071         1.44757 
        2.60758         8.48323         1.42618 
        2.62325         8.41336         1.40525 
        2.63898         8.41073         1.38466 
        2.65468         8.28066         1.36453 
        2.67044         8.24251         1.34471 
        2.68618          8.1463         1.32534 
        2.70184         8.11293         1.30642 
        2.71755         8.03239         1.28782 
        2.73329         7.93378         1.26956 
        2.74897         7.89096         1.25171 
        2.76462         7.86637         1.23425 
        2.78034         7.77235         1.21704 
        2.79607         7.74989         1.20015 
        2.81179         7.65514          1.1836 
        2.82749         7.59408         1.16737 
        2.84321         7.54802         1.15144 
        2.85893         7.50404          1.1358 
        2.87462         7.44362         1.12048 
        2.89033         7.36174         1.10544 
        2.90605         7.33368         1.09065 
        2.92176         7.26149         1.07614 
        2.93747         7.20323         1.06191 
        2.95318         7.14306         1.04793 
        2.96891         7.08948         1.03419 
        2.98456         7.04193         1.02076 
        3.00023         7.00277         1.00755 
        3.01596         6.90484        0.994532 
        3.03164         6.89257        0.981782 
        3.04738         6.83248        0.969218 
         3.0631         6.77941        0.956878 
        3.07883         6.73383        0.944752 
        3.09456         6.65689        0.932839 
        3.11026         6.62412        0.921149 
        3.12596         6.56794        0.909661 
        3.14163         6.55086        0.898395 
        3.15734         6.48173        0.887294 
        3.17308         6.47208        0.876353 
        3.18879         6.39269        0.865628 
        3.20447         6.34471        0.855097 
         3.2202          6.3044        0.844708 
         3.2359         6.25648        0.834511 
        3.25157         6.21886        0.824506 
        3.26729         6.17565        0.814635 
        3.28304         6.13088        0.804907 
        3.29877         6.09801         0.79535 
        3.31446         6.06765        0.785969 
        3.33014         6.00121        0.776747 
        3.34585          5.9696        0.767659 
        3.36158         5.91626        0.758703 
        3.37727         5.87823        0.749918 
        3.39294         5.84133         0.74128 
        3.40867         5.81137        0.732747 
        3.42439         5.74786        0.724353 
        3.44008         5.71779        0.716107 
        3.45578         5.67837        0.707983 
        3.47153         5.62927        0.699968 
        3.48724         5.59414         0.69209 
        3.50292         5.54815        0.684352 
        3.51859         5.52647        0.676736 
        3.53431         5.48503        0.669212 
        3.55007         5.44721        0.661784 
        3.56577         5.39253        0.654498 
        3.58146         5.36855        0.647325 
        3.59719         5.33522        0.640242 
        3.61292         5.29874        0.633269 
        3.62859          5.2688        0.626425 
        3.64429         5.23175        0.619669 
        3.66003         5.19736        0.612992 
        3.67578         5.17275        0.606416 
        3.69146         5.13097        0.599962 
        3.70712         5.10441        0.593613 
        3.72284         5.06854        0.587332 
        3.73853         5.02771        0.581153 
        3.75422         4.98728         0.57506 
        3.76993         4.98207         0.56905 
        3.78564         4.93172        0.563128 
        3.80137         4.89966         0.55728 
        3.81707         4.85595        0.551528 
        3.83279         4.83714        0.545852 
        3.84853         4.78891        0.540247 
        3.86424         4.76477        0.534732 
        3.87992          4.7454        0.529302 
        3.89561         4.72115        0.523946 
        3.91134         4.67865        0.518654 
        3.92704          4.6454        0.513442 
        3.94273           4.623        0.508306 
        3.95845         4.58956         0.50323 
        3.97418         4.55262        0.498223 
        3.98988         4.52693        0.493291 
        4.00554          4.5034        0.488439 
        4.02125         4.46018        0.483638 
        4.03698         4.43896        0.478895 
        4.05268         4.39748        0.474226 
        4.06839         4.37677        0.469615 
         4.0841         4.34198        0.465067 
        4.09983         4.32125        0.460573 
        4.11555         4.28528        0.456141 
        4.13124         4.25842        0.451778 
        4.14693         4.24233        0.447469 
        4.16266          4.2087        0.443207 
        4.17839         4.18555        0.439002 
        4.19408         4.15976        0.434861 
        4.20977         4.12749        0.430772 
        4.22551         4.09769        0.426726 
        4.24123         4.06026        0.422736 
        4.25691         4.04126        0.418808 
        4.27259         4.01536        0.414928 
        4.28831         3.98155        0.411089 
        4.30404         3.96737        0.407296 
        4.31974          3.9344        0.403559 
        4.33543         3.91048         0.39987 
        4.35116         3.89287        0.396219 
        4.36688         3.86983        0.392615 
        4.38255         3.85184        0.389069 
        4.39825         3.82342        0.385559 
        4.41398         3.79795        0.382085 
         4.4297         3.78116        0.378658 
        4.44541         3.75522        0.375274 
        4.46111         3.71881        0.371933 
        4.47683         3.70208        0.368631 
        4.49251         3.67839        0.365375 
        4.50819         3.65825         0.36216 
         4.5239         3.62888        0.358979 
        4.53962         3.60062        0.355832 
        4.55535         3.58986        0.352721 
        4.57106         3.56607        0.349651 
        4.58678          3.5405        0.346618 
         4.6025         3.52698         0.34362 
        4.61821          3.4969        0.340658 
        4.63391         3.47255        0.337734 
         4.6496         3.45353        0.334846 
        4.66532         3.43634        0.331987 
        4.68103         3.41586        0.329163 
        4.69673         3.39776        0.326375 
        4.71241         3.37628        0.323621 
        4.72811         3.35619        0.320895 
        4.74384          3.3426        0.318196 
        4.75955         3.31137        0.315533 
        4.77525         3.29489        0.312902 
        4.79096         3.27854        0.310297 
        4.80669         3.25231        0.307721 
         4.8224         3.23798        0.305177 
        4.83809         3.22288        0.302664 
        4.85379         3.20249        0.300178 
         4.8695          3.1823        0.297718 
        4.88521         3.15961        0.295287 
        4.90093         3.14731        0.292882 
        4.91663         3.12919        0.290507 
        4.93234         3.10997        0.288155 
        4.94807         3.09495        0.285827 
        4.96377          3.0779         0.28353 
        4.97943         3.06154        0.281262 
        4.99514         3.04016        0.279014 
        5.01086          3.0191        0.276789 
        5.02654         3.00122        0.274593 
        5.04227          2.9903        0.272415 
          5.058         2.97804        0.270259 
        5.07371         2.95844        0.268131 
        5.08942         2.92944        0.266025 
        5.10513         2.91913        0.263942 
        5.12084         2.90066         0.26188 
        5.13656         2.89048        0.259841 
        5.15225          2.8728        0.257827 
        5.16796         2.85586         0.25583 
        5.18369         2.83441        0.253853 
         5.1994         2.82161        0.251901 
        5.21509         2.80623        0.249971 
        5.23079         2.79822        0.248059 
        5.24649         2.77452        0.246168 
        5.26217         2.75678        0.244298 
        5.27788         2.74808        0.242445 
        5.29359         2.73664        0.240611 
        5.30933         2.72267        0.238793 
        5.32504          2.7074        0.236997 
        5.34073          2.6896        0.235222 
        5.35646         2.67009        0.233461 
        5.37218         2.66298        0.231718 
        5.38789         2.64765        0.229995 
        5.40357         2.63317        0.228292 
        5.41929         2.61725        0.226602 
        5.43502         2.60771        0.224929 
         5.4507         2.58396        0.223277 
        5.46639         2.57203        0.221642 
        5.48212         2.56153        0.220019 
        5.49786         2.54673         0.21841 
        5.51353         2.53602        0.216825 
        5.52921         2.51963        0.215255 
        5.54495          2.5067        0.213695 
        5.56066          2.4944        0.212152 
        5.57637         2.48263        0.210625 
        5.59207         2.46537        0.209115 
        5.60778          2.4625        0.207618 
        5.62346          2.4391        0.206138 
        5.63916         2.43139        0.204672 
        5.65487         2.41166        0.203218 
         5.6706          2.4077        0.201778 
        5.68633         2.39233         0.20035 
        5.70203         2.37874        0.198939 
        5.71773          2.3664        0.197543 
        5.73344         2.35467        0.196158 
        5.74916         2.34261        0.194786 
        5.76486         2.33376        0.193429 
        5.78054         2.31671        0.192087 
        5.79626         2.30772        0.190753 
          5.812         2.29123        0.189432 
         5.8277         2.27912        0.188126 
        5.84339         2.27416        0.186833 
        5.85911         2.26073        0.185549 
        5.87484         2.25089        0.184278 
        5.89053         2.23932        0.183021 
        5.90623         2.22806        0.181775 
        5.92195         2.21711        0.180539 
        5.93767         2.20658        0.179315 
        5.95336         2.19231        0.178104 
        5.96905         2.18519        0.176905 
        5.98476         2.16977        0.175715 
        6.00048         2.16029        0.174535 
        6.01617         2.15008        0.173369 
        6.03185         2.13827        0.172214 
        6.04756         2.13226        0.171067 
        6.06331         2.12315        0.169928 
        6.07903         2.10945        0.168801 
        6.09473         2.09995        0.167686 
        6.11044         2.09106         0.16658 
        6.12616         2.08123        0.165484 
        6.14186         2.07525        0.164399 
        6.15755         2.05971        0.163324 
        6.17326         2.04971        0.162258 
        6.18898         2.04308          0.1612 
        6.20467          2.0283        0.160154 
        6.22036         2.01976        0.159118 
         6.2361         2.01392        0.158087 
         6.2518         2.00407        0.157068 
        6.26748         1.99451         0.15606 
        6.28319         1.98562        0.155057 
        6.29893         1.97393        0.154063 
        6.31463         1.96474        0.153079 
        6.33033         1.95388        0.152104 
        6.34604         1.94761        0.151137 
        6.36177         1.94095        0.150177 
        6.37747         1.93028        0.149227 
