# k  (h/Mpc)    Pcb(k)  (Mpc/h)^3    Pcb_linear(k) (Mpc/h)^3   ShotnoiseSubtracted = true
      0.0200456         12325.2         12511.7 
      0.0350414         9339.94         9095.57 
      0.0492313         6540.61         6608.67 
      0.0637834         5290.65         5493.73 
      0.0800726         4166.73         4360.23 
       0.096163         3273.84         3163.73 
       0.111083         2660.86         2523.47 
       0.126058         2216.28         2236.31 
       0.142273         1913.45         1894.65 
       0.158546         1571.23         1496.37 
        0.17375         1376.38         1260.69 
       0.188953         1277.02         1141.53 
       0.204907         1091.28         1010.02 
       0.220756         978.632         854.539 
        0.23588         869.959         743.375 
         0.2514         779.234         675.348 
       0.267535         755.643         611.074 
       0.283568         660.927         538.885 
       0.299022         630.193         480.119 
       0.314451         637.964         438.796 
       0.330372          548.48         402.546 
       0.346141         508.008         365.372 
       0.361624         485.422         332.073 
       0.377134         454.806          305.56 
       0.392932         440.761         282.728 
       0.408854         419.222         260.621 
       0.424564         405.326         240.218 
       0.440253         367.028          222.71 
       0.455999         351.359         207.486 
       0.471626          352.94         193.495 
        0.48727         334.672         180.408 
       0.502856         307.598         168.651 
       0.518488         308.635          158.16 
       0.534347         286.917         148.408 
       0.550082         278.372         139.416 
       0.565732         276.787         131.189 
       0.581496         262.851         123.654 
       0.597222         255.752         116.744 
       0.612804         248.852         110.391 
       0.628434         239.693         104.468 
       0.644267         229.211         98.9311 
       0.660051         225.345          93.828 
       0.675724         222.728         89.1158 
       0.691403         216.742         84.7233 
       0.707174         209.174         80.6021 
       0.722871         205.958         76.7714 
        0.73838          204.08         73.2307 
       0.754018         193.316         69.8865 
       0.769845         193.173         66.7148 
        0.78569         188.188         63.7373 
       0.801365         182.937         60.9712 
       0.817031         178.778         58.3718 
       0.832809         175.837         55.9081 
       0.848511         171.535         53.5984 
       0.864097         167.836         51.4356 
       0.879701         166.577         49.3907 
       0.895507         162.458         47.4334 
       0.911279         157.805         45.5867 
        0.92691         155.449          43.854 
       0.942635         153.295         42.2023 
       0.958396         150.526         40.6325 
       0.974128         147.497         39.1458 
       0.989692         143.481         37.7484 
        1.00528          142.39         36.4175 
        1.02113         138.959         35.1302 
        1.03692         137.453         33.9101 
        1.05264         135.626         32.7538 
        1.06832         133.044         31.6534 
        1.08405         130.733         30.6009 
        1.09979         129.923         29.5958 
        1.11537         126.804          28.646 
        1.13105         125.502         27.7323 
        1.14679         123.364         26.8552 
        1.16256         121.193         26.0144 
        1.17828         119.905         25.2125 
        1.19395         117.014         24.4472 
         1.2097          116.26         23.7099 
        1.22537         114.065         23.0067 
          1.241         112.963         22.3343 
        1.25666         110.025         21.6871 
        1.27241         108.143         21.0626 
        1.28819         107.663         20.4618 
        1.30392         105.677         19.8862 
        1.31957          104.06         19.3354 
        1.33529         102.887         18.8035 
        1.35108         102.048         18.2895 
        1.36674         100.045         17.7985 
         1.3824         99.7119         17.3261 
        1.39811         97.1362         16.8692 
        1.41389         96.2495         16.4272 
        1.42964         94.3577         16.0017 
        1.44531         93.6516         15.5935 
        1.46101         92.3492         15.1987 
        1.47667          91.664         14.8187 
        1.49229         90.6719         14.4528 
        1.50793         88.9692         14.0989 
        1.52367         88.2193         13.7545 
        1.53953         87.0788         13.4194 
        1.55526         85.6478         13.0982 
        1.57092         85.2937         12.7888 
        1.58662         84.0747         12.4887 
        1.60235         82.7165         12.1977 
        1.61809         81.8817         11.9158 
        1.63369         80.5629         11.6454 
        1.64941         80.5895         11.3814 
        1.66519         78.7489         11.1247 
        1.68085         77.8726         10.8778 
        1.69652         76.5439         10.6382 
        1.71228         75.7516         10.4046 
        1.72806         75.3454         10.1778 
        1.74368         74.0617         9.96005 
        1.75933         73.3976         9.74824 
        1.77505          72.751         9.54162 
        1.79081         71.4558         9.34063 
         1.8065         71.2009          9.1463 
        1.82218         69.5897         8.95769 
        1.83797          69.273         8.77311 
        1.85367         68.1741         8.59475 
        1.86928         67.5454         8.42244 
        1.88497         66.8479         8.25392 
        1.90073         65.9661         8.08939 
        1.91647         65.1453         7.92951 
        1.93218         64.5186         7.77429 
        1.94787          63.658         7.62346 
        1.96363         62.8767         7.47604 
        1.97935         62.2205         7.33283 
        1.99499         61.5904         7.19418 
        2.01064         60.9326         7.05893 
         2.0264         60.1851          6.9263 
        2.04216         59.4649         6.79716 
        2.05781         58.7543         6.67212 
        2.07353         58.0635         6.54979 
        2.08928         57.4415         6.43027 
        2.10499         56.8466         6.31405 
        2.12065          56.314         6.20105 
        2.13633         55.8267         6.09073 
        2.15211         54.9869         5.98238 
        2.16785         54.1782         5.87697 
        2.18349         53.6649         5.77477 
        2.19916         53.0347         5.67478 
        2.21489         52.6975         5.57683 
        2.23063         51.8781         5.48114 
         2.2463         51.4387         5.38811 
        2.26194          51.132         5.29749 
        2.27765         50.3003         5.20848 
        2.29341         49.6317         5.12129 
        2.30914         49.0933         5.03628 
        2.32486         48.5171         4.95324 
        2.34061         48.2105         4.87194 
        2.35635         47.4258         4.79254 
        2.37203         47.0321         4.71519 
        2.38768         46.6698          4.6397 
        2.40339         46.1572          4.5656 
        2.41914         45.6841         4.49294 
        2.43483          44.903         4.42212 
         2.4505         44.7066         4.35295 
        2.46622         44.2258         4.28502 
        2.48195         43.6475         4.21854 
        2.49759         43.1628         4.15382 
        2.51328         42.8276         4.09029 
        2.52906         42.3137         4.02769 
        2.54479         41.9697         3.96664 
        2.56049           41.25         3.90697 
        2.57618         41.0125         3.84858 
        2.59189         40.5561         3.79129 
        2.60758         39.9863         3.73527 
        2.62325         39.8751         3.68044 
        2.63898         39.3178         3.62652 
        2.65468         38.9523          3.5738 
        2.67044          38.648          3.5219 
        2.68618         38.2736         3.47115 
        2.70184         37.6506          3.4216 
        2.71755         37.4411          3.3729 
        2.73329         36.8211         3.32507 
        2.74897         36.6127         3.27833 
        2.76462         36.1082         3.23258 
        2.78034         35.8664         3.18753 
        2.79607         35.3922         3.14328 
        2.81179         35.0901         3.09992 
        2.82749         34.7312         3.05743 
        2.84321         34.2964         3.01569 
        2.85893         33.9823         2.97475 
        2.87462         33.6621         2.93463 
        2.89033         33.4033         2.89521 
        2.90605         33.0505         2.85649 
        2.92176         32.8418         2.81849 
        2.93747         32.4903         2.78121 
        2.95318         32.0978         2.74459 
        2.96891         31.8025         2.70861 
        2.98456         31.5132         2.67344 
        3.00023         31.1247         2.63884 
        3.01596         30.8804         2.60475 
        3.03164         30.5149         2.57135 
        3.04738         30.3167         2.53845 
         3.0631         30.0579         2.50613 
        3.07883         29.6264         2.47437 
        3.09456         29.2838         2.44317 
        3.11026         29.0284         2.41255 
        3.12596          28.746         2.38246 
        3.14163         28.4708         2.35296 
        3.15734          28.209         2.32388 
        3.17308         27.8827         2.29523 
        3.18879         27.6572         2.26714 
        3.20447         27.4217         2.23956 
         3.2202         27.0762         2.21235 
         3.2359         26.8198         2.18564 
        3.25157         26.6591         2.15944 
        3.26729         26.3977         2.13359 
        3.28304         26.0036         2.10811 
        3.29877         25.7725         2.08308 
        3.31446         25.5574         2.05851 
        3.33014         25.3603         2.03435 
        3.34585         25.1081         2.01055 
        3.36158         24.8926          1.9871 
        3.37727         24.5968         1.96409 
        3.39294         24.3972         1.94146 
        3.40867         24.1745         1.91912 
        3.42439         23.9595         1.89713 
        3.44008         23.6954         1.87553 
        3.45578         23.5871         1.85426 
        3.47153         23.2539         1.83326 
        3.48724         23.0675         1.81263 
        3.50292         22.8517         1.79236 
        3.51859         22.6547         1.77242 
        3.53431         22.4496         1.75271 
        3.55007         22.2294         1.73326 
        3.56577         22.0613         1.71418 
        3.58146          21.835         1.69539 
        3.59719         21.6004         1.67684 
        3.61292         21.4211         1.65857 
        3.62859            21.2         1.64065 
        3.64429         20.9629         1.62296 
        3.66003         20.9051         1.60547 
        3.67578         20.6915         1.58825 
        3.69146           20.43         1.57134 
        3.70712         20.3056         1.55471 
        3.72284         20.0874         1.53826 
        3.73853         19.9282         1.52208 
        3.75422         19.7105         1.50612 
        3.76993         19.5731         1.49038 
        3.78564         19.4036         1.47487 
        3.80137         19.2313         1.45956 
        3.81707         19.0636         1.44449 
        3.83279         18.8564         1.42963 
        3.84853         18.6867         1.41495 
        3.86424          18.519          1.4005 
        3.87992          18.343         1.38628 
        3.89561         18.2295         1.37225 
        3.91134         18.0081         1.35839 
        3.92704         17.8849         1.34474 
        3.94273          17.735         1.33129 
        3.95845         17.5737           1.318 
        3.97418         17.3928         1.30488 
        3.98988         17.2469         1.29196 
        4.00554         17.1783         1.27926 
        4.02125         16.9261         1.26668 
        4.03698         16.7515         1.25426 
        4.05268         16.6801         1.24203 
        4.06839         16.5408         1.22995 
         4.0841          16.373         1.21804 
        4.09983         16.2008         1.20627 
        4.11555         16.0804         1.19466 
        4.13124         15.9802         1.18324 
        4.14693         15.8679         1.17195 
        4.16266         15.7239         1.16079 
        4.17839         15.5544         1.14978 
        4.19408         15.4092         1.13893 
        4.20977         15.3056         1.12822 
        4.22551         15.1657         1.11762 
        4.24123         15.0249         1.10717 
        4.25691         14.8655         1.09689 
        4.27259         14.7909         1.08672 
        4.28831         14.7094         1.07667 
        4.30404          14.535         1.06674 
        4.31974         14.4369         1.05695 
        4.33543         14.2935         1.04729 
        4.35116         14.1635         1.03773 
        4.36688         14.0532         1.02829 
        4.38255         13.9487           1.019 
        4.39825         13.8009         1.00981 
        4.41398         13.7312         1.00071 
         4.4297         13.5807        0.991733 
        4.44541         13.4766        0.982868 
        4.46111         13.3908        0.974119 
        4.47683         13.2633         0.96547 
        4.49251          13.156        0.956944 
        4.50819         13.0543        0.948522 
         4.5239         12.9549         0.94019 
        4.53962         12.8596        0.931948 
        4.55535         12.7312          0.9238 
        4.57106         12.6385        0.915761 
        4.58678         12.5503        0.907817 
         4.6025         12.4465        0.899964 
        4.61821         12.3397        0.892206 
        4.63391         12.2462        0.884549 
         4.6496          12.138        0.876985 
        4.66532         12.0521        0.869498 
        4.68103         11.9403        0.862101 
        4.69673          11.825        0.854798 
        4.71241         11.7694        0.847586 
        4.72811         11.6956        0.840446 
        4.74384         11.5599        0.833378 
        4.75955         11.4994        0.826403 
        4.77525         11.4071        0.819511 
        4.79096         11.3392         0.81269 
        4.80669           11.24        0.805942 
         4.8224         11.1587        0.799279 
        4.83809         11.0557        0.792699 
        4.85379         10.9646        0.786188 
         4.8695         10.8682        0.779745 
        4.88521         10.8101        0.773377 
        4.90093         10.7377        0.767079 
        4.91663         10.6238        0.760857 
        4.93234         10.5437        0.754697 
        4.94807         10.4689        0.748601 
        4.96377         10.3987        0.742584 
        4.97943         10.3157        0.736646 
        4.99514          10.194        0.730757 
        5.01086         10.1727        0.724929 
        5.02654         10.0964        0.719178 
        5.04227         9.98331        0.713473 
          5.058         9.93221        0.707827 
        5.07371         9.84128        0.702254 
        5.08942         9.79785        0.696739 
        5.10513         9.70168        0.691283 
        5.12084         9.65298        0.685883 
        5.13656         9.55961        0.680541 
        5.15225         9.47225        0.675266 
        5.16796         9.41405        0.670037 
        5.18369         9.34768         0.66486 
         5.1994         9.27938        0.659746 
        5.21509         9.19688        0.654691 
        5.23079         9.13114        0.649683 
        5.24649         9.05826        0.644731 
        5.26217         8.98499        0.639834 
        5.27788         8.95864        0.634981 
        5.29359         8.85702        0.630177 
        5.30933         8.81667        0.625416 
        5.32504         8.75621        0.620712 
        5.34073         8.69207        0.616062 
        5.35646         8.61096         0.61145 
        5.37218         8.55969        0.606885 
        5.38789         8.47536        0.602373 
        5.40357         8.41783        0.597912 
        5.41929         8.38676        0.593487 
        5.43502         8.31409        0.589105 
         5.4507         8.24881        0.584779 
        5.46639         8.19152        0.580495 
        5.48212         8.14162        0.576244 
        5.49786          8.0825        0.572031 
        5.51353         8.02606         0.56788 
        5.52921         7.97449        0.563767 
        5.54495         7.91691        0.559682 
        5.56066          7.8416        0.555642 
        5.57637         7.80539        0.551643 
        5.59207         7.75085        0.547686 
        5.60778         7.68777        0.543766 
        5.62346         7.62828        0.539891 
        5.63916         7.58475        0.536049 
        5.65487         7.54194        0.532243 
         5.6706         7.47559         0.52847 
        5.68633         7.42881        0.524731 
        5.70203         7.36184        0.521036 
        5.71773         7.32823        0.517378 
        5.73344         7.27961        0.513753 
        5.74916         7.22467        0.510159 
        5.76486         7.18483        0.506604 
        5.78054         7.12551        0.503089 
        5.79626         7.06822        0.499597 
          5.812         7.04378        0.496134 
         5.8277         6.97305        0.492715 
        5.84339         6.92984        0.489328 
        5.85911         6.87432        0.485966 
        5.87484         6.84006        0.482636 
        5.89053         6.79537        0.479344 
        5.90623         6.75782        0.476082 
        5.92195         6.70515        0.472844 
        5.93767         6.65246        0.469637 
        5.95336         6.61019        0.466466 
        5.96905         6.56916        0.463325 
        5.98476         6.51974        0.460209 
        6.00048         6.48379         0.45712 
        6.01617         6.44131        0.454064 
        6.03185         6.39257         0.45104 
        6.04756          6.3548        0.448035 
        6.06331         6.31751        0.445052 
        6.07903         6.26417        0.442102 
        6.09473         6.23299        0.439182 
        6.11044         6.19558        0.436285 
        6.12616         6.13654        0.433415 
        6.14186         6.10931        0.430573 
        6.15755         6.07488        0.427757 
        6.17326          6.0288        0.424965 
        6.18898          5.9913        0.422195 
        6.20467         5.94693        0.419455 
        6.22036         5.91292         0.41674 
         6.2361         5.87722        0.414042 
         6.2518          5.8288        0.411372 
        6.26748         5.81123        0.408731 
        6.28319         5.76414        0.406106 
        6.29893         5.73232        0.403502 
        6.31463         5.69677        0.400925 
        6.33033         5.65932        0.398371 
        6.34604         5.61464        0.395838 
        6.36177         5.58662        0.393324 
        6.37747          5.5481        0.390837 
