# k  (h/Mpc)    Pcb(k)  (Mpc/h)^3    Pcb_linear(k) (Mpc/h)^3   ShotnoiseSubtracted = true
      0.0200456         15685.1         15936.4 
      0.0350414         11918.5         11585.2 
      0.0492313         8296.39         8417.59 
      0.0637834          6700.1         6997.47 
      0.0800726         5269.75         5553.72 
       0.096163         4177.34         4029.71 
       0.111083         3399.19          3214.2 
       0.126058         2820.36         2848.43 
       0.142273          2448.9         2413.25 
       0.158546         2011.77         1905.96 
        0.17375          1774.7         1605.77 
       0.188953         1660.19         1453.99 
       0.204907         1422.61         1286.48 
       0.220756          1279.4         1088.44 
        0.23588          1139.9         946.851 
         0.2514         1023.56         860.205 
       0.267535         993.032         778.338 
       0.283568         873.683         686.389 
       0.299022         834.465         611.537 
       0.314451         856.689         558.904 
       0.330372         740.588         512.731 
       0.346141         683.833         465.382 
       0.361624         655.223         422.968 
       0.377134         620.656         389.198 
       0.392932          598.15         360.117 
       0.408854         570.193         331.958 
       0.424564         554.076         305.971 
       0.440253         505.725          283.67 
       0.455999          484.42         264.279 
       0.471626         491.492         246.459 
        0.48727         464.467         229.789 
       0.502856         432.615         214.814 
       0.518488         430.477         201.452 
       0.534347         403.484          189.03 
       0.550082         388.119         177.577 
       0.565732         385.474         167.098 
       0.581496         373.129         157.501 
       0.597222         362.455           148.7 
       0.612804         353.751         140.607 
       0.628434         339.843         133.063 
       0.644267         326.662         126.011 
       0.660051          322.16         119.511 
       0.675724         317.147         113.509 
       0.691403         309.472         107.914 
       0.707174         297.808         102.665 
       0.722871         293.254         97.7853 
        0.73838         289.842         93.2754 
       0.754018          278.11         89.0159 
       0.769845         277.028          84.976 
        0.78569         270.567         81.1835 
       0.801365         262.943         77.6602 
       0.817031         258.891         74.3493 
       0.832809         254.439         71.2113 
       0.848511         248.016         68.2693 
       0.864097         242.134         65.5146 
       0.879701         241.013         62.9099 
       0.895507         234.844         60.4168 
       0.911279         228.459         58.0647 
        0.92691         226.091         55.8578 
       0.942635         224.347         53.7539 
       0.958396         218.539         51.7544 
       0.974128         215.198         49.8608 
       0.989692         207.917         48.0809 
        1.00528         207.436         46.3857 
        1.02113         204.031          44.746 
        1.03692         199.564          43.192 
        1.05264         196.445         41.7192 
        1.06832         196.009         40.3176 
        1.08405         190.401          38.977 
        1.09979         189.203         37.6968 
        1.11537         185.407         36.4869 
        1.13105         182.352         35.3232 
        1.14679         180.512          34.206 
        1.16256         177.774          33.135 
        1.17828         175.812         32.1136 
        1.19395         171.207         31.1389 
         1.2097         170.399         30.1998 
        1.22537         169.035         29.3041 
          1.241         164.824         28.4476 
        1.25666         162.725         27.6233 
        1.27241         159.066         26.8279 
        1.28819         157.795         26.0626 
        1.30392         155.581         25.3294 
        1.31957         152.004         24.6278 
        1.33529         150.397         23.9504 
        1.35108         148.645         23.2957 
        1.36674         146.089         22.6703 
         1.3824         145.326         22.0686 
        1.39811         142.029         21.4867 
        1.41389         140.158         20.9236 
        1.42964         138.065         20.3817 
        1.44531         136.735         19.8617 
        1.46101         133.857         19.3588 
        1.47667         133.651         18.8749 
        1.49229         131.506         18.4088 
        1.50793         129.092          17.958 
        1.52367         127.527         17.5194 
        1.53953         125.449         17.0926 
        1.55526         124.836         16.6834 
        1.57092         123.108         16.2894 
        1.58662          120.85         15.9071 
        1.60235         119.292         15.5365 
        1.61809         118.217         15.1774 
        1.63369          116.18          14.833 
        1.64941         115.676         14.4968 
        1.66519         113.714         14.1698 
        1.68085         111.739         13.8552 
        1.69652         110.745         13.5502 
        1.71228         109.769         13.2525 
        1.72806         108.358         12.9637 
        1.74368         106.554         12.6863 
        1.75933         105.788         12.4165 
        1.77505         103.887         12.1534 
        1.79081         102.671         11.8974 
         1.8065         100.956         11.6498 
        1.82218         99.9333         11.4096 
        1.83797          99.577         11.1745 
        1.85367         97.4567         10.9473 
        1.86928         97.1062         10.7278 
        1.88497         95.4231         10.5132 
        1.90073         94.7009         10.3036 
        1.91647         93.0063            10.1 
        1.93218         91.8929         9.90227 
        1.94787          90.702         9.71016 
        1.96363         89.8477         9.52239 
        1.97935         89.0241         9.33997 
        1.99499         88.1558         9.16338 
        2.01064         86.1595          8.9911 
         2.0264         85.6223         8.82217 
        2.04216          84.053         8.65768 
        2.05781         83.5815         8.49842 
        2.07353         82.5309          8.3426 
        2.08928          81.369         8.19036 
        2.10499         80.3281         8.04233 
        2.12065         79.9581          7.8984 
        2.13633         78.9274         7.75788 
        2.15211         77.6121         7.61988 
        2.16785         76.4764         7.48562 
        2.18349         75.6202         7.35544 
        2.19916         74.8219         7.22808 
        2.21489         73.8526         7.10333 
        2.23063         72.9501         6.98143 
         2.2463         72.4853         6.86295 
        2.26194         71.4785         6.74752 
        2.27765         70.6378         6.63415 
        2.29341         69.8269         6.52309 
        2.30914         69.0183         6.41481 
        2.32486         67.5294         6.30904 
        2.34061         67.2457         6.20549 
        2.35635         66.5097         6.10436 
        2.37203         65.5151         6.00583 
        2.38768         64.9376         5.90968 
        2.40339         64.1886          5.8153 
        2.41914         63.1973         5.72275 
        2.43483         62.8388         5.63255 
         2.4505         61.9455         5.54444 
        2.46622         61.5226         5.45792 
        2.48195         60.5852         5.37324 
        2.49759         59.9712         5.29081 
        2.51328          59.357         5.20989 
        2.52906         58.6561         5.13016 
        2.54479         57.9436         5.05239 
        2.56049         57.2107         4.97639 
        2.57618         56.5245         4.90201 
        2.59189         56.1311         4.82905 
        2.60758         55.3427         4.75768 
        2.62325         54.8425         4.68785 
        2.63898         54.2346         4.61917 
        2.65468         53.6688         4.55202 
        2.67044         53.1137         4.48591 
        2.68618         52.6338         4.42127 
        2.70184         51.8275         4.35816 
        2.71755         51.2009         4.29613 
        2.73329         50.8779         4.23521 
        2.74897         50.4531         4.17567 
        2.76462         49.9007         4.11741 
        2.78034         49.2486         4.06002 
        2.79607         48.5051         4.00366 
        2.81179         48.0894         3.94843 
        2.82749         47.7082         3.89432 
        2.84321         47.3251         3.84115 
        2.85893         46.7083         3.78899 
        2.87462         45.9704         3.73789 
        2.89033         45.6243         3.68769 
        2.90605         45.0503         3.63837 
        2.92176         44.7164         3.58997 
        2.93747         44.2137         3.54248 
        2.95318         43.7946         3.49584 
        2.96891         43.2841         3.45001 
        2.98456         42.9312         3.40522 
        3.00023         42.2885         3.36115 
        3.01596         42.0395         3.31772 
        3.03164         41.5051         3.27519 
        3.04738         41.0859         3.23327 
         3.0631          40.849         3.19211 
        3.07883         40.3421         3.15166 
        3.09456         39.8817         3.11191 
        3.11026         39.4101         3.07292 
        3.12596         39.0319         3.03459 
        3.14163         38.6762         2.99701 
        3.15734         38.3333         2.95998 
        3.17308         38.0456         2.92348 
        3.18879         37.5901          2.8877 
        3.20447         37.0544         2.85257 
         3.2202         36.7425         2.81791 
         3.2359         36.4976          2.7839 
        3.25157         35.9901         2.75052 
        3.26729         35.7701         2.71759 
        3.28304         35.4342         2.68514 
        3.29877         34.9022         2.65326 
        3.31446         34.7043         2.62196 
        3.33014         34.2191          2.5912 
        3.34585         33.8829         2.56088 
        3.36158         33.5826         2.53101 
        3.37727         33.2518          2.5017 
        3.39294         32.9543         2.47288 
        3.40867         32.6941         2.44442 
        3.42439         32.3425         2.41642 
        3.44008         32.0647         2.38891 
        3.45578         31.7297         2.36181 
        3.47153         31.5286         2.33506 
        3.48724         31.1165         2.30879 
        3.50292         30.8979         2.28297 
        3.51859         30.5563         2.25756 
        3.53431         30.2801         2.23246 
        3.55007         29.8441         2.20769 
        3.56577         29.6499         2.18338 
        3.58146         29.3733         2.15945 
        3.59719         29.1066         2.13582 
        3.61292         28.9236         2.11256 
        3.62859         28.5411         2.08973 
        3.64429         28.2626         2.06719 
        3.66003         28.0311         2.04492 
        3.67578         27.7968         2.02298 
        3.69146         27.6201         2.00145 
        3.70712         27.2164         1.98027 
        3.72284         27.0556         1.95932 
        3.73853         26.8249          1.9387 
        3.75422         26.5859         1.91838 
        3.76993         26.2839         1.89833 
        3.78564         26.0299         1.87857 
        3.80137         25.8418         1.85907 
        3.81707         25.5719         1.83988 
        3.83279         25.2946         1.82094 
        3.84853         25.1489         1.80224 
        3.86424         24.7498         1.78385 
        3.87992         24.5931         1.76573 
        3.89561         24.4737         1.74787 
        3.91134         24.1539         1.73021 
        3.92704         23.9413         1.71282 
        3.94273         23.6876         1.69569 
        3.95845          23.546         1.67876 
        3.97418         23.3645         1.66205 
        3.98988         23.1246          1.6456 
        4.00554         22.8574         1.62941 
        4.02125         22.6818          1.6134 
        4.03698         22.5065         1.59757 
        4.05268         22.3029           1.582 
        4.06839         22.1001         1.56662 
         4.0841         21.9294         1.55145 
        4.09983         21.6801         1.53646 
        4.11555         21.5335         1.52167 
        4.13124         21.3995         1.50712 
        4.14693         21.2206         1.49274 
        4.16266         20.9776         1.47852 
        4.17839         20.8318         1.46449 
        4.19408         20.5803         1.45068 
        4.20977         20.4699         1.43704 
        4.22551         20.3039         1.42354 
        4.24123         20.0968         1.41023 
        4.25691         19.9355         1.39713 
        4.27259          19.785         1.38418 
        4.28831         19.6013         1.37138 
        4.30404         19.3934         1.35872 
        4.31974          19.277         1.34626 
        4.33543         19.1463         1.33395 
        4.35116          18.965         1.32177 
        4.36688         18.8018         1.30975 
        4.38255         18.5962         1.29792 
        4.39825         18.5026         1.28621 
        4.41398         18.2908         1.27462 
         4.4297         18.2144         1.26319 
        4.44541         18.0086          1.2519 
        4.46111         17.7805         1.24076 
        4.47683         17.6926         1.22974 
        4.49251         17.5957         1.21888 
        4.50819         17.4316         1.20815 
         4.5239         17.2952         1.19754 
        4.53962         17.1996         1.18704 
        4.55535         17.0075         1.17666 
        4.57106         16.8881         1.16642 
        4.58678         16.7129          1.1563 
         4.6025         16.5397          1.1463 
        4.61821          16.487         1.13642 
        4.63391         16.3045         1.12667 
         4.6496         16.1737         1.11703 
        4.66532         16.0528          1.1075 
        4.68103         15.9361         1.09808 
        4.69673         15.7794         1.08877 
        4.71241         15.7063         1.07959 
        4.72811         15.5428         1.07049 
        4.74384         15.3987         1.06149 
        4.75955         15.3072         1.05261 
        4.77525         15.1807         1.04383 
        4.79096         15.0529         1.03514 
        4.80669         14.9685         1.02655 
         4.8224         14.8428         1.01806 
        4.83809         14.6922         1.00968 
        4.85379         14.5894         1.00138 
         4.8695          14.492        0.993177 
        4.88521          14.352        0.985066 
        4.90093         14.2173        0.977044 
        4.91663         14.1603        0.969119 
        4.93234         14.0344        0.961273 
        4.94807         13.9284        0.953509 
        4.96377         13.8282        0.945845 
        4.97943         13.7258        0.938281 
        4.99514         13.6081         0.93078 
        5.01086         13.5165        0.923356 
        5.02654         13.4042        0.916032 
        5.04227         13.3035        0.908765 
          5.058         13.1826        0.901574 
        5.07371         13.1044        0.894475 
        5.08942          12.984        0.887451 
        5.10513          12.915        0.880501 
        5.12084         12.8035        0.873623 
        5.13656         12.7163        0.866819 
        5.15225         12.6131        0.860099 
        5.16796         12.5135         0.85344 
        5.18369         12.4126        0.846845 
         5.1994         12.3333        0.840332 
        5.21509         12.2344        0.833893 
        5.23079         12.1395        0.827514 
        5.24649          12.062        0.821207 
        5.26217         11.9612        0.814969 
        5.27788         11.8674        0.808788 
        5.29359         11.7799        0.802669 
        5.30933         11.6993        0.796605 
        5.32504          11.605        0.790614 
        5.34073         11.5466        0.784691 
        5.35646         11.4731        0.778817 
        5.37218         11.3526        0.773001 
        5.38789         11.2773        0.767254 
        5.40357         11.1908        0.761573 
        5.41929         11.1206        0.755936 
        5.43502         11.0455        0.750355 
         5.4507         10.9595        0.744844 
        5.46639         10.8545        0.739388 
        5.48212         10.8023        0.733974 
        5.49786         10.7379        0.728607 
        5.51353         10.6555        0.723321 
        5.52921         10.5831        0.718081 
        5.54495         10.4828        0.712878 
        5.56066         10.4132        0.707732 
        5.57637         10.3651        0.702638 
        5.59207         10.2823        0.697599 
        5.60778          10.202        0.692606 
        5.62346          10.125         0.68767 
        5.63916         10.0667        0.682777 
        5.65487         9.99554        0.677929 
         5.6706          9.9135        0.673122 
        5.68633         9.83009        0.668361 
        5.70203         9.77352        0.663655 
        5.71773         9.70147        0.658995 
        5.73344         9.64968        0.654377 
        5.74916         9.59254        0.649799 
        5.76486         9.51542        0.645272 
        5.78054         9.44905        0.640794 
        5.79626         9.37571        0.636346 
          5.812         9.29908        0.631936 
         5.8277         9.25084        0.627581 
        5.84339         9.15824        0.623267 
        5.85911         9.12687        0.618985 
        5.87484         9.04609        0.614744 
        5.89053         8.99105        0.610551 
        5.90623         8.94315        0.606395 
        5.92195         8.87743         0.60227 
        5.93767         8.80404        0.598187 
        5.95336           8.741        0.594147 
        5.96905         8.70496        0.590147 
        5.98476         8.62566        0.586178 
        6.00048          8.5692        0.582244 
        6.01617         8.51574        0.578351 
        6.03185         8.47132        0.574498 
        6.04756         8.41012        0.570672 
        6.06331         8.35169        0.566872 
        6.07903         8.29103        0.563115 
        6.09473          8.2346        0.559395 
        6.11044         8.18485        0.555705 
        6.12616         8.13654        0.552049 
        6.14186         8.08832         0.54843 
        6.15755         8.03745        0.544843 
        6.17326         7.95833        0.541286 
        6.18898         7.92759        0.537759 
        6.20467         7.87166        0.534269 
        6.22036         7.80533        0.530811 
         6.2361         7.76764        0.527373 
         6.2518         7.71217        0.523972 
        6.26748         7.66452        0.520609 
        6.28319          7.6234        0.517265 
        6.29893         7.56562        0.513948 
        6.31463         7.50815        0.510666 
        6.33033         7.46357        0.507413 
        6.34604         7.40868        0.504187 
        6.36177         7.37706        0.500985 
        6.37747         7.32224        0.497817 
