# k  (h/Mpc)    Pcb(k)  (Mpc/h)^3    Pcb_linear(k) (Mpc/h)^3   ShotnoiseSubtracted = true
      0.0200456         5553.05         5627.97 
      0.0350414          4176.9         4091.35 
      0.0492313         2966.86          2972.7 
      0.0637834         2413.14         2471.17 
      0.0800726         1906.18         1961.31 
       0.096163         1462.51          1423.1 
       0.111083         1182.76          1135.1 
       0.126058         999.083         1005.93 
       0.142273         851.504         852.245 
       0.158546         694.198         673.095 
        0.17375         599.545         567.082 
       0.188953         545.652          513.48 
       0.204907         464.446         454.325 
       0.220756         412.932         384.387 
        0.23588         363.583         334.383 
         0.2514           326.8         303.784 
       0.267535         310.197         274.872 
       0.283568         270.685           242.4 
       0.299022         253.111         215.966 
       0.314451          244.82         197.378 
       0.330372         213.734         181.072 
       0.346141         197.176         164.351 
       0.361624         184.877         149.372 
       0.377134         169.167         137.446 
       0.392932         164.627         127.176 
       0.408854         154.284         117.232 
       0.424564          147.11         108.054 
       0.440253         133.419         100.179 
       0.455999         124.219         93.3309 
       0.471626         119.952         87.0376 
        0.48727         116.041         81.1507 
       0.502856          106.47         75.8621 
       0.518488         103.534         71.1433 
       0.534347         97.3985         66.7565 
       0.550082         94.5958         62.7116 
       0.565732         92.0036         59.0112 
       0.581496         84.9414          55.622 
       0.597222         82.4082         52.5137 
       0.612804         79.5824         49.6556 
       0.628434         77.6821         46.9916 
       0.644267         73.5096          44.501 
       0.660051         70.8983         42.2055 
       0.675724         68.9104         40.0859 
       0.691403         67.6179           38.11 
       0.707174         65.2566         36.2562 
       0.722871         63.5506         34.5331 
        0.73838         61.0747         32.9404 
       0.754018         57.8282         31.4362 
       0.769845         57.2181         30.0095 
        0.78569         55.2244         28.6702 
       0.801365         53.7433         27.4259 
       0.817031         51.7569         26.2566 
       0.832809         50.8797         25.1484 
       0.848511         49.4715         24.1095 
       0.864097         48.4621         23.1366 
       0.879701         47.4583         22.2168 
       0.895507         45.7385         21.3364 
       0.911279         44.7689         20.5057 
        0.92691         43.6855         19.7263 
       0.942635         42.8022         18.9833 
       0.958396         42.3582         18.2772 
       0.974128         41.2196         17.6085 
       0.989692         39.8949         16.9799 
        1.00528         39.3528         16.3812 
        1.02113         38.4147         15.8022 
        1.03692         37.9703         15.2534 
        1.05264         37.0715         14.7332 
        1.06832         36.3502         14.2383 
        1.08405         35.4581         13.7648 
        1.09979         35.2637         13.3127 
        1.11537         34.1616         12.8855 
        1.13105         33.4513         12.4745 
        1.14679         32.8642         12.0799 
        1.16256         32.4414         11.7017 
        1.17828         31.9896          11.341 
        1.19395         31.2618         10.9968 
         1.2097         30.9233         10.6651 
        1.22537         30.2844         10.3488 
          1.241         29.7405         10.0463 
        1.25666         29.3197         9.75523 
        1.27241          28.996         9.47434 
        1.28819          27.962         9.20406 
        1.30392         28.1443         8.94516 
        1.31957         27.6037         8.69739 
        1.33529          27.036         8.45813 
        1.35108         26.7131         8.22695 
        1.36674         26.3985         8.00609 
         1.3824         25.9019         7.79357 
        1.39811          25.345         7.58808 
        1.41389         25.1055         7.38923 
        1.42964         24.8971         7.19786 
        1.44531         24.4063         7.01423 
        1.46101         24.1674         6.83662 
        1.47667         23.8553         6.66572 
        1.49229         23.3566         6.50113 
        1.50793         23.1905         6.34192 
        1.52367         22.8225         6.18704 
        1.53953         22.6304          6.0363 
        1.55526         22.2138          5.8918 
        1.57092         22.0905         5.75264 
        1.58662         21.7763         5.61765 
        1.60235         21.4341         5.48675 
        1.61809         21.2283         5.35995 
        1.63369         21.0061          5.2383 
        1.64941         20.7326         5.11957 
        1.66519         20.3988         5.00409 
        1.68085          20.034         4.89301 
        1.69652         20.0428         4.78527 
        1.71228         19.7322         4.68017 
        1.72806         19.4286         4.57815 
        1.74368         19.2619         4.48021 
        1.75933          19.059         4.38493 
        1.77505         18.8592         4.29199 
        1.79081         18.6544         4.20158 
         1.8065         18.4378         4.11417 
        1.82218         18.2747         4.02933 
        1.83797         18.1446          3.9463 
        1.85367         18.0007         3.86607 
        1.86928         17.8025         3.78856 
        1.88497         17.5638         3.71276 
        1.90073         17.3516         3.63875 
        1.91647           17.05         3.56683 
        1.93218         17.1293         3.49701 
        1.94787         16.7877         3.42917 
        1.96363         16.7138         3.36286 
        1.97935         16.4424         3.29844 
        1.99499         16.2691         3.23607 
        2.01064         16.1342         3.17523 
         2.0264         15.9477         3.11557 
        2.04216         15.9035         3.05748 
        2.05781         15.7034         3.00124 
        2.07353         15.5538         2.94621 
        2.08928         15.3529         2.89245 
        2.10499         15.1872         2.84017 
        2.12065         15.0794         2.78934 
        2.13633         14.9577         2.73972 
        2.15211         14.7715         2.69098 
        2.16785          14.706         2.64357 
        2.18349         14.4829         2.59759 
        2.19916         14.3698         2.55262 
        2.21489          14.205         2.50856 
        2.23063         14.1648         2.46551 
         2.2463         13.9388         2.42367 
        2.26194         13.8499          2.3829 
        2.27765         13.6414         2.34287 
        2.29341         13.5748         2.30365 
        2.30914           13.43         2.26541 
        2.32486         13.3724         2.22806 
        2.34061         13.2341         2.19149 
        2.35635         13.1091         2.15577 
        2.37203         12.9698         2.12098 
        2.38768         12.8099         2.08702 
        2.40339         12.7927         2.05369 
        2.41914         12.6107           2.021 
        2.43483         12.4975         1.98915 
         2.4505         12.3811         1.95803 
        2.46622         12.3306         1.92748 
        2.48195         12.2233         1.89757 
        2.49759          12.038         1.86846 
        2.51328         12.0474         1.83989 
        2.52906         11.8677         1.81173 
        2.54479         11.7624         1.78426 
        2.56049         11.6294         1.75742 
        2.57618         11.6098         1.73116 
        2.59189         11.5522         1.70539 
        2.60758         11.3659         1.68019 
        2.62325         11.2891         1.65553 
        2.63898         11.2476         1.63127 
        2.65468         11.0696         1.60756 
        2.67044         11.0496         1.58421 
        2.68618         10.9512         1.56138 
        2.70184         10.8368          1.5391 
        2.71755         10.7626         1.51719 
        2.73329         10.6437         1.49568 
        2.74897         10.5782         1.47465 
        2.76462         10.5099         1.45407 
        2.78034         10.3876         1.43381 
        2.79607         10.3512          1.4139 
        2.81179         10.2281          1.3944 
        2.82749         10.1617         1.37529 
        2.84321         10.0907         1.35651 
        2.85893         10.0087         1.33809 
        2.87462         9.94654         1.32005 
        2.89033         9.83274         1.30232 
        2.90605         9.78921          1.2849 
        2.92176         9.68697         1.26781 
        2.93747         9.61108         1.25104 
        2.95318         9.53406         1.23456 
        2.96891         9.48367         1.21838 
        2.98456         9.37988         1.20256 
        3.00023         9.31917           1.187 
        3.01596         9.21484         1.17166 
        3.03164         9.21291         1.15664 
        3.04738         9.09569         1.14184 
         3.0631         8.99212          1.1273 
        3.07883         8.94922         1.11302 
        3.09456         8.89091         1.09898 
        3.11026         8.83571         1.08521 
        3.12596         8.73653         1.07167 
        3.14163         8.71687          1.0584 
        3.15734         8.61218         1.04532 
        3.17308         8.57546         1.03244 
        3.18879          8.4943          1.0198 
        3.20447         8.40739         1.00739 
         3.2202         8.36537        0.995154 
         3.2359         8.27779        0.983141 
        3.25157         8.26843        0.971354 
        3.26729         8.17644        0.959725 
        3.28304         8.09783        0.948264 
        3.29877         8.06372        0.937004 
        3.31446          8.0074        0.925952 
        3.33014         7.93993        0.915088 
        3.34585         7.90739        0.904382 
        3.36158         7.83513        0.893831 
        3.37727         7.78978        0.883481 
        3.39294         7.70907        0.873305 
        3.40867         7.67532        0.863252 
        3.42439         7.58907        0.853364 
        3.44008         7.53846        0.843649 
        3.45578         7.49142        0.834078 
        3.47153         7.41885        0.824634 
        3.48724         7.37061        0.815354 
        3.50292         7.29507        0.806237 
        3.51859         7.28759        0.797265 
        3.53431         7.22174        0.788401 
        3.55007         7.15796         0.77965 
        3.56577          7.0919        0.771066 
        3.58146         7.07874        0.762616 
        3.59719         7.00994        0.754272 
        3.61292         6.96372        0.746056 
        3.62859         6.92306        0.737993 
        3.64429         6.86582        0.730035 
        3.66003         6.81209        0.722169 
        3.67578         6.76142        0.714421 
        3.69146         6.73407        0.706817 
        3.70712         6.67825        0.699337 
        3.72284         6.60878        0.691938 
        3.73853         6.59026        0.684658 
        3.75422         6.51706        0.677481 
        3.76993         6.49319          0.6704 
        3.78564         6.44223        0.663423 
        3.80137         6.41526        0.656534 
        3.81707         6.32833        0.649757 
        3.83279         6.30949        0.643071 
        3.84853         6.24744        0.636467 
        3.86424         6.20803         0.62997 
        3.87992         6.16791        0.623572 
        3.89561         6.14159        0.617263 
        3.91134         6.07149        0.611029 
        3.92704         6.04304        0.604887 
        3.94273         6.00853        0.598837 
        3.95845         5.97487        0.592857 
        3.97418         5.91661        0.586959 
        3.98988         5.88173        0.581148 
        4.00554         5.84146        0.575432 
        4.02125         5.79027        0.569776 
        4.03698         5.76144        0.564188 
        4.05268         5.70079        0.558687 
        4.06839         5.66051        0.553255 
         4.0841         5.63101        0.547898 
        4.09983         5.58987        0.542603 
        4.11555         5.54582        0.537381 
        4.13124         5.50005        0.532242 
        4.14693         5.47799        0.527165 
        4.16266         5.44145        0.522143 
        4.17839         5.41332         0.51719 
        4.19408         5.36373        0.512312 
        4.20977         5.33429        0.507494 
        4.22551         5.29864        0.502727 
        4.24123         5.24681        0.498027 
        4.25691         5.21657        0.493399 
        4.27259         5.17378        0.488828 
        4.28831         5.13235        0.484306 
        4.30404         5.10073        0.479837 
        4.31974         5.06848        0.475434 
        4.33543          5.0252        0.471089 
        4.35116         4.99968        0.466787 
        4.36688          4.9669        0.462541 
        4.38255         4.94053        0.458364 
        4.39825         4.90044        0.454229 
        4.41398         4.87046        0.450136 
         4.4297          4.8556        0.446099 
        4.44541         4.80154        0.442112 
        4.46111         4.77487        0.438176 
        4.47683         4.74645        0.434286 
        4.49251         4.71992         0.43045 
        4.50819         4.68627        0.426662 
         4.5239         4.65718        0.422914 
        4.53962         4.61788        0.419207 
        4.55535         4.59534        0.415542 
        4.57106         4.56981        0.411926 
        4.58678         4.52658        0.408352 
         4.6025         4.50832         0.40482 
        4.61821         4.46356         0.40133 
        4.63391         4.43292        0.397886 
         4.6496         4.40564        0.394483 
        4.66532         4.38108        0.391115 
        4.68103         4.35044        0.387788 
        4.69673         4.33151        0.384503 
        4.71241         4.30816        0.381259 
        4.72811         4.27354        0.378047 
        4.74384         4.24923        0.374868 
        4.75955         4.21372        0.371731 
        4.77525         4.18501        0.368631 
        4.79096         4.16818        0.365562 
        4.80669         4.14537        0.362527 
         4.8224         4.10512         0.35953 
        4.83809         4.08924         0.35657 
        4.85379         4.04866        0.353641 
         4.8695         4.03101        0.350743 
        4.88521         4.00982        0.347879 
        4.90093         3.98506        0.345046 
        4.91663         3.96534        0.342247 
        4.93234          3.9298        0.339476 
        4.94807         3.91154        0.336734 
        4.96377          3.8861        0.334028 
        4.97943         3.86096        0.331356 
        4.99514         3.84336        0.328708 
        5.01086         3.81682        0.326086 
        5.02654          3.7911        0.323499 
        5.04227         3.76687        0.320933 
          5.058          3.7454        0.318393 
        5.07371         3.72259        0.315886 
        5.08942          3.6929        0.313405 
        5.10513         3.66941        0.310951 
        5.12084         3.65437        0.308522 
        5.13656         3.63176         0.30612 
        5.15225         3.61592        0.303746 
        5.16796         3.59244        0.301395 
        5.18369          3.5578        0.299066 
         5.1994         3.54333        0.296765 
        5.21509         3.51614        0.294492 
        5.23079         3.49995        0.292239 
        5.24649         3.47587        0.290011 
        5.26217         3.45102        0.287809 
        5.27788         3.43571        0.285626 
        5.29359         3.42007        0.283465 
        5.30933         3.39924        0.281323 
        5.32504         3.37504        0.279207 
        5.34073         3.36134        0.277116 
        5.35646         3.33439        0.275041 
        5.37218         3.32271        0.272987 
        5.38789         3.30202        0.270958 
        5.40357         3.27974        0.268951 
        5.41929          3.2554        0.266961 
        5.43502         3.23952         0.26499 
         5.4507         3.22153        0.263044 
        5.46639         3.19722        0.261117 
        5.48212         3.17983        0.259205 
        5.49786         3.16199        0.257309 
        5.51353         3.14559        0.255443 
        5.52921         3.12255        0.253592 
        5.54495         3.10924        0.251755 
        5.56066         3.09717        0.249938 
        5.57637         3.07536        0.248139 
        5.59207         3.05584        0.246359 
        5.60778         3.03928        0.244596 
        5.62346         3.02384        0.242852 
        5.63916         2.99734        0.241124 
        5.65487         2.98584        0.239412 
         5.6706         2.96665        0.237715 
        5.68633         2.95816        0.236033 
        5.70203         2.94167        0.234371 
        5.71773         2.91213        0.232726 
        5.73344         2.90198        0.231095 
        5.74916         2.88949        0.229478 
        5.76486         2.87132        0.227879 
        5.78054         2.85561        0.226298 
        5.79626         2.84156        0.224727 
          5.812         2.81879         0.22317 
         5.8277         2.80857        0.221632 
        5.84339         2.79093        0.220108 
        5.85911          2.7752        0.218596 
        5.87484         2.75768        0.217098 
        5.89053         2.74385        0.215618 
        5.90623          2.7301         0.21415 
        5.92195         2.71851        0.212693 
        5.93767         2.70146        0.211251 
        5.95336         2.68546        0.209825 
        5.96905         2.67265        0.208412 
        5.98476         2.65402         0.20701 
        6.00048         2.64636        0.205621 
        6.01617         2.62351        0.204246 
        6.03185         2.61188        0.202886 
        6.04756         2.59651        0.201534 
        6.06331         2.58419        0.200192 
        6.07903          2.5736        0.198865 
        6.09473          2.5545        0.197552 
        6.11044         2.54304        0.196249 
        6.12616         2.53358        0.194958 
        6.14186         2.51708        0.193679 
        6.15755         2.50632        0.192413 
        6.17326         2.49208        0.191157 
        6.18898         2.47408        0.189911 
        6.20467         2.46849        0.188678 
        6.22036         2.45338        0.187457 
         6.2361         2.44048        0.186243 
         6.2518         2.42538        0.185042 
        6.26748         2.41495        0.183854 
        6.28319         2.40159        0.182674 
        6.29893         2.38843        0.181502 
        6.31463          2.3794        0.180343 
        6.33033          2.3707        0.179194 
        6.34604         2.35398        0.178055 
        6.36177         2.34346        0.176924 
        6.37747         2.33136        0.175805 
