# k  (h/Mpc)    Pcb(k)  (Mpc/h)^3    Pcb_linear(k) (Mpc/h)^3   ShotnoiseSubtracted = true
      0.0200456         23906.8           24497 
      0.0350414         16936.2         17808.5 
      0.0492313         12631.1         12939.3 
      0.0637834         10961.7         10756.3 
      0.0800726         8643.84         8537.03 
       0.096163         5985.97         6194.36 
       0.111083         4826.77         4940.78 
       0.126058         4439.54         4378.54 
       0.142273         3846.42         3709.58 
       0.158546         3395.69         2929.79 
        0.17375          2721.4         2468.35 
       0.188953         2665.23         2235.03 
       0.204907         2503.86         1977.55 
       0.220756         2176.63         1673.13 
        0.23588         1953.14         1455.47 
         0.2514         1703.99         1322.28 
       0.267535         1708.09         1196.44 
       0.283568         1549.51          1055.1 
       0.299022         1469.76         940.039 
       0.314451         1400.92         859.132 
       0.330372         1283.46         788.157 
       0.346141         1242.55         715.373 
       0.361624         1194.45         650.176 
       0.377134         1114.83         598.264 
       0.392932         1067.88         553.562 
       0.408854         1052.18         510.278 
       0.424564         970.389          470.33 
       0.440253         952.508          436.05 
       0.455999         926.656         406.243 
       0.471626         893.694          378.85 
        0.48727         857.401         353.226 
       0.502856         831.418         330.206 
       0.518488          826.11         309.667 
       0.534347         775.639         290.572 
       0.550082          760.01         272.966 
       0.565732         753.571         256.859 
       0.581496         714.777         242.107 
       0.597222         699.345         228.577 
       0.612804         689.116         216.137 
       0.628434         670.454         204.541 
       0.644267         653.375           193.7 
       0.660051         636.669         183.709 
       0.675724         629.297         174.482 
       0.691403         609.492         165.882 
       0.707174         589.918         157.813 
       0.722871         581.606         150.313 
        0.73838         570.726          143.38 
       0.754018         560.337         136.833 
       0.769845         551.015         130.623 
        0.78569         540.691         124.793 
       0.801365         526.943         119.377 
       0.817031         514.893         114.288 
       0.832809          509.67         109.464 
       0.848511         498.798         104.942 
       0.864097         483.205         100.707 
       0.879701         476.831         96.7035 
       0.895507         475.224         92.8712 
       0.911279         462.844         89.2555 
        0.92691         456.331         85.8631 
       0.942635         444.314         82.6291 
       0.958396          433.56         79.5556 
       0.974128         428.269         76.6447 
       0.989692         425.967         73.9087 
        1.00528         412.805         71.3029 
        1.02113         410.869         68.7824 
        1.03692         399.977         66.3935 
        1.05264         396.377         64.1296 
        1.06832         385.841         61.9752 
        1.08405         381.305         59.9144 
        1.09979         375.597         57.9465 
        1.11537         368.582         56.0868 
        1.13105         363.077         54.2979 
        1.14679         353.064         52.5805 
        1.16256          346.25         50.9343 
        1.17828         346.117         49.3642 
        1.19395         337.997         47.8659 
         1.2097         330.975         46.4224 
        1.22537         325.089         45.0455 
          1.241         320.939         43.7289 
        1.25666         316.876         42.4618 
        1.27241         311.665         41.2391 
        1.28819         306.206         40.0627 
        1.30392         300.158         38.9357 
        1.31957         297.999         37.8573 
        1.33529         293.701         36.8158 
        1.35108         287.323         35.8096 
        1.36674           282.3         34.8483 
         1.3824          280.26         33.9232 
        1.39811         275.296         33.0288 
        1.41389         272.303         32.1632 
        1.42964         268.831         31.3303 
        1.44531         265.127         30.5309 
        1.46101         259.601         29.7579 
        1.47667         256.686          29.014 
        1.49229         253.744         28.2976 
        1.50793         247.443         27.6046 
        1.52367         246.267         26.9304 
        1.53953         241.946         26.2743 
        1.55526         238.197         25.6453 
        1.57092         235.871         25.0396 
        1.58662         233.238          24.452 
        1.60235         229.041         23.8823 
        1.61809         226.201         23.3304 
        1.63369         223.647         22.8009 
        1.64941         219.304          22.284 
        1.66519         217.411         21.7814 
        1.68085         214.529         21.2979 
        1.69652         211.352         20.8289 
        1.71228         206.119         20.3715 
        1.72806          204.11         19.9274 
        1.74368         201.168         19.5011 
        1.75933         198.396         19.0864 
        1.77505         196.787         18.6818 
        1.79081         194.379         18.2883 
         1.8065         190.358         17.9078 
        1.82218         188.519         17.5385 
        1.83797         187.316         17.1771 
        1.85367         184.039         16.8279 
        1.86928         180.865         16.4905 
        1.88497         178.812         16.1606 
        1.90073         176.472         15.8385 
        1.91647         175.351         15.5254 
        1.93218         172.455         15.2215 
        1.94787         168.619         14.9262 
        1.96363         166.735         14.6376 
        1.97935         165.374         14.3572 
        1.99499         163.248         14.0857 
        2.01064          161.04         13.8209 
         2.0264          159.73         13.5612 
        2.04216         157.399         13.3084 
        2.05781         155.142         13.0635 
        2.07353         153.675          12.824 
        2.08928         150.935           12.59 
        2.10499         149.717         12.3625 
        2.12065         147.329         12.1412 
        2.13633         145.267         11.9252 
        2.15211           143.3         11.7131 
        2.16785         142.072         11.5067 
        2.18349         140.561         11.3066 
        2.19916         138.517         11.1108 
        2.21489         137.282          10.919 
        2.23063         135.009         10.7317 
         2.2463         133.335         10.5495 
        2.26194         131.301         10.3721 
        2.27765         130.144         10.1978 
        2.29341         128.744         10.0271 
        2.30914         127.328         9.86067 
        2.32486          125.37          9.6981 
        2.34061          123.95         9.53892 
        2.35635         122.378         9.38346 
        2.37203          121.27         9.23201 
        2.38768         119.327         9.08421 
        2.40339          118.17         8.93912 
        2.41914         116.664         8.79686 
        2.43483         115.314          8.6582 
         2.4505         114.114         8.52277 
        2.46622         112.753         8.38977 
        2.48195         110.974          8.2596 
        2.49759          109.85         8.13289 
        2.51328         109.012         8.00851 
        2.52906         107.484         7.88594 
        2.54479         106.409          7.7664 
        2.56049         104.805         7.64957 
        2.57618         104.026         7.53524 
        2.59189         103.047         7.42309 
        2.60758         101.765         7.31339 
        2.62325         100.147         7.20604 
        2.63898         99.0119         7.10047 
        2.65468         97.9282         6.99724 
        2.67044         97.1891         6.89563 
        2.68618         96.1605         6.79626 
        2.70184         95.2638         6.69926 
        2.71755         93.6685          6.6039 
        2.73329         92.9084         6.51026 
        2.74897         91.9605         6.41873 
        2.76462         90.8668         6.32917 
        2.78034         89.8348         6.24095 
        2.79607         88.5618         6.15432 
        2.81179         87.8302         6.06943 
        2.82749          86.918         5.98624 
        2.84321         85.8291         5.90452 
        2.85893         85.0072         5.82434 
        2.87462         84.0948         5.74579 
        2.89033         83.0374         5.66862 
        2.90605          82.169          5.5928 
        2.92176         81.1396         5.51841 
        2.93747         80.4612         5.44541 
        2.95318         79.4899         5.37371 
        2.96891         78.8837         5.30327 
        2.98456         77.9301         5.23441 
        3.00023         77.1002         5.16667 
        3.01596         76.0352         5.09991 
        3.03164         75.4483         5.03453 
        3.04738         74.3785          4.9701 
         3.0631         73.6557         4.90682 
        3.07883         73.0871         4.84465 
        3.09456         72.6068         4.78355 
        3.11026         71.5931         4.72361 
        3.12596         70.6988          4.6647 
        3.14163         70.3172         4.60693 
        3.15734          69.221            4.55 
        3.17308         68.5411          4.4939 
        3.18879          68.005          4.4389 
        3.20447         67.1602          4.3849 
         3.2202         66.6228         4.33162 
         3.2359         65.7713         4.27933 
        3.25157          65.273         4.22803 
        3.26729         64.6072         4.17741 
        3.28304           64.08         4.12752 
        3.29877         63.3284         4.07852 
        3.31446         62.4193         4.03041 
        3.33014         61.9764         3.98312 
        3.34585         61.2241         3.93652 
        3.36158         60.7819         3.89059 
        3.37727         60.3056         3.84554 
        3.39294         59.3607         3.80125 
        3.40867         58.9738         3.75749 
        3.42439         58.4614         3.71445 
        3.44008         57.7612         3.67216 
        3.45578         57.1708         3.63051 
        3.47153         56.6221          3.5894 
        3.48724         56.2293           3.549 
        3.50292         55.7607         3.50932 
        3.51859         55.0596         3.47027 
        3.53431         54.7059         3.43169 
        3.55007         54.1569          3.3936 
        3.56577         53.7483         3.35623 
        3.58146         53.1414         3.31945 
        3.59719         52.4946         3.28313 
        3.61292         52.0327         3.24737 
        3.62859          51.446         3.21228 
        3.64429          51.045         3.17763 
        3.66003         50.6753          3.1434 
        3.67578         50.1405         3.10967 
        3.69146         49.5831         3.07658 
        3.70712         49.0896         3.04402 
        3.72284         48.7284         3.01181 
        3.73853         48.2171         2.98012 
        3.75422         47.7098         2.94888 
        3.76993         47.1897         2.91806 
        3.78564         46.8767         2.88769 
        3.80137         46.4399         2.85771 
        3.81707         45.8989         2.82821 
        3.83279         45.5534         2.79911 
        3.84853         45.2692         2.77036 
        3.86424         44.7781         2.74208 
        3.87992         44.2637         2.71423 
        3.89561         43.9867         2.68677 
        3.91134         43.5713         2.65964 
        3.92704         43.0489          2.6329 
        3.94273         42.6524         2.60657 
        3.95845         42.3871         2.58054 
        3.97418         42.0074         2.55487 
        3.98988         41.6172         2.52957 
        4.00554         41.2837         2.50469 
        4.02125         40.8537         2.48008 
        4.03698         40.4386         2.45575 
        4.05268         40.1283         2.43181 
        4.06839         39.7065         2.40816 
         4.0841         39.4088         2.38484 
        4.09983         39.1405          2.3618 
        4.11555          38.728         2.33907 
        4.13124         38.4096          2.3167 
        4.14693         38.1418          2.2946 
        4.16266         37.8013         2.27274 
        4.17839         37.3889         2.25118 
        4.19408         37.0065         2.22995 
        4.20977          36.777         2.20898 
        4.22551         36.4571         2.18823 
        4.24123         36.1647         2.16777 
        4.25691         35.8298         2.14763 
        4.27259         35.4894         2.12773 
        4.28831         35.2329         2.10805 
        4.30404         34.9342         2.08859 
        4.31974         34.6383         2.06943 
        4.33543         34.2614         2.05052 
        4.35116         34.0941         2.03179 
        4.36688         33.7126         2.01331 
        4.38255         33.4144         1.99513 
        4.39825         33.1994         1.97713 
        4.41398         32.9304         1.95932 
         4.4297         32.6085         1.94174 
        4.44541         32.3884         1.92439 
        4.46111         32.0593         1.90726 
        4.47683         31.7801         1.89032 
        4.49251         31.5485         1.87363 
        4.50819         31.3137         1.85714 
         4.5239         31.0948         1.84083 
        4.53962         30.7921         1.82469 
        4.55535         30.5216         1.80874 
        4.57106         30.2643           1.793 
        4.58678         30.0683         1.77744 
         4.6025         29.7421         1.76207 
        4.61821         29.5887         1.74688 
        4.63391         29.3029         1.73188 
         4.6496         29.0843         1.71707 
        4.66532         28.8489         1.70242 
        4.68103         28.6332         1.68793 
        4.69673         28.3753         1.67363 
        4.71241         28.2005         1.65951 
        4.72811         27.9658         1.64553 
        4.74384         27.7789          1.6317 
        4.75955         27.4493         1.61804 
        4.77525         27.3239         1.60454 
        4.79096         27.0812         1.59119 
        4.80669         26.8376         1.57798 
         4.8224         26.6105         1.56493 
        4.83809         26.4685         1.55205 
        4.85379         26.2832          1.5393 
         4.8695         25.9973         1.52669 
        4.88521          25.805         1.51422 
        4.90093         25.5889         1.50189 
        4.91663         25.3653          1.4897 
        4.93234         25.1281         1.47764 
        4.94807          25.057         1.46571 
        4.96377         24.8548         1.45393 
        4.97943         24.5954          1.4423 
        4.99514         24.4165         1.43077 
        5.01086         24.2678         1.41936 
        5.02654         24.0355          1.4081 
        5.04227         23.8619         1.39693 
          5.058         23.7298         1.38588 
        5.07371            23.5         1.37496 
        5.08942         23.2781         1.36417 
        5.10513         23.1492         1.35348 
        5.12084         23.0205         1.34291 
        5.13656         22.8531         1.33245 
        5.15225         22.6292         1.32212 
        5.16796         22.4387         1.31189 
        5.18369         22.2769         1.30175 
         5.1994         22.0895         1.29174 
        5.21509         21.9648         1.28184 
        5.23079         21.7716         1.27203 
        5.24649         21.6754         1.26234 
        5.26217         21.4765         1.25275 
        5.27788         21.3336         1.24325 
        5.29359         21.1659         1.23384 
        5.30933          20.947         1.22452 
        5.32504         20.8154         1.21531 
        5.34073         20.7268         1.20621 
        5.35646         20.5508         1.19718 
        5.37218         20.3796         1.18824 
        5.38789          20.241          1.1794 
        5.40357         20.1214         1.17067 
        5.41929         19.8862           1.162 
        5.43502          19.846         1.15343 
         5.4507         19.6385         1.14496 
        5.46639         19.5174         1.13657 
        5.48212         19.3851         1.12825 
        5.49786         19.2238            1.12 
        5.51353         19.0668         1.11187 
        5.52921         18.9237         1.10382 
        5.54495         18.8142         1.09582 
        5.56066         18.6755         1.08791 
        5.57637         18.5297         1.08008 
        5.59207         18.3936         1.07233 
        5.60778         18.2289         1.06466 
        5.62346         18.1298         1.05707 
        5.63916         18.0093         1.04955 
        5.65487         17.9148         1.04209 
         5.6706         17.7632         1.03471 
        5.68633         17.6272         1.02739 
        5.70203         17.4736         1.02015 
        5.71773         17.4147         1.01299 
        5.73344         17.2848         1.00589 
        5.74916         17.1223        0.998854 
        5.76486         17.0344        0.991895 
        5.78054         16.9192        0.985012 
        5.79626          16.767        0.978175 
          5.812         16.6915        0.971396 
         5.8277         16.5194        0.964701 
        5.84339         16.4423        0.958069 
        5.85911         16.3438        0.951487 
        5.87484         16.1936        0.944968 
        5.89053         16.0636        0.938522 
        5.90623         15.9663        0.932134 
        5.92195         15.8704        0.925794 
        5.93767         15.7552        0.919517 
        5.95336          15.663        0.913308 
        5.96905         15.5276        0.907158 
        5.98476         15.4303        0.901057 
        6.00048         15.3289         0.89501 
        6.01617         15.2297        0.889026 
        6.03185         15.1179        0.883104 
        6.04756         14.9953        0.877222 
        6.06331          14.904        0.871381 
        6.07903          14.817        0.865605 
        6.09473         14.7199        0.859887 
        6.11044         14.5805        0.854215 
        6.12616         14.4886        0.848596 
        6.14186          14.386        0.843032 
        6.15755         14.3008        0.837519 
        6.17326         14.2098         0.83205 
        6.18898         14.1273        0.826628 
        6.20467         14.0294        0.821264 
        6.22036         13.9222        0.815948 
         6.2361         13.8148        0.810665 
         6.2518         13.7391        0.805436 
        6.26748         13.6406        0.800266 
        6.28319         13.5423        0.795126 
        6.29893         13.4636        0.790028 
        6.31463         13.3496        0.784982 
        6.33033         13.3181        0.779982 
        6.34604         13.2018        0.775023 
        6.36177         13.1124        0.770101 
        6.37747         13.0322        0.765231 
