# k  (h/Mpc)    Pcb(k)  (Mpc/h)^3    Pcb_linear(k) (Mpc/h)^3   ShotnoiseSubtracted = true
      0.0200456         18542.3         18958.3 
      0.0350414         13208.3           13782 
      0.0492313         9836.43         10013.8 
      0.0637834         8488.72         8324.36 
      0.0800726         6703.04         6606.84 
       0.096163         4654.02         4793.84 
       0.111083         3728.44         3823.69 
       0.126058         3436.94         3388.57 
       0.142273         2974.83         2870.86 
       0.158546         2573.29         2267.38 
        0.17375         2056.93         1910.26 
       0.188953          2006.8          1729.7 
       0.204907         1886.47         1530.43 
       0.220756         1628.07         1294.84 
        0.23588         1448.67          1126.4 
         0.2514         1259.93         1023.32 
       0.267535         1254.25         925.929 
       0.283568         1137.08         816.545 
       0.299022         1072.43           727.5 
       0.314451          1021.3         664.885 
       0.330372         938.997         609.958 
       0.346141         883.816          553.63 
       0.361624         849.588         503.173 
       0.377134         789.472         462.999 
       0.392932          759.48         428.404 
       0.408854         739.597         394.906 
       0.424564         688.399          363.99 
       0.440253         676.793         337.461 
       0.455999         644.998         314.393 
       0.471626           617.8         293.194 
        0.48727         593.564         273.363 
       0.502856         577.652         255.548 
       0.518488         571.071         239.652 
       0.534347         533.914         224.875 
       0.550082         516.085         211.249 
       0.565732         515.437         198.784 
       0.581496         484.897         187.367 
       0.597222         477.306         176.897 
       0.612804         465.839         167.269 
       0.628434         450.673         158.295 
       0.644267         438.826         149.905 
       0.660051         425.311         142.173 
       0.675724          421.31         135.033 
       0.691403         407.575         128.377 
       0.707174         393.789         122.132 
       0.722871         389.322         116.328 
        0.73838         383.401         110.963 
       0.754018         372.748         105.895 
       0.769845         363.833          101.09 
        0.78569         360.552         96.5779 
       0.801365         349.865         92.3865 
       0.817031         338.811         88.4477 
       0.832809         336.919         84.7146 
       0.848511         328.217         81.2148 
       0.864097          321.13         77.9377 
       0.879701         316.897         74.8392 
       0.895507         312.003         71.8733 
       0.911279         301.867         69.0751 
        0.92691         299.428         66.4498 
       0.942635         292.482          63.947 
       0.958396         286.649         61.5683 
       0.974128         281.785         59.3156 
       0.989692         278.133         57.1982 
        1.00528         272.895         55.1816 
        1.02113         270.593         53.2309 
        1.03692          263.66         51.3822 
        1.05264         260.658         49.6301 
        1.06832         254.728         47.9628 
        1.08405         250.403          46.368 
        1.09979         245.948          44.845 
        1.11537         242.315         43.4058 
        1.13105         236.672         42.0214 
        1.14679         235.045         40.6922 
        1.16256         230.576         39.4182 
        1.17828         227.376         38.2032 
        1.19395         222.783         37.0436 
         1.2097         222.357         35.9264 
        1.22537         216.982         34.8609 
          1.241         215.699         33.8419 
        1.25666         210.917         32.8613 
        1.27241         208.149         31.9151 
        1.28819         205.481         31.0047 
        1.30392         200.697         30.1325 
        1.31957         201.111         29.2979 
        1.33529         196.414         28.4919 
        1.35108         192.233         27.7132 
        1.36674         191.459         26.9692 
         1.3824         189.212         26.2533 
        1.39811         187.357         25.5611 
        1.41389         183.481         24.8912 
        1.42964         181.201         24.2466 
        1.44531         178.613          23.628 
        1.46101         176.669         23.0297 
        1.47667         173.156          22.454 
        1.49229         171.401         21.8996 
        1.50793         168.525         21.3633 
        1.52367         167.314         20.8416 
        1.53953          164.28         20.3338 
        1.55526         161.264          19.847 
        1.57092         160.151         19.3782 
        1.58662         157.914         18.9235 
        1.60235         155.444         18.4826 
        1.61809         154.436         18.0555 
        1.63369         151.278         17.6457 
        1.64941         148.604         17.2457 
        1.66519         147.568         16.8567 
        1.68085         146.137         16.4825 
        1.69652         143.795         16.1196 
        1.71228         141.332         15.7656 
        1.72806         139.738         15.4219 
        1.74368         138.709         15.0919 
        1.75933         136.181          14.771 
        1.77505          134.69         14.4579 
        1.79081         133.753         14.1534 
         1.8065         131.983         13.8589 
        1.82218          129.34         13.5731 
        1.83797         128.264         13.2934 
        1.85367         126.767         13.0232 
        1.86928          124.64         12.7621 
        1.88497         122.623         12.5067 
        1.90073         121.501         12.2574 
        1.91647         120.036         12.0152 
        1.93218          118.52           11.78 
        1.94787         116.973         11.5514 
        1.96363         115.447         11.3281 
        1.97935         113.583         11.1111 
        1.99499         112.283          10.901 
        2.01064         111.033          10.696 
         2.0264         109.448         10.4951 
        2.04216         108.455         10.2994 
        2.05781         107.323         10.1099 
        2.07353         106.311         9.92456 
        2.08928         104.061         9.74345 
        2.10499          102.66         9.56735 
        2.12065          101.75         9.39613 
        2.13633         101.027         9.22897 
        2.15211         99.2121         9.06479 
        2.16785         97.7217         8.90507 
        2.18349         96.8286         8.75021 
        2.19916         95.8263          8.5987 
        2.21489         94.6522         8.45029 
        2.23063         93.2278         8.30528 
         2.2463         92.1249         8.16433 
        2.26194         91.6167         8.02701 
        2.27765         90.0617         7.89214 
        2.29341         89.2426         7.76003 
        2.30914         88.0499         7.63121 
        2.32486         87.3484         7.50539 
        2.34061         86.0842          7.3822 
        2.35635         84.5067         7.26189 
        2.37203         83.6128         7.14468 
        2.38768          82.891          7.0303 
        2.40339         81.9481         6.91802 
        2.41914         80.6702         6.80792 
        2.43483          79.924         6.70062 
         2.4505         78.9918          6.5958 
        2.46622         77.8806         6.49287 
        2.48195         77.0997         6.39213 
        2.49759         76.2812         6.29407 
        2.51328         75.6023         6.19781 
        2.52906         74.4611         6.10296 
        2.54479         73.8233         6.01045 
        2.56049          72.937         5.92003 
        2.57618         72.2191         5.83155 
        2.59189         71.2004         5.74475 
        2.60758         70.4357         5.65986 
        2.62325         69.6039         5.57678 
        2.63898         68.8527         5.49508 
        2.65468         67.9735         5.41519 
        2.67044         67.2202         5.33655 
        2.68618         66.5777         5.25965 
        2.70184         66.2421         5.18458 
        2.71755         65.3368         5.11078 
        2.73329         64.5409         5.03831 
        2.74897         63.8899         4.96748 
        2.76462         63.1232         4.89817 
        2.78034         62.3032         4.82989 
        2.79607         61.4692         4.76285 
        2.81179         61.0891         4.69715 
        2.82749         60.2849         4.63277 
        2.84321         59.8017         4.56953 
        2.85893         59.0015         4.50748 
        2.87462         58.4096         4.44669 
        2.89033         57.7667         4.38697 
        2.90605         56.9847         4.32829 
        2.92176         56.7484         4.27072 
        2.93747         56.1977         4.21422 
        2.95318         55.4729         4.15873 
        2.96891         54.7197         4.10422 
        2.98456         54.2578         4.05093 
        3.00023          53.428          3.9985 
        3.01596         53.0139         3.94684 
        3.03164         52.4172         3.89624 
        3.04738         51.8286         3.84638 
         3.0631         51.3526         3.79741 
        3.07883         50.7471         3.74929 
        3.09456         50.4381         3.70201 
        3.11026         49.6519         3.65562 
        3.12596         49.2307         3.61003 
        3.14163         48.6938         3.56532 
        3.15734         48.3787         3.52126 
        3.17308         47.8222         3.47785 
        3.18879         47.4206         3.43528 
        3.20447         46.4973         3.39349 
         3.2202         46.4488         3.35226 
         3.2359         45.9201         3.31179 
        3.25157         45.4873         3.27209 
        3.26729         45.0327         3.23291 
        3.28304         44.4984         3.19431 
        3.29877         44.0612         3.15638 
        3.31446         43.4684         3.11915 
        3.33014         43.1958         3.08255 
        3.34585          42.999         3.04649 
        3.36158         42.4567         3.01095 
        3.37727         41.9138         2.97608 
        3.39294         41.5848          2.9418 
        3.40867         41.0522         2.90794 
        3.42439         40.6567         2.87463 
        3.44008         40.2449          2.8419 
        3.45578         39.8246         2.80966 
        3.47153         39.4977         2.77785 
        3.48724         39.1912         2.74659 
        3.50292         38.8587         2.71588 
        3.51859         38.2921         2.68565 
        3.53431         37.9131         2.65579 
        3.55007         37.5602         2.62632 
        3.56577         37.2311          2.5974 
        3.58146         36.8634         2.56893 
        3.59719         36.4661         2.54083 
        3.61292         36.2308         2.51315 
        3.62859          35.897         2.48599 
        3.64429         35.5505         2.45918 
        3.66003          35.136         2.43269 
        3.67578         34.7655         2.40659 
        3.69146         34.5528         2.38097 
        3.70712         34.1884         2.35578 
        3.72284         33.8742         2.33085 
        3.73853         33.5824         2.30633 
        3.75422          33.269         2.28215 
        3.76993         33.0005          2.2583 
        3.78564         32.6674          2.2348 
        3.80137         32.3199         2.21159 
        3.81707         31.9889         2.18876 
        3.83279         31.7839         2.16624 
        3.84853         31.5402         2.14399 
        3.86424          31.133         2.12211 
        3.87992         30.9392         2.10056 
        3.89561         30.6236          2.0793 
        3.91134         30.3171          2.0583 
        3.92704         30.1056         2.03761 
        3.94273         29.7427         2.01723 
        3.95845         29.4801         1.99709 
        3.97418         29.2967         1.97722 
        3.98988         28.9763         1.95765 
        4.00554         28.6696         1.93839 
        4.02125          28.555         1.91934 
        4.03698         28.1876         1.90051 
        4.05268         28.0997         1.88198 
        4.06839         27.7576         1.86369 
         4.0841         27.5237         1.84564 
        4.09983         27.2073          1.8278 
        4.11555         27.0203         1.81021 
        4.13124         26.7724          1.7929 
        4.14693         26.5736          1.7758 
        4.16266         26.3261         1.75888 
        4.17839         26.0294          1.7422 
        4.19408         25.8188         1.72577 
        4.20977         25.6007         1.70954 
        4.22551         25.4437         1.69348 
        4.24123         25.1876         1.67764 
        4.25691         25.0039         1.66205 
        4.27259         24.8111         1.64666 
        4.28831         24.5056         1.63143 
        4.30404         24.3612         1.61637 
        4.31974         24.1598         1.60154 
        4.33543         23.9144          1.5869 
        4.35116         23.7901         1.57241 
        4.36688         23.5459         1.55811 
        4.38255         23.3404         1.54404 
        4.39825         23.1182         1.53011 
        4.41398           22.86         1.51632 
         4.4297           22.71         1.50272 
        4.44541         22.5815         1.48929 
        4.46111         22.3744         1.47603 
        4.47683         22.1737         1.46293 
        4.49251          22.008         1.45001 
        4.50819         21.7567         1.43725 
         4.5239         21.6255         1.42462 
        4.53962         21.4578         1.41213 
        4.55535         21.3149         1.39979 
        4.57106         21.0792         1.38761 
        4.58678         20.9379         1.37557 
         4.6025           20.77         1.36367 
        4.61821         20.6338         1.35191 
        4.63391         20.3837         1.34031 
         4.6496         20.2657         1.32885 
        4.66532         20.1133         1.31751 
        4.68103         19.9276          1.3063 
        4.69673           19.76         1.29523 
        4.71241         19.5708          1.2843 
        4.72811         19.4235         1.27348 
        4.74384         19.2724         1.26278 
        4.75955         19.1393         1.25221 
        4.77525         18.9618         1.24176 
        4.79096         18.8427         1.23143 
        4.80669         18.6741          1.2212 
         4.8224         18.4803         1.21111 
        4.83809         18.3782         1.20114 
        4.85379         18.2093         1.19127 
         4.8695         18.0939         1.18151 
        4.88521         17.9665         1.17186 
        4.90093         17.8147         1.16232 
        4.91663         17.6664         1.15289 
        4.93234         17.5272         1.14355 
        4.94807         17.3795         1.13432 
        4.96377         17.2648          1.1252 
        4.97943         17.1385          1.1162 
        4.99514         17.0034         1.10728 
        5.01086         16.8573         1.09845 
        5.02654         16.7236         1.08973 
        5.04227         16.5914         1.08109 
          5.058         16.4816         1.07253 
        5.07371          16.352         1.06409 
        5.08942         16.2399         1.05573 
        5.10513         16.1322         1.04747 
        5.12084         16.0014         1.03928 
        5.13656         15.8185         1.03119 
        5.15225         15.7375          1.0232 
        5.16796         15.6141         1.01527 
        5.18369         15.5177         1.00743 
         5.1994         15.3705         0.99968 
        5.21509         15.2512         0.99202 
        5.23079           15.15        0.984431 
        5.24649         15.0484        0.976927 
        5.26217         14.9392        0.969507 
        5.27788         14.8023        0.962154 
        5.29359         14.6657        0.954875 
        5.30933         14.5898        0.947661 
        5.32504         14.4695        0.940534 
        5.34073         14.3791        0.933487 
        5.35646         14.2864        0.926499 
        5.37218         14.1552        0.919581 
        5.38789         14.0405        0.912744 
        5.40357         13.9532        0.905985 
        5.41929         13.8316         0.89928 
        5.43502         13.7165        0.892641 
         5.4507          13.636        0.886085 
        5.46639         13.5529        0.879594 
        5.48212         13.4225        0.873153 
        5.49786         13.3871        0.866769 
        5.51353         13.2369         0.86048 
        5.52921         13.1606        0.854247 
        5.54495         13.0672        0.848057 
        5.56066         12.9545        0.841936 
        5.57637         12.8652        0.835876 
        5.59207         12.7735         0.82988 
        5.60778           12.69        0.823941 
        5.62346         12.6068        0.818069 
        5.63916         12.4878        0.812248 
        5.65487         12.4233        0.806481 
         5.6706          12.324        0.800763 
        5.68633         12.2194        0.795098 
        5.70203         12.1765          0.7895 
        5.71773         12.0616        0.783956 
        5.73344         11.9718        0.778463 
        5.74916         11.8993        0.773017 
        5.76486         11.8213        0.767631 
        5.78054         11.7308        0.762304 
        5.79626         11.6131        0.757013 
          5.812         11.5743        0.751767 
         5.8277         11.4925        0.746586 
        5.84339         11.3877        0.741453 
        5.85911         11.3065        0.736359 
        5.87484         11.2356        0.731314 
        5.89053         11.1682        0.726326 
        5.90623         11.0892        0.721382 
        5.92195         11.0062        0.716475 
        5.93767         10.9341        0.711617 
        5.95336         10.8717        0.706812 
        5.96905         10.7896        0.702053 
        5.98476         10.7204        0.697331 
        6.00048         10.6412        0.692651 
        6.01617         10.5807         0.68802 
        6.03185         10.4949        0.683437 
        6.04756         10.4063        0.678885 
        6.06331         10.3398        0.674365 
        6.07903         10.2918        0.669895 
        6.09473         10.2009        0.665469 
        6.11044         10.1541         0.66108 
        6.12616         10.0672        0.656731 
        6.14186          10.006        0.652426 
        6.15755         9.92674        0.648159 
        6.17326         9.88585        0.643927 
        6.18898         9.81744        0.639731 
        6.20467          9.7219        0.635579 
        6.22036         9.68668        0.631465 
         6.2361          9.6068        0.627376 
         6.2518         9.54192         0.62333 
        6.26748         9.48096        0.619329 
        6.28319         9.42871        0.615351 
        6.29893         9.36736        0.611405 
        6.31463         9.29093        0.607501 
        6.33033         9.24195        0.603631 
        6.34604         9.17341        0.599793 
        6.36177         9.11856        0.595984 
        6.37747         9.07102        0.592215 
