# k  (h/Mpc)    Pcb(k)  (Mpc/h)^3    Pcb_linear(k) (Mpc/h)^3   ShotnoiseSubtracted = true
      0.0200456         130.592         132.345 
      0.0350414         96.2868         96.2102 
      0.0492313         70.2091         69.9045 
      0.0637834         58.2777          58.111 
      0.0800726         46.1893         46.1212 
       0.096163         33.5538          33.465 
       0.111083         26.7136         26.6925 
       0.126058         23.6633          23.655 
       0.142273         20.0616          20.041 
       0.158546         15.9138         15.8282 
        0.17375         13.3341         13.3352 
       0.188953         12.0733         12.0748 
       0.204907          10.779         10.6837 
       0.220756         9.08537         9.03905 
        0.23588         7.90346         7.86319 
         0.2514         7.14512         7.14363 
       0.267535          6.4649         6.46376 
       0.283568         5.71695         5.70017 
       0.299022         5.10612         5.07855 
       0.314451         4.62307         4.64145 
       0.330372         4.25612         4.25801 
       0.346141         3.86587          3.8648 
       0.361624         3.52387         3.51257 
       0.377134         3.25105         3.23212 
       0.392932         2.96177         2.99062 
       0.408854         2.76861         2.75677 
       0.424564         2.53869         2.54095 
       0.440253          2.3568         2.35576 
       0.455999         2.20496         2.19472 
       0.471626         2.06057         2.04674 
        0.48727         1.91024          1.9083 
       0.502856          1.7814         1.78394 
       0.518488         1.68655         1.67297 
       0.534347         1.59008         1.56981 
       0.550082         1.47481          1.4747 
       0.565732         1.37435         1.38768 
       0.581496         1.31247         1.30798 
       0.597222         1.24148         1.23489 
       0.612804         1.16895         1.16768 
       0.628434         1.11407         1.10503 
       0.644267          1.0497         1.04646 
       0.660051        0.992589        0.992484 
       0.675724        0.945846         0.94264 
       0.691403        0.902041        0.896177 
       0.707174        0.855067        0.852585 
       0.722871         0.81018        0.812065 
        0.73838        0.778666        0.774612 
       0.754018        0.746482        0.739238 
       0.769845        0.710725        0.705689 
        0.78569         0.67776        0.674194 
       0.801365        0.646584        0.644935 
       0.817031        0.620299        0.617439 
       0.832809        0.594064        0.591379 
       0.848511        0.567768        0.566947 
       0.864097        0.542525         0.54407 
       0.879701         0.52036         0.52244 
       0.895507        0.503795        0.501736 
       0.911279         0.48407        0.482202 
        0.92691         0.46422        0.463875 
       0.942635        0.447166        0.446403 
       0.958396        0.429106        0.429798 
       0.974128        0.413283        0.414072 
       0.989692        0.399572        0.399291 
        1.00528        0.386203        0.385214 
        1.02113        0.369379        0.371596 
        1.03692        0.358389        0.358691 
        1.05264        0.346088         0.34646 
        1.06832        0.334741         0.33482 
        1.08405        0.321635        0.323687 
        1.09979        0.311059        0.313055 
        1.11537        0.303325        0.303008 
        1.13105        0.293089        0.293344 
        1.14679        0.285005        0.284066 
        1.16256        0.273213        0.275172 
        1.17828        0.264905         0.26669 
        1.19395          0.2563        0.258595 
         1.2097        0.248205        0.250796 
        1.22537        0.242662        0.243358 
          1.241        0.234745        0.236245 
        1.25666        0.228996        0.229399 
        1.27241        0.221151        0.222794 
        1.28819         0.21471        0.216438 
        1.30392        0.208612         0.21035 
        1.31957        0.203063        0.204524 
        1.33529        0.196753        0.198897 
        1.35108        0.191366        0.193461 
        1.36674        0.184807        0.188267 
         1.3824        0.182085         0.18327 
        1.39811        0.176183        0.178438 
        1.41389        0.171661        0.173762 
        1.42964         0.16789        0.169261 
        1.44531        0.162137        0.164943 
        1.46101        0.158641        0.160767 
        1.47667        0.153666        0.156748 
        1.49229        0.150484        0.152877 
        1.50793        0.146149        0.149134 
        1.52367        0.142908        0.145491 
        1.53953        0.139713        0.141947 
        1.55526        0.136245        0.138549 
        1.57092        0.131936        0.135276 
        1.58662        0.129485        0.132102 
        1.60235        0.126843        0.129024 
        1.61809        0.122665        0.126042 
        1.63369        0.120769        0.123181 
        1.64941        0.117962        0.120389 
        1.66519        0.114814        0.117674 
        1.68085        0.111948        0.115062 
        1.69652         0.10931        0.112528 
        1.71228        0.107478        0.110057 
        1.72806        0.104244        0.107658 
        1.74368        0.102531        0.105354 
        1.75933        0.100221        0.103114 
        1.77505       0.0978963        0.100928 
        1.79081        0.096129       0.0988024 
         1.8065       0.0933501       0.0967469 
        1.82218       0.0917317       0.0947517 
        1.83797       0.0896126       0.0927993 
        1.85367       0.0877688       0.0909127 
        1.86928       0.0862248         0.08909 
        1.88497       0.0845169       0.0873075 
        1.90073       0.0825226       0.0855672 
        1.91647       0.0806698       0.0838759 
        1.93218       0.0789731       0.0822341 
        1.94787       0.0773204       0.0806387 
        1.96363       0.0759885       0.0790793 
        1.97935       0.0741456       0.0775645 
        1.99499       0.0729138       0.0760979 
        2.01064       0.0716544       0.0746672 
         2.0264        0.070193       0.0732644 
        2.04216       0.0687487       0.0718983 
        2.05781       0.0674969       0.0705757 
        2.07353       0.0657965       0.0692817 
        2.08928       0.0647171       0.0680174 
        2.10499       0.0632771       0.0667881 
        2.12065       0.0625006       0.0655928 
        2.13633       0.0609908       0.0644259 
        2.15211       0.0602667       0.0632798 
        2.16785        0.059023       0.0621648 
        2.18349       0.0574995       0.0610837 
        2.19916        0.057052       0.0600261 
        2.21489       0.0560294       0.0589901 
        2.23063       0.0548768       0.0579778 
         2.2463       0.0536874       0.0569938 
        2.26194       0.0527197       0.0560352 
        2.27765       0.0517828       0.0550937 
        2.29341       0.0511351       0.0541714 
        2.30914        0.049978       0.0532722 
        2.32486       0.0490982       0.0523939 
        2.34061       0.0483381       0.0515339 
        2.35635       0.0474211       0.0506941 
        2.37203       0.0466489       0.0498758 
        2.38768       0.0458325       0.0490774 
        2.40339       0.0449948       0.0482935 
        2.41914       0.0444348        0.047525 
        2.43483       0.0434212       0.0467759 
         2.4505        0.042693       0.0460442 
        2.46622       0.0420575       0.0453257 
        2.48195       0.0412232       0.0446224 
        2.49759       0.0407784       0.0439379 
        2.51328       0.0402188       0.0432659 
        2.52906       0.0394612       0.0426037 
        2.54479       0.0387708       0.0419579 
        2.56049        0.038186       0.0413267 
        2.57618       0.0375617       0.0407091 
        2.59189       0.0369723       0.0401032 
        2.60758       0.0364895       0.0395105 
        2.62325       0.0358055       0.0389306 
        2.63898        0.035265       0.0383603 
        2.65468       0.0345983       0.0378026 
        2.67044       0.0342698       0.0372536 
        2.68618       0.0336666       0.0367168 
        2.70184       0.0331247       0.0361927 
        2.71755       0.0324802       0.0356775 
        2.73329       0.0320992       0.0351716 
        2.74897       0.0317005       0.0346771 
        2.76462       0.0311245       0.0341933 
        2.78034       0.0307086       0.0337167 
        2.79607       0.0302513       0.0332487 
        2.81179       0.0298194       0.0327901 
        2.82749       0.0293324       0.0323406 
        2.84321       0.0289169       0.0318991 
        2.85893       0.0284823        0.031466 
        2.87462       0.0281718       0.0310416 
        2.89033       0.0277601       0.0306247 
        2.90605       0.0272295       0.0302151 
        2.92176       0.0269754       0.0298132 
        2.93747       0.0265625       0.0294188 
        2.95318       0.0261034       0.0290314 
        2.96891       0.0258332       0.0286509 
        2.98456       0.0255424       0.0282789 
        3.00023       0.0250664       0.0279129 
        3.01596        0.024682       0.0275522 
        3.03164       0.0244954        0.027199 
        3.04738       0.0241091       0.0268509 
         3.0631        0.023669       0.0265091 
        3.07883       0.0233661       0.0261732 
        3.09456       0.0231999       0.0258431 
        3.11026        0.022785       0.0255193 
        3.12596       0.0225832        0.025201 
        3.14163        0.022226       0.0248889 
        3.15734       0.0219489       0.0245813 
        3.17308       0.0216567       0.0242783 
        3.18879       0.0213735       0.0239811 
        3.20447       0.0211561       0.0236894 
         3.2202       0.0208439       0.0234016 
         3.2359       0.0206253       0.0231191 
        3.25157       0.0203162       0.0228419 
        3.26729         0.02011       0.0225684 
        3.28304       0.0198228       0.0222989 
        3.29877       0.0196273       0.0220341 
        3.31446        0.019342       0.0217743 
        3.33014       0.0191123       0.0215188 
        3.34585       0.0188963        0.021267 
        3.36158       0.0185958       0.0210189 
        3.37727       0.0184425       0.0207755 
        3.39294       0.0182426       0.0205362 
        3.40867       0.0180327       0.0202998 
        3.42439       0.0178303       0.0200673 
        3.44008       0.0176129       0.0198388 
        3.45578       0.0174467       0.0196138 
        3.47153       0.0171994       0.0193917 
        3.48724       0.0171021       0.0191735 
        3.50292       0.0167972       0.0189591 
        3.51859        0.016582       0.0187481 
        3.53431       0.0165026       0.0185397 
        3.55007       0.0163164       0.0183339 
        3.56577        0.016189        0.018132 
        3.58146       0.0158971       0.0179333 
        3.59719       0.0157751       0.0177371 
        3.61292       0.0155714       0.0175439 
        3.62859       0.0154147       0.0173543 
        3.64429       0.0153091       0.0171671 
        3.66003       0.0151263       0.0169822 
        3.67578       0.0149675          0.0168 
        3.69146       0.0148579       0.0166212 
        3.70712        0.014723       0.0164453 
        3.72284       0.0145244       0.0162713 
        3.73853       0.0143596       0.0161001 
        3.75422       0.0143029       0.0159313 
        3.76993       0.0140988       0.0157648 
        3.78564       0.0140222       0.0156007 
        3.80137       0.0138688       0.0154387 
        3.81707       0.0136803       0.0152794 
        3.83279       0.0135832       0.0151221 
        3.84853       0.0134652       0.0149669 
        3.86424       0.0133072       0.0148141 
        3.87992       0.0132129       0.0146636 
        3.89561       0.0131148       0.0145153 
        3.91134       0.0130033       0.0143687 
        3.92704       0.0128339       0.0142242 
        3.94273       0.0127184        0.014082 
        3.95845       0.0125886       0.0139414 
        3.97418        0.012495       0.0138026 
        3.98988       0.0123758        0.013666 
        4.00554       0.0122199       0.0135316 
        4.02125       0.0120641       0.0133986 
        4.03698       0.0119585       0.0132672 
        4.05268       0.0117723       0.0131378 
        4.06839       0.0115987       0.0130101 
         4.0841       0.0114663       0.0128841 
        4.09983       0.0112907       0.0127596 
        4.11555        0.011184       0.0126368 
        4.13124       0.0110073       0.0125159 
        4.14693       0.0108644       0.0123966 
        4.16266        0.010728       0.0122785 
        4.17839       0.0105902        0.012162 
        4.19408       0.0104913       0.0120473 
        4.20977       0.0103554        0.011934 
        4.22551       0.0102163       0.0118219 
        4.24123       0.0101069       0.0117114 
        4.25691       0.0100167       0.0116025 
        4.27259       0.0099018        0.011495 
        4.28831      0.00982896       0.0113887 
        4.30404      0.00972085       0.0112836 
        4.31974      0.00960628       0.0111801 
        4.33543      0.00952295       0.0110779 
        4.35116      0.00944141       0.0109767 
        4.36688      0.00936526       0.0108769 
        4.38255      0.00930366       0.0107787 
        4.39825      0.00925007       0.0106814 
        4.41398      0.00920663       0.0105852 
         4.4297      0.00914009       0.0104902 
        4.44541      0.00907529       0.0103965 
        4.46111      0.00901481       0.0103039 
        4.47683      0.00899168       0.0102125 
        4.49251       0.0089224       0.0101223 
        4.50819      0.00888736       0.0100332 
         4.5239      0.00886248      0.00994505 
        4.53962      0.00884653      0.00985786 
        4.55535      0.00882171      0.00977168 
        4.57106       0.0088287      0.00968665 
        4.58678      0.00876952      0.00960261 
         4.6025      0.00878804      0.00951955 
        4.61821      0.00877832      0.00943748 
        4.63391      0.00876619      0.00935649 
         4.6496      0.00878262      0.00927648 
        4.66532      0.00877288      0.00919729 
        4.68103      0.00879399      0.00911905 
        4.69673      0.00880459      0.00904179 
        4.71241       0.0088559      0.00896551 
        4.72811      0.00883365      0.00888998 
        4.74384      0.00887423      0.00881522 
        4.75955      0.00889746      0.00874144 
        4.77525      0.00895436      0.00866854 
        4.79096      0.00900627      0.00859638 
        4.80669      0.00900324      0.00852501 
         4.8224      0.00910633      0.00845454 
        4.83809        0.009126      0.00838493 
        4.85379       0.0092095      0.00831606 
         4.8695      0.00924727      0.00824791 
        4.88521      0.00930654      0.00818055 
        4.90093      0.00938366      0.00811393 
        4.91663      0.00951932      0.00804812 
        4.93234      0.00956521      0.00798296 
        4.94807      0.00965246      0.00791848 
        4.96377      0.00971176      0.00785483 
        4.97943      0.00982143      0.00779202 
        4.99514      0.00991752      0.00772973 
        5.01086       0.0100034      0.00766808 
        5.02654        0.010158      0.00760725 
        5.04227       0.0102697       0.0075469 
          5.058       0.0103919      0.00748718 
        5.07371       0.0105041      0.00742823 
        5.08942       0.0107148      0.00736989 
        5.10513       0.0107726      0.00731218 
        5.12084       0.0108955      0.00725506 
        5.13656       0.0110766      0.00719856 
        5.15225       0.0112126      0.00714276 
        5.16796       0.0114233      0.00708745 
        5.18369       0.0115341      0.00703269 
         5.1994       0.0117346       0.0069786 
        5.21509       0.0119429      0.00692512 
        5.23079       0.0120593      0.00687215 
        5.24649       0.0122962      0.00681977 
        5.26217       0.0124766      0.00676797 
        5.27788       0.0127184      0.00671663 
        5.29359       0.0128822      0.00666582 
        5.30933       0.0131883      0.00661546 
        5.32504        0.013326      0.00656571 
        5.34073        0.013626      0.00651652 
        5.35646       0.0138228      0.00646774 
        5.37218       0.0140982      0.00641944 
        5.38789       0.0143584      0.00637172 
        5.40357       0.0145702      0.00632453 
        5.41929       0.0148294      0.00627772 
        5.43502       0.0151335      0.00623138 
         5.4507        0.015459      0.00618561 
        5.46639       0.0158505       0.0061403 
        5.48212        0.015944      0.00609534 
        5.49786       0.0163191      0.00605077 
        5.51353       0.0167401      0.00600687 
        5.52921        0.017081      0.00596335 
        5.54495       0.0174444      0.00592015 
        5.56066       0.0177686      0.00587741 
        5.57637       0.0181614      0.00583511 
        5.59207       0.0184814      0.00579326 
        5.60778       0.0188798       0.0057518 
        5.62346       0.0193422       0.0057108 
        5.63916        0.019702      0.00567017 
        5.65487        0.020195      0.00562991 
         5.6706       0.0204746      0.00558999 
        5.68633       0.0210489      0.00555045 
        5.70203       0.0214993      0.00551137 
        5.71773       0.0220171      0.00547267 
        5.73344       0.0224404      0.00543432 
        5.74916       0.0231031       0.0053963 
        5.76486       0.0235417       0.0053587 
        5.78054       0.0239314      0.00532152 
        5.79626       0.0245961      0.00528458 
          5.812       0.0251198      0.00524796 
         5.8277       0.0257544      0.00521179 
        5.84339       0.0262958      0.00517596 
        5.85911       0.0270999       0.0051404 
        5.87484       0.0277179      0.00510518 
        5.89053        0.028315      0.00507036 
        5.90623       0.0291055      0.00503585 
        5.92195       0.0299111       0.0050016 
        5.93767       0.0304616      0.00496768 
        5.95336        0.031281      0.00493414 
        5.96905       0.0320377      0.00490092 
        5.98476       0.0325298      0.00486795 
        6.00048       0.0334965      0.00483528 
        6.01617       0.0342906      0.00480295 
        6.03185       0.0351979      0.00477096 
        6.04756       0.0360909      0.00473918 
        6.06331       0.0369525      0.00470763 
        6.07903       0.0381296      0.00467642 
        6.09473       0.0388744      0.00464553 
        6.11044       0.0400413      0.00461489 
        6.12616       0.0412426      0.00458453 
        6.14186       0.0420028      0.00455447 
        6.15755       0.0430985      0.00452469 
        6.17326       0.0439327      0.00449515 
        6.18898       0.0454796      0.00446585 
        6.20467       0.0469383      0.00443687 
        6.22036       0.0479121      0.00440815 
         6.2361       0.0491943      0.00437961 
         6.2518       0.0506195      0.00435136 
        6.26748       0.0515263      0.00432343 
        6.28319       0.0534341      0.00429566 
        6.29893       0.0547659      0.00426812 
        6.31463       0.0562451      0.00424086 
        6.33033       0.0576244      0.00421385 
        6.34604       0.0592531      0.00418705 
        6.36177       0.0611402      0.00416047 
        6.37747        0.062528      0.00413416 
