# k  (h/Mpc)    Pcb(k)  (Mpc/h)^3    Pcb_linear(k) (Mpc/h)^3   ShotnoiseSubtracted = true
      0.0200456         1287.04         1305.46 
      0.0350414         943.092         949.024 
      0.0492313         691.679         689.543 
      0.0637834         578.406         573.211 
      0.0800726         458.549         454.943 
       0.096163         328.911         330.101 
       0.111083         261.164         263.297 
       0.126058         234.545         233.335 
       0.142273         199.906         197.686 
       0.158546         159.023          156.13 
        0.17375         131.631          131.54 
       0.188953         120.917         119.106 
       0.204907         110.201         105.385 
       0.220756         91.9825         89.1619 
        0.23588         80.0747         77.5631 
         0.2514         71.8557         70.4653 
       0.267535         65.6851          63.759 
       0.283568         58.4581         56.2269 
       0.299022         52.7164         50.0952 
       0.314451         47.1959         45.7836 
       0.330372         43.8006         42.0013 
       0.346141         39.7779         38.1226 
       0.361624         36.5933         34.6482 
       0.377134         34.1749         31.8819 
       0.392932         30.4156         29.4997 
       0.408854         29.1267          27.193 
       0.424564          27.019         25.0642 
       0.440253         24.9161         23.2374 
       0.455999         23.4652         21.6489 
       0.471626         22.0378         20.1891 
        0.48727         20.6585         18.8236 
       0.502856         19.2592         17.5969 
       0.518488         18.3825         16.5023 
       0.534347         17.5446         15.4848 
       0.550082         16.0274         14.5465 
       0.565732         14.8246         13.6882 
       0.581496         14.5066          12.902 
       0.597222          13.912          12.181 
       0.612804         12.9494         11.5181 
       0.628434         12.4688         10.9001 
       0.644267         11.9526         10.3224 
       0.660051         11.2694         9.78994 
       0.675724         10.6984         9.29827 
       0.691403         10.3311         8.83996 
       0.707174         9.82505         8.40996 
       0.722871         9.41477         8.01027 
        0.73838         9.04151         7.64083 
       0.754018         8.73616          7.2919 
       0.769845         8.30056         6.96097 
        0.78569         8.02645          6.6503 
       0.801365         7.67905         6.36168 
       0.817031         7.42573         6.09046 
       0.832809         7.19007          5.8334 
       0.848511         6.77396         5.59241 
       0.864097          6.5523         5.36675 
       0.879701         6.33731         5.15339 
       0.895507         6.05708         4.94916 
       0.911279         5.96937         4.75648 
        0.92691         5.74588         4.57569 
       0.942635         5.49233         4.40335 
       0.958396         5.30651         4.23956 
       0.974128          5.1637         4.08444 
       0.989692          5.0701         3.93864 
        1.00528         4.84808         3.79977 
        1.02113         4.66868         3.66545 
        1.03692         4.58047         3.53815 
        1.05264         4.42486          3.4175 
        1.06832         4.31994         3.30269 
        1.08405         4.12523         3.19287 
        1.09979         4.03963           3.088 
        1.11537         3.94306          2.9889 
        1.13105         3.83479         2.89357 
        1.14679         3.73568         2.80205 
        1.16256         3.61737         2.71432 
        1.17828         3.54068         2.63065 
        1.19395          3.4421          2.5508 
         1.2097         3.30672         2.47387 
        1.22537         3.23179          2.4005 
          1.241         3.16777         2.33034 
        1.25666         3.14121         2.26281 
        1.27241         3.00349         2.19766 
        1.28819         2.93662         2.13496 
        1.30392         2.88425         2.07491 
        1.31957         2.81841         2.01744 
        1.33529         2.73884         1.96194 
        1.35108         2.67743         1.90831 
        1.36674         2.61545         1.85708 
         1.3824         2.53207         1.80779 
        1.39811         2.48506         1.76012 
        1.41389         2.44445           1.714 
        1.42964         2.39001         1.66961 
        1.44531         2.34011         1.62701 
        1.46101         2.29045         1.58582 
        1.47667         2.21797         1.54617 
        1.49229         2.20019         1.50799 
        1.50793         2.14015         1.47107 
        1.52367         2.11332         1.43514 
        1.53953         2.04562         1.40017 
        1.55526         2.00646         1.36666 
        1.57092         1.97302         1.33438 
        1.58662         1.93535         1.30306 
        1.60235         1.89284          1.2727 
        1.61809         1.85587         1.24329 
        1.63369         1.83338         1.21507 
        1.64941         1.78706         1.18753 
        1.66519         1.76076         1.16074 
        1.68085         1.71109         1.13498 
        1.69652         1.68454         1.10999 
        1.71228         1.66227         1.08561 
        1.72806         1.61924         1.06194 
        1.74368         1.59782         1.03922 
        1.75933         1.56344         1.01712 
        1.77505          1.5403        0.995565 
        1.79081         1.51336        0.974594 
         1.8065         1.48158        0.954318 
        1.82218         1.46552        0.934638 
        1.83797         1.44362        0.915379 
        1.85367         1.42389         0.89677 
        1.86928         1.39923        0.878791 
        1.88497         1.36412        0.861207 
        1.90073         1.33786        0.844041 
        1.91647         1.32691        0.827358 
        1.93218         1.30745        0.811163 
        1.94787         1.27924        0.795426 
        1.96363         1.25773        0.780044 
        1.97935         1.23642        0.765101 
        1.99499         1.21385        0.750635 
        2.01064         1.19788        0.736523 
         2.0264         1.18918        0.722685 
        2.04216         1.16497         0.70921 
        2.05781         1.14522        0.696164 
        2.07353         1.13174          0.6834 
        2.08928         1.11102        0.670929 
        2.10499         1.09549        0.658802 
        2.12065         1.08645        0.647013 
        2.13633         1.06574        0.635501 
        2.15211         1.04724        0.624196 
        2.16785         1.03008        0.613198 
        2.18349         1.01977        0.602534 
        2.19916         1.00175        0.592102 
        2.21489        0.986401        0.581882 
        2.23063        0.972279        0.571897 
         2.2463        0.965926        0.562191 
        2.26194        0.942519        0.552735 
        2.27765        0.931399        0.543449 
        2.29341        0.923359        0.534351 
        2.30914        0.913775        0.525481 
        2.32486        0.900483        0.516817 
        2.34061        0.885813        0.508335 
        2.35635        0.870582         0.50005 
        2.37203        0.862459        0.491979 
        2.38768        0.852723        0.484103 
        2.40339        0.842476        0.476371 
        2.41914        0.832315         0.46879 
        2.43483        0.819422        0.461401 
         2.4505        0.807133        0.454183 
        2.46622        0.797345        0.447096 
        2.48195        0.792634        0.440159 
        2.49759         0.78011        0.433406 
        2.51328        0.766636        0.426778 
        2.52906        0.758387        0.420246 
        2.54479        0.751162        0.413876 
        2.56049        0.740073         0.40765 
        2.57618        0.733581        0.401558 
        2.59189        0.723611        0.395581 
        2.60758        0.715041        0.389735 
        2.62325         0.70683        0.384014 
        2.63898        0.700608        0.378388 
        2.65468        0.691448        0.372887 
        2.67044        0.681588        0.367472 
        2.68618        0.673053        0.362177 
        2.70184        0.665044        0.357007 
        2.71755        0.657817        0.351926 
        2.73329        0.652334        0.346935 
        2.74897        0.644789        0.342058 
        2.76462        0.636578        0.337285 
        2.78034        0.631172        0.332584 
        2.79607        0.623207        0.327967 
        2.81179        0.615189        0.323443 
        2.82749        0.610866         0.31901 
        2.84321        0.605025        0.314655 
        2.85893        0.596528        0.310383 
        2.87462        0.591529        0.306197 
        2.89033        0.582789        0.302084 
        2.90605        0.578247        0.298044 
        2.92176        0.571243        0.294079 
        2.93747        0.566524        0.290189 
        2.95318        0.560793        0.286368 
        2.96891        0.555002        0.282614 
        2.98456        0.551088        0.278945 
        3.00023        0.544473        0.275335 
        3.01596        0.538717        0.271777 
        3.03164        0.534217        0.268293 
        3.04738        0.525661         0.26486 
         3.0631        0.523254        0.261488 
        3.07883        0.517123        0.258174 
        3.09456        0.511233        0.254918 
        3.11026        0.506837        0.251724 
        3.12596        0.501446        0.248584 
        3.14163        0.497418        0.245506 
        3.15734        0.495232        0.242472 
        3.17308        0.487685        0.239482 
        3.18879        0.483224        0.236551 
        3.20447        0.479185        0.233674 
         3.2202        0.475482        0.230835 
         3.2359        0.471058        0.228048 
        3.25157        0.465882        0.225314 
        3.26729        0.463865        0.222617 
        3.28304        0.457762        0.219958 
        3.29877        0.453409        0.217346 
        3.31446         0.45042        0.214783 
        3.33014        0.446897        0.212263 
        3.34585        0.443777        0.209779 
        3.36158        0.438732        0.207332 
        3.37727         0.43561        0.204931 
        3.39294        0.432421        0.202571 
        3.40867        0.428033        0.200239 
        3.42439        0.424405        0.197945 
        3.44008        0.422455        0.195692 
        3.45578        0.419521        0.193472 
        3.47153        0.414886        0.191281 
        3.48724        0.412953        0.189128 
        3.50292        0.409988        0.187014 
        3.51859        0.405209        0.184933 
        3.53431        0.402907        0.182877 
        3.55007        0.400909        0.180847 
        3.56577        0.395976        0.178856 
        3.58146        0.392892        0.176895 
        3.59719        0.391266         0.17496 
        3.61292        0.388116        0.173054 
        3.62859        0.383213        0.171184 
        3.64429        0.382446        0.169338 
        3.66003        0.378923        0.167513 
        3.67578        0.375453        0.165716 
        3.69146        0.373386        0.163952 
        3.70712         0.37061        0.162217 
        3.72284        0.367746        0.160501 
        3.73853        0.365726        0.158813 
        3.75422        0.361778        0.157148 
        3.76993        0.360627        0.155505 
        3.78564        0.357739        0.153887 
        3.80137        0.354147        0.152289 
        3.81707        0.353623        0.150717 
        3.83279        0.349621        0.149166 
        3.84853        0.346942        0.147634 
        3.86424        0.344532        0.146127 
        3.87992        0.342409        0.144643 
        3.89561        0.340219         0.14318 
        3.91134        0.338374        0.141734 
        3.92704        0.334715        0.140309 
        3.94273        0.332961        0.138905 
        3.95845         0.33077        0.137519 
        3.97418        0.327469         0.13615 
        3.98988         0.32534        0.134802 
        4.00554        0.322499        0.133477 
        4.02125        0.319795        0.132165 
        4.03698        0.317045        0.130868 
        4.05268        0.314659        0.129592 
        4.06839        0.311557        0.128332 
         4.0841        0.307978         0.12709 
        4.09983        0.305297        0.125862 
        4.11555        0.302015         0.12465 
        4.13124        0.299115        0.123458 
        4.14693        0.297127        0.122281 
        4.16266         0.29407        0.121116 
        4.17839        0.291987        0.119967 
        4.19408        0.289431        0.118835 
        4.20977        0.287617        0.117718 
        4.22551        0.285155        0.116612 
        4.24123        0.282828        0.115522 
        4.25691        0.280796        0.114448 
        4.27259        0.278617        0.113388 
        4.28831        0.276785        0.112339 
        4.30404        0.274009        0.111302 
        4.31974        0.272776        0.110281 
        4.33543        0.270675        0.109273 
        4.35116        0.269027        0.108275 
        4.36688        0.267282         0.10729 
        4.38255        0.265634        0.106321 
        4.39825        0.263665        0.105362 
        4.41398        0.261977        0.104413 
         4.4297        0.260425        0.103477 
        4.44541        0.259319        0.102552 
        4.46111        0.258083        0.101639 
        4.47683        0.257031        0.100736 
        4.49251        0.254811       0.0998467 
        4.50819        0.253355        0.098968 
         4.5239        0.253158       0.0980987 
        4.53962        0.251614       0.0972387 
        4.55535        0.250965       0.0963885 
        4.57106        0.249444       0.0955498 
        4.58678        0.248536       0.0947208 
         4.6025        0.247255       0.0939015 
        4.61821        0.246377        0.093092 
        4.63391        0.245801       0.0922931 
         4.6496        0.244768       0.0915039 
        4.66532        0.243689       0.0907227 
        4.68103        0.243587        0.089951 
        4.69673        0.242677       0.0891889 
        4.71241        0.242378       0.0884364 
        4.72811        0.241209       0.0876914 
        4.74384        0.241077        0.086954 
        4.75955        0.240801       0.0862262 
        4.77525         0.23999       0.0855071 
        4.79096        0.239555       0.0847954 
        4.80669        0.239223       0.0840914 
         4.8224        0.238558       0.0833962 
        4.83809        0.238721       0.0827095 
        4.85379        0.238917       0.0820302 
         4.8695        0.238012       0.0813579 
        4.88521        0.237943       0.0806935 
        4.90093        0.238476       0.0800364 
        4.91663        0.238586       0.0793872 
        4.93234        0.237702       0.0787445 
        4.94807        0.238142       0.0781085 
        4.96377        0.238503       0.0774806 
        4.97943        0.238888        0.076861 
        4.99514        0.238755       0.0762466 
        5.01086        0.239136       0.0756385 
        5.02654        0.239127       0.0750385 
        5.04227        0.239153       0.0744432 
          5.058        0.239693       0.0738541 
        5.07371        0.239852       0.0732726 
        5.08942        0.241469       0.0726972 
        5.10513        0.240983       0.0721279 
        5.12084        0.241775       0.0715644 
        5.13656        0.242718       0.0710071 
        5.15225        0.242987       0.0704567 
        5.16796        0.244682       0.0699112 
        5.18369        0.244403       0.0693709 
         5.1994        0.245343       0.0688374 
        5.21509        0.246033       0.0683099 
        5.23079        0.247304       0.0677874 
        5.24649         0.24798       0.0672707 
        5.26217        0.248311       0.0667597 
        5.27788        0.249431       0.0662534 
        5.29359        0.250744       0.0657522 
        5.30933        0.252422       0.0652554 
        5.32504        0.252275       0.0647646 
        5.34073        0.254106       0.0642794 
        5.35646        0.255192       0.0637982 
        5.37218         0.25618       0.0633218 
        5.38789        0.257604       0.0628511 
        5.40357         0.25947       0.0623857 
        5.41929         0.25936       0.0619239 
        5.43502        0.260749       0.0614668 
         5.4507         0.26243       0.0610153 
        5.46639        0.264339       0.0605684 
        5.48212        0.265966       0.0601248 
        5.49786        0.266688       0.0596852 
        5.51353        0.269806       0.0592522 
        5.52921        0.270157        0.058823 
        5.54495        0.271554       0.0583968 
        5.56066        0.274542       0.0579752 
        5.57637        0.274879       0.0575579 
        5.59207        0.277728       0.0571451 
        5.60778        0.278749       0.0567362 
        5.62346        0.281007       0.0563318 
        5.63916        0.281893        0.055931 
        5.65487        0.284212       0.0555338 
         5.6706         0.28547       0.0551401 
        5.68633        0.289513         0.05475 
        5.70203         0.29016       0.0543645 
        5.71773        0.292742       0.0539828 
        5.73344        0.293793       0.0536045 
        5.74916        0.295957       0.0532295 
        5.76486        0.297867       0.0528586 
        5.78054        0.300917       0.0524918 
        5.79626        0.300819       0.0521275 
          5.812        0.304483       0.0517663 
         5.8277        0.305682       0.0514095 
        5.84339        0.308877       0.0510561 
        5.85911        0.309656       0.0507053 
        5.87484        0.311845       0.0503579 
        5.89053        0.315448       0.0500144 
        5.90623        0.316927        0.049674 
        5.92195        0.319534       0.0493361 
        5.93767        0.322052       0.0490016 
        5.95336        0.322741       0.0486707 
        5.96905        0.326464        0.048343 
        5.98476        0.327682       0.0480178 
        6.00048        0.331638       0.0476956 
        6.01617        0.331962       0.0473767 
        6.03185        0.334477       0.0470611 
        6.04756        0.337281       0.0467476 
        6.06331        0.338751       0.0464364 
        6.07903        0.342041       0.0461286 
        6.09473        0.344227       0.0458239 
        6.11044        0.346742       0.0455216 
        6.12616        0.348644       0.0452221 
        6.14186        0.351901       0.0449257 
        6.15755        0.353818       0.0446319 
        6.17326         0.35628       0.0443404 
        6.18898        0.359633       0.0440515 
        6.20467        0.362423       0.0437656 
        6.22036        0.361336       0.0434823 
         6.2361        0.363997       0.0432008 
         6.2518        0.367013       0.0429222 
        6.26748         0.36927       0.0426466 
        6.28319        0.372247       0.0423727 
        6.29893          0.3743        0.042101 
        6.31463        0.377229       0.0418322 
        6.33033        0.379408       0.0415657 
        6.34604        0.381146       0.0413014 
        6.36177        0.383308       0.0410391 
        6.37747        0.386187       0.0407796 
