# k  (h/Mpc)    Pcb(k)  (Mpc/h)^3    Pcb_linear(k) (Mpc/h)^3   ShotnoiseSubtracted = true
      0.0200456           22786         23337.9 
      0.0350414         16159.8         16965.9 
      0.0492313         12048.8         12327.1 
      0.0637834         10444.6         10247.4 
      0.0800726         8238.38          8133.1 
       0.096163         5707.57         5901.27 
       0.111083          4595.7         4707.01 
       0.126058         4229.44         4171.36 
       0.142273         3663.63         3534.06 
       0.158546         3221.52         2791.17 
        0.17375         2579.53         2351.56 
       0.188953         2524.73         2129.28 
       0.204907         2372.17         1883.98 
       0.220756         2059.51         1593.96 
        0.23588         1844.64         1386.61 
         0.2514         1607.64         1259.72 
       0.267535         1610.05         1139.83 
       0.283568         1460.28         1005.18 
       0.299022          1383.4         895.561 
       0.314451         1318.82         818.482 
       0.330372         1209.22         750.865 
       0.346141         1164.24         681.525 
       0.361624         1119.08         619.413 
       0.377134          1043.3         569.957 
       0.392932         1000.46          527.37 
       0.408854         983.923         486.134 
       0.424564           908.7         448.076 
       0.440253         892.391         415.419 
       0.455999         864.356         387.022 
       0.471626         833.288         360.925 
        0.48727         799.119         336.513 
       0.502856         776.013         314.582 
       0.518488         769.487         295.015 
       0.534347          722.01         276.824 
       0.550082         705.643         260.051 
       0.565732         701.164         244.706 
       0.581496         663.599         230.651 
       0.597222         650.136         217.762 
       0.612804          639.34          205.91 
       0.628434         621.652         194.863 
       0.644267         605.663         184.535 
       0.660051         588.769         175.016 
       0.675724          582.55         166.227 
       0.691403         563.577         158.033 
       0.707174         545.394         150.346 
       0.722871         538.506         143.201 
        0.73838          528.38         136.596 
       0.754018         517.751         130.359 
       0.769845         508.767         124.442 
        0.78569          499.16         118.889 
       0.801365          486.68         113.729 
       0.817031         474.236          108.88 
       0.832809         470.064         104.285 
       0.848511         459.891         99.9764 
       0.864097         445.829         95.9423 
       0.879701         440.019         92.1279 
       0.895507         437.888         88.4769 
       0.911279         425.657         85.0323 
        0.92691         419.707         81.8004 
       0.942635         409.089         78.7195 
       0.958396         398.921         75.7914 
       0.974128          393.49         73.0182 
       0.989692         391.197         70.4117 
        1.00528         379.784         67.9292 
        1.02113         378.119         65.5279 
        1.03692          367.23         63.2521 
        1.05264         364.793         61.0953 
        1.06832         354.747         59.0428 
        1.08405         350.464         57.0795 
        1.09979         344.835         55.2047 
        1.11537         338.231          53.433 
        1.13105         332.978         51.7288 
        1.14679         324.342         50.0926 
        1.16256         318.214         48.5243 
        1.17828         317.838         47.0285 
        1.19395         309.923         45.6011 
         1.2097          304.84         44.2259 
        1.22537         298.783         42.9142 
          1.241         295.849         41.6598 
        1.25666         291.141         40.4527 
        1.27241         286.771         39.2879 
        1.28819         282.119         38.1671 
        1.30392         275.951         37.0935 
        1.31957         274.994          36.066 
        1.33529         269.945         35.0739 
        1.35108         264.179         34.1153 
        1.36674         259.972         33.1994 
         1.3824         258.499         32.3181 
        1.39811         253.939          31.466 
        1.41389         251.093         30.6414 
        1.42964         248.155         29.8479 
        1.44531         244.313         29.0864 
        1.46101         239.874         28.3499 
        1.47667         237.141         27.6412 
        1.49229         234.516         26.9587 
        1.50793         228.638         26.2985 
        1.52367         227.448         25.6562 
        1.53953         223.812         25.0311 
        1.55526         219.515         24.4319 
        1.57092         217.816         23.8549 
        1.58662         215.309         23.2951 
        1.60235          211.39         22.7523 
        1.61809         209.182         22.2265 
        1.63369         206.308          21.722 
        1.64941         202.258         21.2297 
        1.66519          200.74         20.7508 
        1.68085         197.867         20.2902 
        1.69652         194.941         19.8434 
        1.71228         190.463         19.4076 
        1.72806         188.811         18.9845 
        1.74368         185.998         18.5784 
        1.75933         183.033         18.1833 
        1.77505         181.878         17.7979 
        1.79081         179.818          17.423 
         1.8065         176.346         17.0605 
        1.82218         174.643         16.7087 
        1.83797          173.08         16.3644 
        1.85367         170.131         16.0317 
        1.86928         167.278         15.7103 
        1.88497          165.31         15.3959 
        1.90073         163.494         15.0891 
        1.91647         162.021         14.7908 
        1.93218         159.805         14.5013 
        1.94787          156.22           14.22 
        1.96363         154.269          13.945 
        1.97935         153.528         13.6778 
        1.99499         150.953         13.4192 
        2.01064         149.195         13.1669 
         2.0264         147.701         12.9196 
        2.04216         145.646         12.6787 
        2.05781          143.89         12.4454 
        2.07353         142.382         12.2173 
        2.08928         139.918         11.9943 
        2.10499         138.662         11.7775 
        2.12065         136.233         11.5668 
        2.13633         134.922          11.361 
        2.15211         132.653         11.1589 
        2.16785          131.45         10.9622 
        2.18349         130.236         10.7716 
        2.19916         128.315         10.5851 
        2.21489         127.172         10.4024 
        2.23063         124.858         10.2239 
         2.2463         123.548         10.0504 
        2.26194         121.625         9.88134 
        2.27765         120.581         9.71532 
        2.29341         119.123         9.55268 
        2.30914         118.001         9.39411 
        2.32486         116.117         9.23923 
        2.34061         114.873         9.08758 
        2.35635           113.5         8.93948 
        2.37203         112.298         8.79519 
        2.38768         110.631         8.65439 
        2.40339         109.561         8.51616 
        2.41914         108.036         8.38063 
        2.43483         106.932         8.24854 
         2.4505         105.821         8.11951 
        2.46622         104.636          7.9928 
        2.48195         103.084         7.86879 
        2.49759         101.821         7.74808 
        2.51328         101.238         7.62958 
        2.52906         99.6954         7.51282 
        2.54479         98.7317         7.39893 
        2.56049         97.4812         7.28763 
        2.57618          96.455         7.17871 
        2.59189         95.4548         7.07186 
        2.60758         94.2804         6.96735 
        2.62325          92.976         6.86508 
        2.63898         91.8549         6.76451 
        2.65468         90.8793         6.66617 
        2.67044         90.2047         6.56936 
        2.68618           89.06          6.4747 
        2.70184         88.4873         6.38228 
        2.71755         86.9438         6.29143 
        2.73329         86.2808         6.20222 
        2.74897         85.3636         6.11503 
        2.76462         84.1459          6.0297 
        2.78034         83.5227         5.94566 
        2.79607         82.0978         5.86312 
        2.81179         81.3608         5.78225 
        2.82749         80.5424           5.703 
        2.84321         79.7657         5.62514 
        2.85893         78.9216         5.54876 
        2.87462         77.9833         5.47393 
        2.89033         76.9865         5.40041 
        2.90605         76.1719         5.32818 
        2.92176         75.2638          5.2573 
        2.93747         74.8177         5.18776 
        2.95318         73.6938         5.11945 
        2.96891         73.2424         5.05235 
        2.98456         72.4691         4.98674 
        3.00023         71.5572          4.9222 
        3.01596         70.6933         4.85861 
        3.03164         70.0227         4.79632 
        3.04738         69.1494         4.73494 
         3.0631         68.4301         4.67466 
        3.07883         68.0131         4.61542 
        3.09456         67.3868         4.55722 
        3.11026          66.453         4.50011 
        3.12596         65.6854         4.44399 
        3.14163         65.2501         4.38895 
        3.15734         64.2709         4.33472 
        3.17308         63.6229         4.28127 
        3.18879         63.1722         4.22887 
        3.20447         62.3724         4.17742 
         3.2202         61.9294         4.12667 
         3.2359          61.097         4.07686 
        3.25157         60.5292         4.02798 
        3.26729         60.0519         3.97976 
        3.28304         59.5971         3.93223 
        3.29877         58.8844         3.88554 
        3.31446         57.9469         3.83971 
        3.33014         57.7494         3.79466 
        3.34585         56.8819         3.75026 
        3.36158         56.5152         3.70651 
        3.37727         56.0306         3.66359 
        3.39294         55.2244         3.62139 
        3.40867         54.7982         3.57971 
        3.42439         54.3473          3.5387 
        3.44008         53.7237         3.49841 
        3.45578         53.1357         3.45873 
        3.47153         52.6415         3.41957 
        3.48724          52.184         3.38108 
        3.50292         51.8263         3.34328 
        3.51859         51.1705         3.30607 
        3.53431         50.8616         3.26931 
        3.55007         50.2271         3.23303 
        3.56577         49.8962         3.19743 
        3.58146         49.3148         3.16239 
        3.59719         48.7685         3.12779 
        3.61292         48.3409         3.09372 
        3.62859         47.8561         3.06029 
        3.64429         47.3775         3.02728 
        3.66003         47.0737         2.99467 
        3.67578         46.5318         2.96254 
        3.69146         46.1299         2.93101 
        3.70712         45.5771         2.89999 
        3.72284         45.2126          2.8693 
        3.73853         44.7805         2.83912 
        3.75422         44.2598         2.80935 
        3.76993         43.8524         2.77999 
        3.78564         43.4799         2.75106 
        3.80137         43.0972         2.72249 
        3.81707         42.6568         2.69439 
        3.83279         42.2712         2.66666 
        3.84853         42.0216         2.63928 
        3.86424         41.4945         2.61234 
        3.87992         41.1874         2.58581 
        3.89561         40.8481         2.55965 
        3.91134         40.3649         2.53379 
        3.92704         40.0112         2.50833 
        3.94273         39.6785         2.48324 
        3.95845         39.4807         2.45844 
        3.97418         39.0716         2.43398 
        3.98988         38.7331         2.40989 
        4.00554         38.3314         2.38618 
        4.02125         38.0935         2.36273 
        4.03698         37.6524         2.33956 
        4.05268         37.4102         2.31674 
        4.06839         37.0412         2.29422 
         4.0841         36.6725           2.272 
        4.09983         36.3936         2.25005 
        4.11555         36.0919         2.22839 
        4.13124         35.8191         2.20708 
        4.14693         35.4761         2.18603 
        4.16266         35.1825         2.16521 
        4.17839         34.7829         2.14467 
        4.19408         34.4982         2.12444 
        4.20977         34.2183         2.10446 
        4.22551         33.8981         2.08469 
        4.24123         33.6654          2.0652 
        4.25691         33.3691         2.04601 
        4.27259         33.0498         2.02706 
        4.28831         32.7584          2.0083 
        4.30404         32.5287         1.98977 
        4.31974          32.219         1.97151 
        4.33543         31.8693          1.9535 
        4.35116         31.7177         1.93566 
        4.36688         31.4289         1.91805 
        4.38255         31.1427         1.90073 
        4.39825         30.9169         1.88358 
        4.41398         30.7092         1.86661 
         4.4297         30.3308         1.84987 
        4.44541         30.1562         1.83333 
        4.46111         29.8336         1.81701 
        4.47683         29.6154         1.80088 
        4.49251         29.3155         1.78498 
        4.50819         29.1568         1.76927 
         4.5239         28.9346         1.75373 
        4.53962         28.6703         1.73835 
        4.55535         28.4853         1.72315 
        4.57106         28.1847         1.70816 
        4.58678         28.0339         1.69334 
         4.6025         27.6711         1.67869 
        4.61821         27.5417         1.66422 
        4.63391         27.2894         1.64994 
         4.6496         27.0467         1.63583 
        4.66532         26.8436         1.62186 
        4.68103         26.6261         1.60807 
        4.69673          26.411         1.59444 
        4.71241         26.2874         1.58099 
        4.72811         25.9634         1.56767 
        4.74384         25.8419         1.55449 
        4.75955         25.5805         1.54148 
        4.77525         25.3649         1.52863 
        4.79096         25.2195          1.5159 
        4.80669          24.958         1.50332 
         4.8224         24.8123         1.49089 
        4.83809         24.6411         1.47861 
        4.85379         24.3846         1.46647 
         4.8695         24.1931         1.45445 
        4.88521         23.9837         1.44257 
        4.90093         23.7828         1.43082 
        4.91663         23.5948         1.41922 
        4.93234         23.4392         1.40773 
        4.94807         23.2813         1.39636 
        4.96377         23.0756         1.38513 
        4.97943         22.8545         1.37406 
        4.99514         22.7468         1.36307 
        5.01086         22.5796          1.3522 
        5.02654         22.3653         1.34148 
        5.04227         22.2306         1.33083 
          5.058         22.0754          1.3203 
        5.07371         21.8908         1.30991 
        5.08942         21.6473         1.29962 
        5.10513         21.5657         1.28944 
        5.12084         21.4021         1.27937 
        5.13656         21.2355         1.26941 
        5.15225         21.0443         1.25957 
        5.16796          20.898         1.24981 
        5.18369         20.7037         1.24016 
         5.1994         20.5866         1.23062 
        5.21509         20.4156         1.22119 
        5.23079         20.2874         1.21185 
        5.24649         20.1471         1.20261 
        5.26217         20.0046         1.19348 
        5.27788         19.8541         1.18442 
        5.29359         19.6909         1.17546 
        5.30933         19.4708         1.16658 
        5.32504         19.3811         1.15781 
        5.34073         19.2447         1.14913 
        5.35646         19.0944         1.14053 
        5.37218         18.9417         1.13202 
        5.38789         18.8247          1.1236 
        5.40357         18.6869         1.11528 
        5.41929         18.5118         1.10702 
        5.43502         18.4271         1.09885 
         5.4507         18.2587         1.09078 
        5.46639         18.1267         1.08279 
        5.48212         18.0326         1.07486 
        5.49786         17.8454           1.067 
        5.51353         17.7268         1.05926 
        5.52921         17.6232         1.05159 
        5.54495         17.4886         1.04397 
        5.56066         17.3625         1.03643 
        5.57637         17.2168         1.02897 
        5.59207         17.0897         1.02159 
        5.60778         16.9385         1.01428 
        5.62346         16.8646         1.00705 
        5.63916         16.7635        0.999887 
        5.65487         16.6295        0.992787 
         5.6706         16.5127        0.985748 
        5.68633         16.3941        0.978775 
        5.70203         16.2501        0.971883 
        5.71773         16.1744        0.965059 
        5.73344         16.0256        0.958297 
        5.74916         15.9402        0.951593 
        5.76486         15.8431        0.944963 
        5.78054         15.7141        0.938406 
        5.79626         15.5849        0.931892 
          5.812         15.5173        0.925434 
         5.8277         15.3691        0.919056 
        5.84339         15.2633        0.912738 
        5.85911         15.1787        0.906467 
        5.87484          15.044        0.900256 
        5.89053         14.9471        0.894116 
        5.90623         14.8667         0.88803 
        5.92195         14.7524         0.88199 
        5.93767         14.6346        0.876009 
        5.95336         14.5375        0.870094 
        5.96905         14.4487        0.864236 
        5.98476         14.3489        0.858423 
        6.00048          14.228        0.852662 
        6.01617         14.1601        0.846961 
        6.03185         14.0342         0.84132 
        6.04756         13.9305        0.835716 
        6.06331           13.86        0.830151 
        6.07903         13.7635        0.824648 
        6.09473         13.6594        0.819201 
        6.11044         13.5628        0.813798 
        6.12616         13.4739        0.808444 
        6.14186         13.3547        0.803144 
        6.15755         13.2731        0.797891 
        6.17326         13.2127        0.792682 
        6.18898          13.131        0.787516 
        6.20467         13.0353        0.782406 
        6.22036         12.9437        0.777341 
         6.2361         12.8516        0.772308 
         6.2518         12.7609        0.767327 
        6.26748         12.6803        0.762401 
        6.28319         12.5941        0.757505 
        6.29893         12.5008        0.752647 
        6.31463         12.4263         0.74784 
        6.33033         12.3515        0.743077 
        6.34604         12.2765        0.738352 
        6.36177          12.169        0.733663 
        6.37747         12.1101        0.729024 
