# k  (h/Mpc)    Pcb(k)  (Mpc/h)^3    Pcb_linear(k) (Mpc/h)^3   ShotnoiseSubtracted = true
      0.0200456          91.059         92.2765 
      0.0350414         67.1708         67.0819 
      0.0492313         48.9557         48.7404 
      0.0637834         40.6143         40.5175 
      0.0800726         32.1892         32.1577 
       0.096163         23.4086         23.3332 
       0.111083         18.6419         18.6112 
       0.126058         16.4954         16.4933 
       0.142273         13.9805         13.9735 
       0.158546         11.0915         11.0361 
        0.17375         9.30202          9.2979 
       0.188953         8.41557         8.41904 
       0.204907         7.50118         7.44914 
       0.220756         6.32975         6.30242 
        0.23588         5.50649         5.48256 
         0.2514         4.98066         4.98085 
       0.267535         4.50506         4.50681 
       0.283568         3.98295          3.9744 
       0.299022         3.55575         3.54099 
       0.314451         3.22378         3.23622 
       0.330372         2.96583         2.96887 
       0.346141         2.69386          2.6947 
       0.361624          2.4545         2.44912 
       0.377134         2.26299         2.25357 
       0.392932         2.06673         2.08519 
       0.408854         1.92753         1.92214 
       0.424564         1.76823         1.77166 
       0.440253         1.64179         1.64254 
       0.455999         1.53497         1.53026 
       0.471626         1.43384         1.42707 
        0.48727         1.32993         1.33055 
       0.502856         1.24072         1.24384 
       0.518488         1.17308         1.16647 
       0.534347         1.10506         1.09454 
       0.550082         1.02704         1.02822 
       0.565732        0.958599        0.967549 
       0.581496        0.913257         0.91198 
       0.597222        0.863412        0.861017 
       0.612804        0.813804        0.814155 
       0.628434        0.774499        0.770476 
       0.644267        0.730141         0.72964 
       0.660051        0.690817        0.692003 
       0.675724        0.658117         0.65725 
       0.691403        0.627203        0.624854 
       0.707174        0.594911        0.594459 
       0.722871        0.563784        0.566207 
        0.73838        0.541518        0.540093 
       0.754018        0.518583        0.515429 
       0.769845        0.494285        0.492037 
        0.78569        0.471141        0.470077 
       0.801365        0.449658        0.449676 
       0.817031        0.431088        0.430505 
       0.832809        0.412967        0.412335 
       0.848511        0.395054          0.3953 
       0.864097         0.37761        0.379349 
       0.879701        0.362121        0.364268 
       0.895507         0.35044        0.349832 
       0.911279        0.336398        0.336212 
        0.92691        0.322682        0.323434 
       0.942635         0.31102        0.311252 
       0.958396        0.298569        0.299674 
       0.974128        0.287535        0.288709 
       0.989692        0.277791        0.278403 
        1.00528        0.268666        0.268588 
        1.02113        0.257099        0.259093 
        1.03692         0.24915        0.250095 
        1.05264        0.240665        0.241567 
        1.06832        0.232714        0.233451 
        1.08405        0.224001        0.225689 
        1.09979        0.216495        0.218276 
        1.11537        0.211003        0.211271 
        1.13105        0.203857        0.204532 
        1.14679        0.198067        0.198063 
        1.16256        0.190193        0.191862 
        1.17828        0.184365        0.185948 
        1.19395        0.178425        0.180304 
         1.2097         0.17293        0.174866 
        1.22537        0.168867         0.16968 
          1.241        0.163423         0.16472 
        1.25666        0.159167        0.159947 
        1.27241        0.154003        0.155342 
        1.28819        0.149569         0.15091 
        1.30392        0.145159        0.146665 
        1.31957        0.141341        0.142603 
        1.33529        0.136982         0.13868 
        1.35108        0.133348        0.134889 
        1.36674        0.128856        0.131268 
         1.3824        0.126789        0.127784 
        1.39811        0.122752        0.124414 
        1.41389        0.119554        0.121154 
        1.42964        0.116891        0.118016 
        1.44531        0.113104        0.115006 
        1.46101        0.110526        0.112094 
        1.47667        0.107217        0.109291 
        1.49229        0.104859        0.106593 
        1.50793        0.101959        0.103982 
        1.52367       0.0996196        0.101443 
        1.53953       0.0974756       0.0989714 
        1.55526        0.095032       0.0966022 
        1.57092       0.0920824       0.0943205 
        1.58662       0.0903561       0.0921072 
        1.60235       0.0884987       0.0899609 
        1.61809       0.0857021        0.087882 
        1.63369       0.0841692       0.0858875 
        1.64941       0.0823339       0.0839407 
        1.66519       0.0801882       0.0820473 
        1.68085       0.0782144        0.080226 
        1.69652       0.0763614       0.0784595 
        1.71228       0.0750736       0.0767363 
        1.72806       0.0728688       0.0750636 
        1.74368       0.0715982       0.0734576 
        1.75933       0.0700551       0.0718955 
        1.77505       0.0684285       0.0703716 
        1.79081       0.0671593       0.0688893 
         1.8065       0.0652979       0.0674561 
        1.82218       0.0641669        0.066065 
        1.83797       0.0627049       0.0647037 
        1.85367       0.0613885       0.0633883 
        1.86928       0.0603032       0.0621174 
        1.88497       0.0591321       0.0608745 
        1.90073       0.0577904       0.0596611 
        1.91647       0.0564453       0.0584819 
        1.93218       0.0553104       0.0573372 
        1.94787       0.0541482       0.0562248 
        1.96363       0.0532363       0.0551375 
        1.97935        0.051997       0.0540813 
        1.99499       0.0510687       0.0530588 
        2.01064       0.0502173       0.0520612 
         2.0264       0.0492541       0.0510831 
        2.04216       0.0481688       0.0501306 
        2.05781        0.047324       0.0492084 
        2.07353       0.0461639       0.0483062 
        2.08928       0.0454311       0.0474247 
        2.10499       0.0443897       0.0465675 
        2.12065       0.0438074       0.0457342 
        2.13633       0.0427955       0.0449205 
        2.15211       0.0422831       0.0441214 
        2.16785       0.0414493        0.043344 
        2.18349       0.0404318       0.0425902 
        2.19916       0.0400514       0.0418528 
        2.21489       0.0393719       0.0411304 
        2.23063       0.0385289       0.0404246 
         2.2463       0.0376899       0.0397386 
        2.26194       0.0370484       0.0390702 
        2.27765       0.0364053       0.0384137 
        2.29341       0.0359427       0.0377707 
        2.30914       0.0351617       0.0371437 
        2.32486       0.0345652       0.0365313 
        2.34061       0.0340361       0.0359317 
        2.35635       0.0333819       0.0353461 
        2.37203       0.0328427       0.0347756 
        2.38768       0.0322389       0.0342189 
        2.40339       0.0316844       0.0336723 
        2.41914       0.0312795       0.0331365 
        2.43483       0.0305758       0.0326142 
         2.4505       0.0301222        0.032104 
        2.46622       0.0296527        0.031603 
        2.48195       0.0290921       0.0311127 
        2.49759       0.0287209       0.0306354 
        2.51328       0.0283487       0.0301669 
        2.52906       0.0278346       0.0297052 
        2.54479        0.027388       0.0292549 
        2.56049       0.0269481       0.0288148 
        2.57618        0.026519       0.0283841 
        2.59189         0.02609       0.0279617 
        2.60758       0.0257361       0.0275484 
        2.62325       0.0252945       0.0271441 
        2.63898       0.0248756       0.0267464 
        2.65468        0.024479       0.0263576 
        2.67044       0.0242028       0.0259748 
        2.68618       0.0237885       0.0256005 
        2.70184       0.0234165       0.0252351 
        2.71755       0.0229755       0.0248759 
        2.73329       0.0226614       0.0245232 
        2.74897        0.022413       0.0241784 
        2.76462       0.0220069        0.023841 
        2.78034       0.0216953       0.0235087 
        2.79607       0.0214231       0.0231824 
        2.81179       0.0210688       0.0228626 
        2.82749       0.0207532       0.0225493 
        2.84321       0.0204724       0.0222414 
        2.85893       0.0201464       0.0219394 
        2.87462       0.0199086       0.0216436 
        2.89033       0.0196466       0.0213529 
        2.90605        0.019286       0.0210673 
        2.92176       0.0191097        0.020787 
        2.93747       0.0187915        0.020512 
        2.95318       0.0184899        0.020242 
        2.96891       0.0182931       0.0199766 
        2.98456       0.0180899       0.0197172 
        3.00023       0.0177496       0.0194621 
        3.01596       0.0174775       0.0192106 
        3.03164       0.0173445       0.0189643 
        3.04738       0.0170628       0.0187216 
         3.0631       0.0167621       0.0184833 
        3.07883       0.0165553       0.0182491 
        3.09456       0.0164279       0.0180189 
        3.11026       0.0161544       0.0177931 
        3.12596       0.0159997       0.0175712 
        3.14163       0.0157433       0.0173536 
        3.15734       0.0155559       0.0171392 
        3.17308       0.0153209       0.0169279 
        3.18879       0.0151502       0.0167207 
        3.20447       0.0149781       0.0165172 
         3.2202        0.014775       0.0163166 
         3.2359       0.0146052       0.0161196 
        3.25157       0.0143872       0.0159264 
        3.26729       0.0142557       0.0157357 
        3.28304       0.0140356       0.0155478 
        3.29877       0.0138914       0.0153632 
        3.31446       0.0137063        0.015182 
        3.33014        0.013508       0.0150038 
        3.34585       0.0133501       0.0148283 
        3.36158       0.0131834       0.0146553 
        3.37727       0.0130566       0.0144856 
        3.39294        0.012903       0.0143187 
        3.40867       0.0127684       0.0141539 
        3.42439       0.0126261       0.0139918 
        3.44008        0.012471       0.0138325 
        3.45578       0.0123336       0.0136756 
        3.47153        0.012166       0.0135207 
        3.48724        0.012093       0.0133686 
        3.50292       0.0118631       0.0132191 
        3.51859       0.0117359        0.013072 
        3.53431       0.0116577       0.0129267 
        3.55007       0.0115408       0.0127832 
        3.56577       0.0114297       0.0126424 
        3.58146       0.0112203       0.0125039 
        3.59719       0.0111325       0.0123671 
        3.61292       0.0109867       0.0122324 
        3.62859       0.0108891       0.0121002 
        3.64429       0.0107955       0.0119697 
        3.66003       0.0106758       0.0118407 
        3.67578       0.0105617       0.0117137 
        3.69146       0.0104786        0.011589 
        3.70712       0.0103729       0.0114664 
        3.72284       0.0102395        0.011345 
        3.73853       0.0101134       0.0112257 
        3.75422       0.0100676        0.011108 
        3.76993      0.00993324       0.0109919 
        3.78564      0.00988815       0.0108775 
        3.80137      0.00976913       0.0107646 
        3.81707      0.00964093       0.0106534 
        3.83279        0.009555       0.0105438 
        3.84853      0.00948502       0.0104355 
        3.86424      0.00936258        0.010329 
        3.87992       0.0092844       0.0102241 
        3.89561      0.00922128       0.0101207 
        3.91134      0.00914894       0.0100185 
        3.92704      0.00901531      0.00991776 
        3.94273       0.0089687      0.00981855 
        3.95845      0.00885932      0.00972052 
        3.97418      0.00877759       0.0096238 
        3.98988      0.00871258      0.00952853 
        4.00554      0.00859595      0.00943481 
        4.02125      0.00850144      0.00934207 
        4.03698      0.00842503      0.00925045 
        4.05268      0.00830774      0.00916025 
        4.06839      0.00818546       0.0090712 
         4.0841      0.00810683      0.00898335 
        4.09983      0.00799442      0.00889655 
        4.11555        0.007911      0.00881092 
        4.13124      0.00781031      0.00872666 
        4.14693      0.00772705      0.00864342 
        4.16266      0.00762092      0.00856108 
        4.17839      0.00755871      0.00847987 
        4.19408      0.00747479      0.00839988 
        4.20977      0.00740319       0.0083209 
        4.22551      0.00732944      0.00824274 
        4.24123      0.00724435      0.00816566 
        4.25691      0.00717942      0.00808979 
        4.27259      0.00711364      0.00801484 
        4.28831      0.00707924       0.0079407 
        4.30404      0.00699889      0.00786743 
        4.31974      0.00694018      0.00779523 
        4.33543      0.00688094      0.00772399 
        4.35116      0.00682795      0.00765346 
        4.36688      0.00677035      0.00758384 
        4.38255      0.00673719      0.00751535 
        4.39825      0.00671582      0.00744755 
        4.41398      0.00668283      0.00738045 
         4.4297      0.00664901      0.00731426 
        4.44541      0.00660249      0.00724888 
        4.46111      0.00656171      0.00718435 
        4.47683      0.00655479      0.00712056 
        4.49251      0.00650764      0.00705768 
        4.50819      0.00650345      0.00699557 
         4.5239      0.00649694      0.00693412 
        4.53962      0.00647446      0.00687333 
        4.55535      0.00645713      0.00681324 
        4.57106      0.00647691      0.00675395 
        4.58678      0.00644491      0.00669536 
         4.6025      0.00646863      0.00663744 
        4.61821      0.00647157      0.00658022 
        4.63391      0.00645285      0.00652375 
         4.6496      0.00646796      0.00646797 
        4.66532      0.00647123      0.00641275 
        4.68103      0.00649131       0.0063582 
        4.69673      0.00648924      0.00630433 
        4.71241      0.00652214      0.00625114 
        4.72811      0.00652399      0.00619848 
        4.74384      0.00656814      0.00614636 
        4.75955      0.00657778      0.00609491 
        4.77525      0.00662177      0.00604408 
        4.79096      0.00665937      0.00599377 
        4.80669      0.00666686      0.00594401 
         4.8224        0.006722      0.00589487 
        4.83809      0.00674552      0.00584633 
        4.85379      0.00680938      0.00579832 
         4.8695      0.00685573       0.0057508 
        4.88521      0.00690748      0.00570383 
        4.90093      0.00696433      0.00565738 
        4.91663      0.00704739      0.00561149 
        4.93234      0.00707827      0.00556606 
        4.94807      0.00715325      0.00552111 
        4.96377      0.00720935      0.00547673 
        4.97943       0.0072749      0.00543293 
        4.99514      0.00735515       0.0053895 
        5.01086      0.00744255      0.00534651 
        5.02654      0.00752031       0.0053041 
        5.04227      0.00761953      0.00526203 
          5.058       0.0076949      0.00522039 
        5.07371      0.00779911      0.00517928 
        5.08942      0.00791624      0.00513861 
        5.10513      0.00796547      0.00509837 
        5.12084       0.0080697      0.00505854 
        5.13656      0.00818097      0.00501915 
        5.15225      0.00827698      0.00498024 
        5.16796      0.00841292      0.00494168 
        5.18369      0.00855921      0.00490349 
         5.1994      0.00866117      0.00486578 
        5.21509      0.00884842       0.0048285 
        5.23079      0.00890814      0.00479156 
        5.24649       0.0090987      0.00475504 
        5.26217      0.00920107      0.00471892 
        5.27788      0.00940162      0.00468313 
        5.29359      0.00951879       0.0046477 
        5.30933      0.00971742      0.00461259 
        5.32504      0.00984289       0.0045779 
        5.34073       0.0100602       0.0045436 
        5.35646       0.0101827      0.00450959 
        5.37218       0.0103672      0.00447591 
        5.38789       0.0105618      0.00444264 
        5.40357       0.0107019      0.00440974 
        5.41929       0.0109105       0.0043771 
        5.43502       0.0111414      0.00434479 
         5.4507       0.0113827      0.00431288 
        5.46639        0.011639      0.00428128 
        5.48212       0.0117068      0.00424993 
        5.49786       0.0120399      0.00421886 
        5.51353       0.0122812      0.00418825 
        5.52921       0.0125243      0.00415791 
        5.54495       0.0127927      0.00412778 
        5.56066       0.0130077      0.00409799 
        5.57637       0.0132996      0.00406849 
        5.59207       0.0135123      0.00403931 
        5.60778       0.0137979       0.0040104 
        5.62346       0.0141557      0.00398182 
        5.63916       0.0143896      0.00395349 
        5.65487       0.0147422      0.00392542 
         5.6706       0.0149531      0.00389758 
        5.68633       0.0153722      0.00387001 
        5.70203       0.0156935      0.00384276 
        5.71773       0.0160408      0.00381578 
        5.73344       0.0163264      0.00378904 
        5.74916       0.0167713      0.00376254 
        5.76486       0.0171281      0.00373632 
        5.78054       0.0174755      0.00371039 
        5.79626       0.0177983      0.00368464 
          5.812       0.0183248       0.0036591 
         5.8277       0.0186629      0.00363389 
        5.84339        0.019102       0.0036089 
        5.85911       0.0196792      0.00358411 
        5.87484       0.0200984      0.00355955 
        5.89053       0.0205637      0.00353527 
        5.90623       0.0211898      0.00351121 
        5.92195       0.0216226      0.00348733 
        5.93767       0.0220997      0.00346368 
        5.95336       0.0225752      0.00344029 
        5.96905       0.0232944      0.00341713 
        5.98476       0.0236098      0.00339415 
        6.00048        0.024234      0.00337137 
        6.01617       0.0248653      0.00334883 
        6.03185        0.025403      0.00332652 
        6.04756       0.0261303      0.00330436 
        6.06331       0.0266486      0.00328236 
        6.07903       0.0274958       0.0032606 
        6.09473       0.0279363      0.00323907 
        6.11044       0.0289482       0.0032177 
        6.12616       0.0297202      0.00319653 
        6.14186       0.0301901      0.00317558 
        6.15755       0.0310413      0.00315481 
        6.17326       0.0317016      0.00313421 
        6.18898       0.0328762      0.00311379 
        6.20467       0.0337868      0.00309358 
        6.22036       0.0345228      0.00307356 
         6.2361       0.0354194      0.00305365 
         6.2518       0.0364161      0.00303396 
        6.26748       0.0370519      0.00301448 
        6.28319        0.038338      0.00299512 
        6.29893       0.0392771      0.00297592 
        6.31463       0.0404843      0.00295691 
        6.33033       0.0414524      0.00293808 
        6.34604       0.0426102      0.00291939 
        6.36177       0.0439197      0.00290086 
        6.37747        0.045077      0.00288251 
