# k  (h/Mpc)    Pcb(k)  (Mpc/h)^3    Pcb_linear(k) (Mpc/h)^3   ShotnoiseSubtracted = true
      0.0200456         4534.25          4594.5 
      0.0350414         3405.32         3340.04 
      0.0492313         2425.04         2426.81 
      0.0637834         1975.02         2017.39 
      0.0800726         1560.85         1601.15 
       0.096163         1191.83         1161.77 
       0.111083         962.632         926.661 
       0.126058         815.898          821.21 
       0.142273         693.958         695.745 
       0.158546         564.425         549.493 
        0.17375         486.335         462.947 
       0.188953         441.203         419.188 
       0.204907         375.771         370.896 
       0.220756         333.196         313.801 
        0.23588         292.755         272.979 
         0.2514         263.606         247.999 
       0.267535         248.539         224.397 
       0.283568         217.188         197.888 
       0.299022         201.826         176.308 
       0.314451         193.609         161.133 
       0.330372         170.093         147.822 
       0.346141         156.557         134.171 
       0.361624         145.972         121.943 
       0.377134         133.385         112.207 
       0.392932         129.666         103.823 
       0.408854         120.763         95.7043 
       0.424564          115.08          88.212 
       0.440253         104.611         81.7828 
       0.455999         96.7214         76.1923 
       0.471626         92.7855         71.0547 
        0.48727         90.0169         66.2488 
       0.502856         82.9761         61.9313 
       0.518488         79.7843         58.0791 
       0.534347         75.2387         54.4978 
       0.550082         72.7791         51.1957 
       0.565732          70.513         48.1748 
       0.581496         65.3683          45.408 
       0.597222          62.941         42.8705 
       0.612804         60.6669         40.5372 
       0.628434         59.3547         38.3624 
       0.644267         56.1269         36.3291 
       0.660051         53.9092         34.4552 
       0.675724         52.0247         32.7248 
       0.691403         51.1356         31.1118 
       0.707174         49.3264         29.5984 
       0.722871         47.8392         28.1917 
        0.73838         45.7385         26.8915 
       0.754018         43.3874         25.6635 
       0.769845         42.7874         24.4988 
        0.78569         41.2489         23.4054 
       0.801365          40.122         22.3896 
       0.817031         38.5729         21.4351 
       0.832809         37.9005         20.5304 
       0.848511         36.7145         19.6822 
       0.864097         35.8602          18.888 
       0.879701         35.1841         18.1371 
       0.895507         33.8869         17.4183 
       0.911279         32.9144         16.7402 
        0.92691         32.2856         16.1039 
       0.942635         31.6056         15.4974 
       0.958396         30.9961         14.9209 
       0.974128         30.1457          14.375 
       0.989692         29.0274         13.8618 
        1.00528         28.7497         13.3731 
        1.02113         27.9733         12.9004 
        1.03692         27.5003         12.4523 
        1.05264         26.9126         12.0277 
        1.06832         26.4234         11.6237 
        1.08405         25.6776         11.2372 
        1.09979         25.3911         10.8681 
        1.11537         24.5952         10.5193 
        1.13105         24.2022         10.1838 
        1.14679         23.6222         9.86166 
        1.16256         23.2951          9.5529 
        1.17828          22.941         9.25843 
        1.19395         22.5108         8.97742 
         1.2097         22.0634         8.70668 
        1.22537         21.6639         8.44845 
          1.241         21.2465         8.20151 
        1.25666         20.9714         7.96386 
        1.27241         20.6329         7.73454 
        1.28819         19.8596          7.5139 
        1.30392         20.0852         7.30253 
        1.31957         19.5689         7.10026 
        1.33529         19.1957         6.90494 
        1.35108         19.0112         6.71622 
        1.36674         18.6643         6.53591 
         1.3824         18.3137         6.36242 
        1.39811         17.9599         6.19466 
        1.41389         17.7664         6.03232 
        1.42964          17.557          5.8761 
        1.44531         17.2745         5.72619 
        1.46101         17.0424          5.5812 
        1.47667         16.7909         5.44167 
        1.49229          16.424         5.30731 
        1.50793         16.3001         5.17734 
        1.52367          16.097          5.0509 
        1.53953         15.8627         4.92784 
        1.55526         15.5629         4.80987 
        1.57092         15.5358         4.69627 
        1.58662         15.2965         4.58607 
        1.60235         15.0444          4.4792 
        1.61809         14.8833         4.37569 
        1.63369         14.6517         4.27638 
        1.64941         14.4943         4.17945 
        1.66519         14.2863         4.08518 
        1.68085         14.0099         3.99449 
        1.69652         14.0475         3.90654 
        1.71228         13.7655         3.82074 
        1.72806         13.5705         3.73746 
        1.74368         13.4491         3.65749 
        1.75933         13.3216         3.57972 
        1.77505         13.1358         3.50384 
        1.79081         12.9886         3.43003 
         1.8065         12.8927         3.35867 
        1.82218         12.7755         3.28941 
        1.83797         12.6321         3.22163 
        1.85367         12.5125         3.15614 
        1.86928         12.3503         3.09286 
        1.88497         12.2222         3.03098 
        1.90073          12.046         2.97056 
        1.91647         11.7879         2.91185 
        1.93218         11.8076         2.85485 
        1.94787         11.5849         2.79946 
        1.96363          11.539         2.74533 
        1.97935         11.4096         2.69274 
        1.99499         11.2687         2.64182 
        2.01064         11.1599         2.59215 
         2.0264         10.9982         2.54345 
        2.04216         11.0307         2.49603 
        2.05781           10.89         2.45011 
        2.07353         10.7552         2.40519 
        2.08928         10.6147          2.3613 
        2.10499         10.5032         2.31862 
        2.12065         10.4418         2.27713 
        2.13633         10.3103         2.23662 
        2.15211         10.2268         2.19683 
        2.16785         10.0908         2.15812 
        2.18349         10.0105         2.12059 
        2.19916         9.91557         2.08387 
        2.21489         9.83618         2.04791 
        2.23063         9.78983         2.01276 
         2.2463         9.61228          1.9786 
        2.26194         9.54687         1.94532 
        2.27765          9.4432         1.91264 
        2.29341         9.32377         1.88062 
        2.30914         9.30812          1.8494 
        2.32486         9.21042         1.81891 
        2.34061         9.14896         1.78906 
        2.35635         9.04369          1.7599 
        2.37203          8.9364          1.7315 
        2.38768          8.8503         1.70378 
        2.40339         8.81208         1.67656 
        2.41914         8.70957         1.64988 
        2.43483         8.67851         1.62388 
         2.4505         8.59062         1.59848 
        2.46622         8.48501         1.57353 
        2.48195         8.47562         1.54912 
        2.49759          8.3205         1.52535 
        2.51328         8.29898         1.50202 
        2.52906         8.20517         1.47904 
        2.54479         8.12881         1.45662 
        2.56049         8.05724          1.4347 
        2.57618         8.01486         1.41326 
        2.59189          8.0165         1.39223 
        2.60758         7.87982         1.37165 
        2.62325         7.80972         1.35152 
        2.63898         7.81348         1.33172 
        2.65468         7.69289         1.31236 
        2.67044         7.65084          1.2933 
        2.68618         7.56048         1.27466 
        2.70184         7.53966         1.25647 
        2.71755         7.45599         1.23858 
        2.73329         7.36565         1.22102 
        2.74897         7.33075         1.20386 
        2.76462          7.3042         1.18706 
        2.78034         7.22302         1.17051 
        2.79607          7.1942         1.15426 
        2.81179         7.11135         1.13834 
        2.82749         7.04922         1.12274 
        2.84321         7.00866         1.10741 
        2.85893         6.96607         1.09238 
        2.87462         6.91429         1.07764 
        2.89033          6.8381         1.06317 
        2.90605         6.80965         1.04895 
        2.92176          6.7402           1.035 
        2.93747          6.6901         1.02131 
        2.95318         6.63218         1.00786 
        2.96891         6.58172        0.994647 
        2.98456         6.53973        0.981732 
        3.00023         6.50928        0.969026 
        3.01596         6.41294        0.956507 
        3.03164         6.39631        0.944244 
        3.04738         6.34904         0.93216 
         3.0631         6.30308        0.920292 
        3.07883         6.25623         0.90863 
        3.09456         6.17994        0.897172 
        3.11026         6.15601        0.885929 
        3.12596         6.10685         0.87488 
        3.14163         6.08509        0.864045 
        3.15734         6.02427        0.853369 
        3.17308         6.01534        0.842847 
        3.18879         5.94347        0.832531 
        3.20447         5.90171        0.822402 
         3.2202         5.85703        0.812411 
         3.2359         5.81449        0.802604 
        3.25157         5.78073        0.792982 
        3.26729         5.74319        0.783488 
        3.28304          5.7011        0.774132 
        3.29877         5.66946         0.76494 
        3.31446         5.64381        0.755917 
        3.33014         5.57792        0.747048 
        3.34585         5.54919        0.738308 
        3.36158         5.50161        0.729695 
        3.37727         5.46756        0.721245 
        3.39294         5.43406        0.712938 
        3.40867         5.40467        0.704731 
        3.42439         5.34523        0.696658 
        3.44008         5.31813        0.688727 
        3.45578         5.28137        0.680914 
        3.47153         5.23744        0.673205 
        3.48724         5.20663        0.665628 
        3.50292         5.16656        0.658186 
        3.51859         5.13922        0.650861 
        3.53431         5.10549        0.643625 
        3.55007         5.07233        0.636481 
        3.56577         5.01873        0.629473 
        3.58146         4.99654        0.622575 
        3.59719         4.96935        0.615763 
        3.61292         4.93653        0.609056 
        3.62859         4.90706        0.602474 
        3.64429         4.87231        0.595976 
        3.66003         4.84336        0.589555 
        3.67578         4.81961         0.58323 
        3.69146         4.77894        0.577022 
        3.70712         4.75916        0.570916 
        3.72284          4.7245        0.564875 
        3.73853         4.68401        0.558933 
        3.75422         4.64886        0.553073 
        3.76993          4.6422        0.547293 
        3.78564         4.59825        0.541597 
        3.80137         4.56493        0.535973 
        3.81707         4.53081        0.530441 
        3.83279         4.51085        0.524982 
        3.84853         4.46596        0.519591 
        3.86424         4.44727        0.514287 
        3.87992         4.42636        0.509064 
        3.89561         4.39983        0.503914 
        3.91134         4.36383        0.498824 
        3.92704         4.32943         0.49381 
        3.94273         4.31253        0.488871 
        3.95845         4.27764         0.48399 
        3.97418         4.24926        0.479174 
        3.98988           4.225         0.47443 
        4.00554         4.19902        0.469764 
        4.02125         4.15978        0.465147 
        4.03698         4.13999        0.460585 
        4.05268         4.10508        0.456094 
        4.06839         4.08483         0.45166 
         4.0841         4.05288        0.447286 
        4.09983         4.03275        0.442964 
        4.11555          4.0015          0.4387 
        4.13124         3.97749        0.434505 
        4.14693         3.96051        0.430361 
        4.16266         3.92865        0.426261 
        4.17839         3.90493        0.422217 
        4.19408         3.88316        0.418235 
        4.20977         3.85553        0.414302 
        4.22551         3.82522         0.41041 
        4.24123         3.79319        0.406573 
        4.25691         3.77643        0.402795 
        4.27259         3.75198        0.399063 
        4.28831         3.72055        0.395372 
        4.30404         3.71012        0.391723 
        4.31974         3.67782        0.388129 
        4.33543         3.65835        0.384581 
        4.35116         3.63934         0.38107 
        4.36688         3.61704        0.377603 
        4.38255         3.60064        0.374193 
        4.39825         3.57425        0.370817 
        4.41398         3.55065        0.367477 
         4.4297         3.53453        0.364181 
        4.44541          3.5108        0.360925 
        4.46111         3.47588        0.357713 
        4.47683         3.46047        0.354537 
        4.49251          3.4408        0.351406 
        4.50819          3.4207        0.348313 
         4.5239         3.39435        0.345253 
        4.53962          3.3682        0.342227 
        4.55535          3.3581        0.339235 
        4.57106         3.33562        0.336283 
        4.58678         3.31287        0.333365 
         4.6025         3.30087        0.330482 
        4.61821         3.27616        0.327633 
        4.63391         3.25057        0.324821 
         4.6496         3.23375        0.322043 
        4.66532         3.21949        0.319294 
        4.68103         3.19769        0.316578 
        4.69673         3.18243        0.313896 
        4.71241         3.16237        0.311248 
        4.72811         3.14217        0.308625 
        4.74384          3.1318         0.30603 
        4.75955         3.10083        0.303469 
        4.77525         3.08636        0.300938 
        4.79096         3.07084        0.298433 
        4.80669         3.04861        0.295955 
         4.8224         3.03535        0.293509 
        4.83809         3.02325        0.291092 
        4.85379          3.0024        0.288701 
         4.8695         2.98327        0.286335 
        4.88521         2.96097        0.283997 
        4.90093         2.95112        0.281684 
        4.91663         2.93591        0.279399 
        4.93234         2.91685        0.277137 
        4.94807         2.90065        0.274899 
        4.96377         2.88585        0.272689 
        4.97943         2.87311        0.270509 
        4.99514         2.85003        0.268346 
        5.01086         2.83247        0.266206 
        5.02654         2.81579        0.264094 
        5.04227         2.80586        0.261999 
          5.058         2.79408        0.259926 
        5.07371         2.77666        0.257879 
        5.08942         2.75125        0.255854 
        5.10513         2.74217        0.253851 
        5.12084         2.72476        0.251867 
        5.13656         2.71303        0.249906 
        5.15225         2.69533        0.247969 
        5.16796         2.68298        0.246049 
        5.18369         2.66294        0.244147 
         5.1994         2.65055         0.24227 
        5.21509         2.63763        0.240413 
        5.23079         2.63055        0.238574 
        5.24649         2.60848        0.236756 
        5.26217         2.59198        0.234958 
        5.27788         2.58346        0.233175 
        5.29359         2.57346        0.231411 
        5.30933         2.55933        0.229663 
        5.32504         2.54506        0.227936 
        5.34073         2.52779        0.226228 
        5.35646         2.51228        0.224535 
        5.37218         2.50438        0.222858 
        5.38789         2.48836        0.221201 
        5.40357         2.47743        0.219563 
        5.41929         2.46389        0.217938 
        5.43502         2.45279        0.216329 
         5.4507         2.43245         0.21474 
        5.46639         2.41944        0.213167 
        5.48212         2.41174        0.211606 
        5.49786         2.39779        0.210059 
        5.51353         2.38777        0.208535 
        5.52921         2.37185        0.207024 
        5.54495         2.36022        0.205524 
        5.56066         2.34935        0.204041 
        5.57637         2.33646        0.202572 
        5.59207          2.3235        0.201119 
        5.60778          2.3209         0.19968 
        5.62346         2.29943        0.198257 
        5.63916         2.28952        0.196846 
        5.65487         2.27365        0.195448 
         5.6706         2.26916        0.194063 
        5.68633         2.25514         0.19269 
        5.70203          2.2433        0.191333 
        5.71773         2.23105         0.18999 
        5.73344         2.22031        0.188658 
        5.74916         2.20927        0.187339 
        5.76486         2.20023        0.186033 
        5.78054         2.18673        0.184742 
        5.79626          2.1776         0.18346 
          5.812         2.16192        0.182189 
         5.8277         2.15079        0.180933 
        5.84339         2.14664        0.179689 
        5.85911         2.13326        0.178455 
        5.87484         2.12464        0.177232 
        5.89053         2.11465        0.176023 
        5.90623         2.10517        0.174825 
        5.92195         2.09144        0.173636 
        5.93767         2.08556        0.172459 
        5.95336         2.07141        0.171294 
        5.96905         2.06553        0.170141 
        5.98476         2.05024        0.168996 
        6.00048         2.03987        0.167862 
        6.01617         2.03331         0.16674 
        6.03185         2.02275        0.165629 
        6.04756          2.0154        0.164526 
        6.06331         2.00708         0.16343 
        6.07903         1.99479        0.162347 
        6.09473         1.98549        0.161275 
        6.11044         1.97874        0.160211 
        6.12616         1.96893        0.159157 
        6.14186         1.96172        0.158114 
        6.15755         1.94733         0.15708 
        6.17326         1.93824        0.156054 
        6.18898           1.933        0.155037 
        6.20467         1.91994        0.154031 
        6.22036         1.91207        0.153034 
         6.2361         1.90533        0.152043 
         6.2518         1.89713        0.151062 
        6.26748         1.88889        0.150093 
        6.28319         1.88067        0.149129 
        6.29893         1.86838        0.148172 
        6.31463         1.86075        0.147226 
        6.33033         1.85148        0.146288 
        6.34604         1.84497        0.145358 
        6.36177         1.83923        0.144435 
        6.37747         1.82904        0.143522 
