# k  (h/Mpc)    Pcb(k)  (Mpc/h)^3    Pcb_linear(k) (Mpc/h)^3   ShotnoiseSubtracted = true
      0.0200456         8405.75         8556.36 
      0.0350414         6066.67         6220.18 
      0.0492313         4495.31         4519.47 
      0.0637834         3826.63         3756.99 
      0.0800726         3030.35         2981.83 
       0.096163         2126.52         2163.58 
       0.111083         1688.77         1725.73 
       0.126058          1551.6         1529.34 
       0.142273         1338.16         1295.69 
       0.158546         1103.88         1023.32 
        0.17375          889.87          862.15 
       0.188953         851.542         780.657 
       0.204907         797.748         690.723 
       0.220756          673.17         584.393 
        0.23588          590.42         508.371 
         0.2514         518.307          461.85 
       0.267535          498.03         417.895 
       0.283568         451.088         368.527 
       0.299022         417.797         328.339 
       0.314451         387.371         300.079 
       0.330372         358.139         275.289 
       0.346141         322.888         249.867 
       0.361624         309.094         227.095 
       0.377134         288.983         208.963 
       0.392932         268.854         193.349 
       0.408854         257.711         178.231 
       0.424564         246.537         164.278 
       0.440253         234.577         152.305 
       0.455999         220.722         141.893 
       0.471626         204.443         132.326 
        0.48727         198.622         123.376 
       0.502856         191.045         115.335 
       0.518488         187.326         108.161 
       0.534347         177.711         101.492 
       0.550082         165.445         95.3422 
       0.565732         160.973         89.7162 
       0.581496          153.68         84.5636 
       0.597222         149.118          79.838 
       0.612804         142.715         75.4927 
       0.628434         139.135         71.4426 
       0.644267         134.357          67.656 
       0.660051         132.112         64.1661 
       0.675724         128.312         60.9436 
       0.691403         124.388         57.9397 
       0.707174         119.305         55.1213 
       0.722871         117.857         52.5017 
        0.73838         115.428         50.0802 
       0.754018         110.478         47.7933 
       0.769845         108.228         45.6243 
        0.78569         105.749          43.588 
       0.801365         102.704         41.6963 
       0.817031         99.0909         39.9187 
       0.832809         97.8941         38.2338 
       0.848511         94.7268         36.6543 
       0.864097         92.2853         35.1752 
       0.879701         91.0472         33.7768 
       0.895507         89.0214         32.4382 
       0.911279         87.6426         31.1753 
        0.92691         85.6707         29.9904 
       0.942635         83.2899         28.8609 
       0.958396         82.9515         27.7873 
       0.974128         80.7482         26.7706 
       0.989692         78.8342          25.815 
        1.00528         77.2563         24.9048 
        1.02113         76.0924         24.0245 
        1.03692         73.7034         23.1901 
        1.05264         73.5503         22.3993 
        1.06832         71.5308         21.6468 
        1.08405         70.6641          20.927 
        1.09979         70.1012         20.2397 
        1.11537          67.506         19.5901 
        1.13105         67.8971         18.9653 
        1.14679         66.4872         18.3654 
        1.16256         65.4734         17.7904 
        1.17828         63.7426          17.242 
        1.19395         63.2694         16.7187 
         1.2097         61.7133         16.2145 
        1.22537         61.7928         15.7336 
          1.241         60.1763         15.2737 
        1.25666         59.0412         14.8311 
        1.27241         58.5134         14.4041 
        1.28819         57.3315         13.9932 
        1.30392         56.5304         13.5996 
        1.31957         56.0143         13.2229 
        1.33529         55.0698         12.8591 
        1.35108         54.7798         12.5077 
        1.36674         53.9451         12.1719 
         1.3824         52.6569         11.8488 
        1.39811         52.4089         11.5364 
        1.41389         51.5596          11.234 
        1.42964         50.8698         10.9431 
        1.44531         50.0889         10.6639 
        1.46101         49.2118         10.3939 
        1.47667         49.1388         10.1341 
        1.49229         48.4818         9.88384 
        1.50793         47.7301         9.64179 
        1.52367         47.0116         9.40632 
        1.53953         46.6719         9.17715 
        1.55526         45.9637         8.95746 
        1.57092         45.5875         8.74589 
        1.58662         44.9818         8.54066 
        1.60235          44.483         8.34164 
        1.61809         43.7714         8.14888 
        1.63369         43.1233         7.96393 
        1.64941         42.5931         7.78342 
        1.66519         42.0347         7.60786 
        1.68085         41.7349         7.43897 
        1.69652         41.1319         7.27517 
        1.71228         40.9012         7.11539 
        1.72806         40.3689         6.96029 
        1.74368         39.7552         6.81137 
        1.75933         39.3494         6.66653 
        1.77505           39.05         6.52522 
        1.79081         38.4468         6.38778 
         1.8065         38.0516         6.25488 
        1.82218         37.6762         6.12589 
        1.83797          37.145         5.99966 
        1.85367         36.6267         5.87769 
        1.86928         36.4117         5.75985 
        1.88497          36.014          5.6446 
        1.90073          35.677         5.53209 
        1.91647         35.2472         5.42275 
        1.93218         34.9046          5.3166 
        1.94787         34.4813         5.21345 
        1.96363         34.1882         5.11264 
        1.97935          33.746          5.0147 
        1.99499         33.3753         4.91988 
        2.01064         33.1341         4.82739 
         2.0264         32.6188         4.73669 
        2.04216         32.2351         4.64837 
        2.05781         31.8798         4.56286 
        2.07353         31.6154          4.4792 
        2.08928         31.5529         4.39746 
        2.10499         31.1224         4.31798 
        2.12065         30.6644         4.24071 
        2.13633         30.5406         4.16526 
        2.15211         29.9777         4.09117 
        2.16785         29.6426         4.01908 
        2.18349         29.5098         3.94919 
        2.19916         29.2477         3.88081 
        2.21489         28.7939         3.81383 
        2.23063         28.6003         3.74838 
         2.2463         28.3375         3.68477 
        2.26194         28.0839         3.62279 
        2.27765         27.7906         3.56192 
        2.29341         27.5036         3.50229 
        2.30914         27.3287         3.44416 
        2.32486         26.9097         3.38737 
        2.34061          26.768         3.33177 
        2.35635         26.4636         3.27747 
        2.37203         26.2639         3.22457 
        2.38768         25.9192         3.17295 
        2.40339         25.8361         3.12227 
        2.41914         25.5096         3.07259 
        2.43483         25.2009         3.02416 
         2.4505         24.9852         2.97685 
        2.46622         24.7538          2.9304 
        2.48195         24.5178         2.88493 
        2.49759         24.2874         2.84067 
        2.51328         24.0113         2.79723 
        2.52906         23.8792         2.75442 
        2.54479         23.5526         2.71266 
        2.56049         23.2888         2.67186 
        2.57618           23.06         2.63193 
        2.59189         22.9614         2.59275 
        2.60758         22.7525         2.55444 
        2.62325         22.4515         2.51694 
        2.63898          22.398         2.48007 
        2.65468         22.0678         2.44401 
        2.67044         21.8978         2.40852 
        2.68618         21.6234         2.37381 
        2.70184         21.5038         2.33993 
        2.71755         21.3328         2.30662 
        2.73329         21.0879         2.27392 
        2.74897         20.8199         2.24195 
        2.76462         20.8001         2.21067 
        2.78034         20.5672         2.17985 
        2.79607         20.3606         2.14959 
        2.81179         20.2036         2.11994 
        2.82749          20.006         2.09089 
        2.84321         19.8765         2.06234 
        2.85893         19.6238         2.03434 
        2.87462         19.4286          2.0069 
        2.89033         19.3287         1.97995 
        2.90605         19.2018         1.95347 
        2.92176         18.9018         1.92748 
        2.93747         18.8503         1.90198 
        2.95318         18.5935         1.87694 
        2.96891         18.4688         1.85234 
        2.98456         18.2878         1.82829 
        3.00023         18.1151         1.80462 
        3.01596         18.0279         1.78131 
        3.03164         17.8553         1.75847 
        3.04738         17.6349         1.73597 
         3.0631          17.478         1.71387 
        3.07883         17.3432         1.69215 
        3.09456         17.2127         1.67081 
        3.11026         17.0765         1.64987 
        3.12596           16.89          1.6293 
        3.14163         16.8007         1.60912 
        3.15734         16.5819         1.58923 
        3.17308         16.4643         1.56964 
        3.18879         16.3151         1.55043 
        3.20447         16.1831         1.53157 
         3.2202         16.0166         1.51296 
         3.2359         15.9026         1.49469 
        3.25157         15.7893         1.47678 
        3.26729         15.6823          1.4591 
        3.28304         15.4984         1.44167 
        3.29877         15.3272         1.42455 
        3.31446         15.2078         1.40775 
        3.33014         15.0916         1.39123 
        3.34585         14.9128         1.37496 
        3.36158          14.836         1.35892 
        3.37727         14.6679         1.34318 
        3.39294         14.5331         1.32771 
        3.40867         14.4454         1.31243 
        3.42439         14.3001         1.29739 
        3.44008         14.2234         1.28262 
        3.45578          14.084         1.26807 
        3.47153         13.9935         1.25371 
        3.48724         13.8748          1.2396 
        3.50292         13.7148         1.22574 
        3.51859         13.6512          1.2121 
        3.53431         13.5409         1.19863 
        3.55007         13.4172         1.18532 
        3.56577         13.3059         1.17227 
        3.58146         13.2171         1.15942 
        3.59719         13.0538         1.14674 
        3.61292         12.9749         1.13425 
        3.62859         12.8432         1.12199 
        3.64429         12.7448         1.10989 
        3.66003          12.654         1.09793 
        3.67578         12.5847         1.08615 
        3.69146         12.4446         1.07459 
        3.70712         12.3335         1.06322 
        3.72284         12.2494         1.05197 
        3.73853         12.1006          1.0409 
        3.75422         12.0464         1.02999 
        3.76993         11.9662         1.01923 
        3.78564         11.8226         1.00862 
        3.80137         11.7423        0.998146 
        3.81707         11.6443        0.987843 
        3.83279         11.5346        0.977677 
        3.84853         11.4635        0.967638 
        3.86424         11.3149         0.95776 
        3.87992          11.274        0.948033 
        3.89561          11.181        0.938442 
        3.91134         11.1114        0.928963 
        3.92704         10.9763        0.919626 
        3.94273         10.9055        0.910427 
        3.95845         10.8366        0.901337 
        3.97418         10.7492        0.892369 
        3.98988         10.6343        0.883535 
        4.00554         10.5936        0.874844 
        4.02125         10.4457        0.866246 
        4.03698          10.413         0.85775 
        4.05268         10.3088        0.849387 
        4.06839          10.227        0.841129 
         4.0841         10.1507        0.832983 
        4.09983         10.0669        0.824934 
        4.11555         9.98023        0.816995 
        4.13124         9.90265        0.809181 
        4.14693         9.83051        0.801463 
        4.16266         9.76258        0.793828 
        4.17839         9.66501        0.786297 
        4.19408            9.61        0.778881 
        4.20977         9.52094        0.771557 
        4.22551         9.46892         0.76431 
        4.24123          9.3921        0.757163 
        4.25691         9.31538        0.750127 
        4.27259         9.21569        0.743178 
        4.28831         9.16335        0.736303 
        4.30404         9.09194        0.729509 
        4.31974         9.04077        0.722815 
        4.33543         8.94024        0.716208 
        4.35116         8.87713        0.709669 
        4.36688         8.81047        0.703213 
        4.38255         8.74386        0.696862 
        4.39825         8.67038        0.690576 
        4.41398         8.61598        0.684354 
         4.4297          8.5458        0.678216 
        4.44541         8.49039        0.672154 
        4.46111         8.42057        0.666171 
        4.47683         8.36206        0.660256 
        4.49251         8.28421        0.654425 
        4.50819          8.2201        0.648666 
         4.5239         8.17989        0.642968 
        4.53962         8.11202        0.637331 
        4.55535         8.03583        0.631759 
        4.57106         7.97757        0.626261 
        4.58678         7.91036        0.620828 
         4.6025         7.84516        0.615458 
        4.61821         7.81108        0.610153 
        4.63391         7.76735        0.604916 
         4.6496         7.68907        0.599743 
        4.66532         7.63319        0.594623 
        4.68103         7.55678        0.589565 
        4.69673          7.5159         0.58457 
        4.71241         7.46744        0.579638 
        4.72811         7.39304        0.574755 
        4.74384         7.35034        0.569922 
        4.75955           7.298        0.565152 
        4.77525         7.23843        0.560439 
        4.79096         7.19105        0.555774 
        4.80669         7.13761         0.55116 
         4.8224         7.09029        0.546603 
        4.83809          7.0126        0.542102 
        4.85379         6.96209         0.53765 
         4.8695         6.92411        0.533244 
        4.88521         6.88129        0.528889 
        4.90093         6.81844        0.524582 
        4.91663         6.76576        0.520327 
        4.93234         6.72712        0.516114 
        4.94807         6.67094        0.511946 
        4.96377         6.63554        0.507831 
        4.97943         6.58393         0.50377 
        4.99514         6.52853        0.499743 
        5.01086         6.48445        0.495757 
        5.02654          6.4353        0.491824 
        5.04227         6.39276        0.487923 
          5.058         6.36352        0.484062 
        5.07371         6.31613         0.48025 
        5.08942         6.26208        0.476479 
        5.10513         6.21531        0.472748 
        5.12084         6.16913        0.469054 
        5.13656         6.13073        0.465402 
        5.15225         6.09604        0.461794 
        5.16796         6.04767        0.458218 
        5.18369         6.00231        0.454677 
         5.1994         5.96439         0.45118 
        5.21509         5.91761        0.447723 
        5.23079         5.87956        0.444298 
        5.24649         5.84483        0.440912 
        5.26217         5.80413        0.437563 
        5.27788         5.75705        0.434244 
        5.29359         5.71849        0.430959 
        5.30933         5.68863        0.427703 
        5.32504          5.6443        0.424486 
        5.34073         5.60305        0.421306 
        5.35646         5.56458        0.418152 
        5.37218         5.51807         0.41503 
        5.38789         5.50166        0.411944 
        5.40357         5.45196        0.408894 
        5.41929         5.42033        0.405867 
        5.43502         5.37842        0.402871 
         5.4507         5.34243        0.399912 
        5.46639         5.29619        0.396983 
        5.48212          5.2537        0.394076 
        5.49786         5.24383        0.391194 
        5.51353         5.19197        0.388356 
        5.52921         5.16458        0.385543 
        5.54495         5.12945        0.382749 
        5.56066         5.09562        0.379987 
        5.57637         5.06159        0.377252 
        5.59207         5.02043        0.374546 
        5.60778         4.99697        0.371865 
        5.62346         4.96302        0.369215 
        5.63916         4.93183        0.366588 
        5.65487         4.88703        0.363985 
         5.6706         4.86906        0.361404 
        5.68633         4.82912        0.358848 
        5.70203         4.79904        0.356321 
        5.71773         4.77151        0.353819 
        5.73344         4.73782         0.35134 
        5.74916         4.71513        0.348882 
        5.76486         4.67801        0.346451 
        5.78054         4.64595        0.344047 
        5.79626         4.60858        0.341659 
          5.812         4.58996        0.339291 
         5.8277         4.54919        0.336953 
        5.84339         4.53956        0.334636 
        5.85911         4.51367        0.332337 
        5.87484         4.47088         0.33006 
        5.89053         4.44902        0.327809 
        5.90623         4.42481        0.325578 
        5.92195         4.38208        0.323363 
        5.93767         4.36072        0.321171 
        5.95336         4.33799        0.319002 
        5.96905         4.30427        0.316854 
        5.98476          4.2801        0.314723 
        6.00048         4.24424        0.312611 
        6.01617         4.22745        0.310521 
        6.03185         4.19951        0.308452 
        6.04756         4.17435        0.306398 
        6.06331         4.14942        0.304358 
        6.07903         4.11984         0.30234 
        6.09473         4.09283        0.300343 
        6.11044         4.06591        0.298362 
        6.12616         4.05692        0.296399 
        6.14186          4.0188        0.294456 
        6.15755         4.00021         0.29253 
        6.17326         3.97997         0.29062 
        6.18898         3.95184        0.288726 
        6.20467         3.92711        0.286853 
        6.22036         3.90659        0.284996 
         6.2361         3.87684        0.283151 
         6.2518         3.86295        0.281325 
        6.26748         3.83565        0.279519 
        6.28319         3.80963        0.277723 
        6.29893         3.78583        0.275943 
        6.31463         3.76562         0.27418 
        6.33033         3.73944        0.272434 
        6.34604         3.71533        0.270701 
        6.36177         3.69345        0.268983 
        6.37747         3.67589        0.267282 
