# k  (h/Mpc)    Pcb(k)  (Mpc/h)^3    Pcb_linear(k) (Mpc/h)^3   ShotnoiseSubtracted = true
      0.0200456         4047.94         4111.93 
      0.0350414         2944.51         2989.24 
      0.0492313         2171.85         2171.92 
      0.0637834         1832.35          1805.5 
      0.0800726         1452.42         1432.98 
       0.096163         1029.32         1039.75 
       0.111083         816.389         829.333 
       0.126058         743.136         734.957 
       0.142273         637.707         622.671 
       0.158546         514.102         491.779 
        0.17375         419.547         414.324 
       0.188953         393.525         375.161 
       0.204907         365.131         331.941 
       0.220756         304.938         280.842 
        0.23588         266.126         244.308 
         0.2514         236.282         221.951 
       0.267535         220.819         200.828 
       0.283568         198.713         177.103 
       0.299022         181.545          157.79 
       0.314451         163.954         144.209 
       0.330372         152.392         132.296 
       0.346141          137.62         120.079 
       0.361624         129.129         109.135 
       0.377134         121.534         100.421 
       0.392932          108.98          92.918 
       0.408854         104.834         85.6524 
       0.424564         99.8446         78.9471 
       0.440253         92.5421         73.1931 
       0.455999         87.1325         68.1898 
       0.471626         80.9447         63.5917 
        0.48727         78.0009         59.2906 
       0.502856         73.7919         55.4266 
       0.518488         70.8517          51.979 
       0.534347         68.0551         48.7739 
       0.550082         62.4956         45.8186 
       0.565732          59.089         43.1149 
       0.581496         57.3495         40.6387 
       0.597222         55.4777         38.3678 
       0.612804         52.1335         36.2796 
       0.628434         50.6244         34.3332 
       0.644267         49.2131         32.5135 
       0.660051         47.1344         30.8363 
       0.675724         44.8702         29.2877 
       0.691403         43.5008         27.8441 
       0.707174         42.1968         26.4897 
       0.722871         40.6089         25.2307 
        0.73838         39.3823         24.0671 
       0.754018         37.6103          22.968 
       0.769845          36.668         21.9257 
        0.78569         35.5716         20.9471 
       0.801365          34.287          20.038 
       0.817031         33.5048         19.1837 
       0.832809         32.8568          18.374 
       0.848511         30.9571          17.615 
       0.864097          30.426         16.9042 
       0.879701         29.7875         16.2321 
       0.895507         29.1824         15.5889 
       0.911279         28.2375         14.9819 
        0.92691         27.5666         14.4125 
       0.942635         26.5326         13.8697 
       0.958396         26.1597         13.3538 
       0.974128         25.3617         12.8652 
       0.989692         25.0858         12.4059 
        1.00528         24.4936         11.9685 
        1.02113          23.556         11.5454 
        1.03692         23.0908         11.1445 
        1.05264         22.6937         10.7644 
        1.06832         22.1407         10.4028 
        1.08405           21.62         10.0569 
        1.09979         21.1874         9.72658 
        1.11537          20.743         9.41442 
        1.13105         20.4574         9.11415 
        1.14679         20.1673         8.82588 
        1.16256         19.4378         8.54955 
        1.17828         19.3751         8.28601 
        1.19395         18.7597         8.03451 
         1.2097         18.6086         7.79221 
        1.22537         18.1497          7.5611 
          1.241         17.8502         7.34009 
        1.25666         17.4037          7.1274 
        1.27241         17.0872         6.92217 
        1.28819         16.7495         6.72471 
        1.30392         16.6179         6.53554 
        1.31957         16.4011         6.35452 
        1.33529         16.1252         6.17971 
        1.35108         15.7436          6.0108 
        1.36674         15.5657         5.84944 
         1.3824         15.2131         5.69416 
        1.39811         14.9934         5.54403 
        1.41389         14.8347         5.39874 
        1.42964         14.6188         5.25893 
        1.44531         14.4767         5.12476 
        1.46101          14.062           4.995 
        1.47667         13.9172         4.87013 
        1.49229         13.7457         4.74988 
        1.50793         13.5485         4.63356 
        1.52367         13.3432          4.5204 
        1.53953         13.1705         4.41026 
        1.55526          12.966         4.30469 
        1.57092         12.7705         4.20301 
        1.58662         12.6523         4.10439 
        1.60235          12.444         4.00875 
        1.61809         12.3002         3.91611 
        1.63369         12.1299         3.82723 
        1.64941         11.9219         3.74048 
        1.66519         11.8498         3.65611 
        1.68085         11.6593         3.57495 
        1.69652         11.5037         3.49623 
        1.71228         11.3467         3.41944 
        1.72806         11.2854         3.34491 
        1.74368         11.0845         3.27334 
        1.75933         10.9725         3.20374 
        1.77505         10.8372         3.13583 
        1.79081         10.6581         3.06977 
         1.8065         10.5955         3.00591 
        1.82218         10.4015         2.94392 
        1.83797         10.3278         2.88326 
        1.85367         10.1775         2.82464 
        1.86928         10.1667         2.76801 
        1.88497         9.93228         2.71263 
        1.90073         9.90802         2.65856 
        1.91647         9.80474         2.60601 
        1.93218         9.70901           2.555 
        1.94787         9.55759         2.50543 
        1.96363         9.49475         2.45698 
        1.97935         9.33795         2.40992 
        1.99499         9.22019         2.36435 
        2.01064         9.14299          2.3199 
         2.0264         9.06736         2.27631 
        2.04216         8.95952         2.23387 
        2.05781         8.83368         2.19278 
        2.07353         8.78663         2.15257 
        2.08928         8.69534         2.11329 
        2.10499         8.64751         2.07509 
        2.12065         8.50637         2.03796 
        2.13633         8.48489          2.0017 
        2.15211         8.34636         1.96609 
        2.16785         8.29197         1.93145 
        2.18349         8.22793         1.89786 
        2.19916         8.13423           1.865 
        2.21489         8.03908         1.83281 
        2.23063         7.97209         1.80136 
         2.2463         7.87518         1.77079 
        2.26194         7.79613           1.741 
        2.27765         7.76765         1.71175 
        2.29341         7.68136          1.6831 
        2.30914         7.57556         1.65516 
        2.32486         7.50348         1.62787 
        2.34061         7.45757         1.60115 
        2.35635         7.42113         1.57506 
        2.37203          7.3385         1.54963 
        2.38768         7.23185         1.52483 
        2.40339         7.20416         1.50047 
        2.41914         7.09632         1.47659 
        2.43483         7.08536         1.45332 
         2.4505         7.01463         1.43059 
        2.46622         6.94969         1.40826 
        2.48195         6.87359         1.38641 
        2.49759          6.8484         1.36514 
        2.51328         6.76607         1.34426 
        2.52906         6.73853         1.32369 
        2.54479         6.65921         1.30363 
        2.56049         6.61809         1.28402 
        2.57618         6.56512         1.26483 
        2.59189          6.4749           1.246 
        2.60758         6.46476         1.22759 
        2.62325         6.38763         1.20957 
        2.63898         6.31063         1.19185 
        2.65468         6.25837         1.17452 
        2.67044         6.22693         1.15746 
        2.68618         6.18801         1.14078 
        2.70184         6.12605          1.1245 
        2.71755         6.06719         1.10849 
        2.73329         6.03629         1.09278 
        2.74897          6.0029         1.07741 
        2.76462         5.95926         1.06238 
        2.78034         5.88148         1.04757 
        2.79607         5.84463         1.03303 
        2.81179         5.81732         1.01878 
        2.82749         5.74744         1.00482 
        2.84321         5.75432          0.9911 
        2.85893         5.69057        0.977642 
        2.87462         5.62039        0.964458 
        2.89033         5.58483        0.951504 
        2.90605         5.53871        0.938778 
        2.92176         5.48553         0.92629 
        2.93747         5.45257        0.914037 
        2.95318         5.43022        0.902002 
        2.96891         5.37559        0.890178 
        2.98456         5.34084        0.878619 
        3.00023         5.28181        0.867249 
        3.01596         5.25409        0.856044 
        3.03164         5.23627        0.845069 
        3.04738         5.19515        0.834255 
         3.0631         5.14381        0.823633 
        3.07883         5.10598        0.813196 
        3.09456         5.07321        0.802941 
        3.11026         5.05339        0.792879 
        3.12596         5.00814        0.782991 
        3.14163         4.95714        0.773294 
        3.15734         4.92522        0.763739 
        3.17308         4.90138        0.754322 
        3.18879         4.85488        0.745089 
        3.20447         4.84265        0.736025 
         3.2202         4.78007        0.727083 
         3.2359         4.77051        0.718306 
        3.25157         4.71787        0.709694 
        3.26729         4.70758        0.701198 
        3.28304         4.66281        0.692824 
        3.29877         4.62452        0.684597 
        3.31446          4.5896        0.676523 
        3.33014         4.57328        0.668585 
        3.34585         4.54011        0.660763 
        3.36158          4.5159        0.653054 
        3.37727         4.47976        0.645492 
        3.39294         4.46526        0.638057 
        3.40867         4.41282        0.630713 
        3.42439         4.39361        0.623488 
        3.44008         4.35827         0.61639 
        3.45578         4.32628        0.609397 
        3.47153         4.30171        0.602497 
        3.48724         4.27615        0.595717 
        3.50292         4.25272        0.589056 
        3.51859          4.2189          0.5825 
        3.53431          4.1785        0.576024 
        3.55007         4.17056        0.569631 
        3.56577         4.14946        0.563359 
        3.58146         4.12021        0.557185 
        3.59719         4.09313        0.551089 
        3.61292         4.06767        0.545086 
        3.62859         4.02719        0.539195 
        3.64429         4.00435         0.53338 
        3.66003         3.98945        0.527633 
        3.67578          3.9621        0.521973 
        3.69146         3.92299        0.516417 
        3.70712         3.91024        0.510952 
        3.72284         3.88133        0.505546 
        3.73853         3.86525        0.500227 
        3.75422         3.83507        0.494983 
        3.76993         3.80633         0.48981 
        3.78564         3.78859        0.484712 
        3.80137         3.77175        0.479679 
        3.81707         3.73708        0.474728 
        3.83279         3.71639        0.469843 
        3.84853         3.68207        0.465018 
        3.86424         3.66597        0.460271 
        3.87992         3.64291        0.455597 
        3.89561         3.63065        0.450987 
        3.91134         3.59805        0.446432 
        3.92704         3.57578        0.441945 
        3.94273         3.55503        0.437524 
        3.95845          3.5377        0.433156 
        3.97418         3.51142        0.428846 
        3.98988         3.49234          0.4246 
        4.00554         3.46498        0.420424 
        4.02125         3.43347        0.416292 
        4.03698         3.41958        0.412209 
        4.05268         3.39204         0.40819 
        4.06839          3.3846        0.404221 
         4.0841         3.35305        0.400307 
        4.09983         3.32894        0.396439 
        4.11555         3.31116        0.392623 
        4.13124         3.29054        0.388868 
        4.14693         3.26618        0.385159 
        4.16266         3.24973         0.38149 
        4.17839         3.23019        0.377871 
        4.19408          3.1999        0.374307 
        4.20977         3.18538        0.370787 
        4.22551         3.15892        0.367304 
        4.24123         3.14262         0.36387 
        4.25691         3.12286        0.360489 
        4.27259         3.11354        0.357149 
        4.28831         3.08637        0.353845 
        4.30404         3.06605         0.35058 
        4.31974         3.05262        0.347363 
        4.33543         3.03077        0.344188 
        4.35116         3.00748        0.341046 
        4.36688         3.00046        0.337943 
        4.38255         2.97553        0.334891 
        4.39825         2.96226         0.33187 
        4.41398          2.9492         0.32888 
         4.4297         2.92594         0.32593 
        4.44541         2.90877        0.323017 
        4.46111         2.89259        0.320142 
        4.47683         2.86471        0.317299 
        4.49251         2.85767        0.314497 
        4.50819         2.83935        0.311729 
         4.5239         2.82419        0.308991 
        4.53962         2.80955        0.306282 
        4.55535         2.79575        0.303604 
        4.57106         2.78012        0.300963 
        4.58678         2.76004        0.298352 
         4.6025         2.74433        0.295771 
        4.61821         2.73182        0.293221 
        4.63391         2.71667        0.290705 
         4.6496         2.70093        0.288219 
        4.66532         2.67286        0.285758 
        4.68103         2.66738        0.283327 
        4.69673         2.65032        0.280927 
        4.71241         2.63124        0.278557 
        4.72811         2.62247         0.27621 
        4.74384         2.61049        0.273888 
        4.75955         2.59725        0.271595 
        4.77525         2.58435         0.26933 
        4.79096         2.56248        0.267088 
        4.80669          2.5528        0.264871 
         4.8224         2.54639        0.262681 
        4.83809         2.52592        0.260518 
        4.85379         2.51403        0.258379 
         4.8695         2.49928        0.256261 
        4.88521         2.48361        0.254168 
        4.90093          2.4669        0.252099 
        4.91663          2.4544        0.250054 
        4.93234         2.44165        0.248029 
        4.94807         2.43029        0.246026 
        4.96377         2.41288        0.244048 
        4.97943         2.40497        0.242097 
        4.99514           2.389        0.240161 
        5.01086         2.37118        0.238246 
        5.02654         2.36442        0.236356 
        5.04227         2.35624        0.234481 
          5.058         2.34304        0.232626 
        5.07371         2.32738        0.230794 
        5.08942         2.31838        0.228981 
        5.10513         2.30415        0.227188 
        5.12084         2.29717        0.225414 
        5.13656          2.2822        0.223658 
        5.15225         2.26807        0.221924 
        5.16796         2.25239        0.220206 
        5.18369          2.2444        0.218504 
         5.1994         2.23705        0.216824 
        5.21509         2.22168        0.215162 
        5.23079         2.21262        0.213517 
        5.24649         2.19962        0.211889 
        5.26217         2.19366         0.21028 
        5.27788          2.1739        0.208685 
        5.29359         2.16997        0.207106 
        5.30933            2.16        0.205541 
        5.32504         2.14479        0.203996 
        5.34073         2.13616        0.202467 
        5.35646         2.12359        0.200952 
        5.37218         2.11145        0.199451 
        5.38789         2.10976        0.197968 
        5.40357         2.09678        0.196502 
        5.41929         2.08726        0.195048 
        5.43502         2.07665        0.193608 
         5.4507         2.06638        0.192186 
        5.46639           2.058        0.190778 
        5.48212         2.04699        0.189381 
        5.49786          2.0416        0.187996 
        5.51353         2.02428        0.186632 
        5.52921         2.01736         0.18528 
        5.54495         2.00899        0.183938 
        5.56066         2.00142         0.18261 
        5.57637         1.99033        0.181296 
        5.59207         1.98281        0.179996 
        5.60778         1.97473        0.178707 
        5.62346         1.96478        0.177434 
        5.63916         1.95053        0.176171 
        5.65487         1.94231         0.17492 
         5.6706         1.93794         0.17368 
        5.68633         1.92349        0.172451 
        5.70203         1.91669        0.171237 
        5.71773         1.91089        0.170035 
        5.73344         1.89925        0.168843 
        5.74916         1.88746        0.167662 
        5.76486         1.88445        0.166494 
        5.78054         1.87486        0.165339 
        5.79626         1.86346        0.164191 
          5.812         1.85767        0.163053 
         5.8277         1.84694        0.161929 
        5.84339         1.84165        0.160816 
        5.85911         1.83196        0.159711 
        5.87484         1.82632        0.158617 
        5.89053         1.81587        0.157535 
        5.90623         1.80658        0.156463 
        5.92195         1.79962        0.155399 
        5.93767         1.79237        0.154345 
        5.95336         1.78281        0.153303 
        5.96905         1.77665        0.152271 
        5.98476         1.76634        0.151247 
        6.00048         1.75844        0.150231 
        6.01617         1.75451        0.149227 
        6.03185          1.7466        0.148233 
        6.04756         1.73744        0.147246 
        6.06331         1.72978        0.146265 
        6.07903         1.72334        0.145296 
        6.09473         1.72083        0.144336 
        6.11044         1.70819        0.143384 
        6.12616         1.70067        0.142441 
        6.14186         1.69342        0.141507 
        6.15755         1.68713        0.140581 
        6.17326         1.68015        0.139663 
        6.18898         1.67389        0.138753 
        6.20467         1.66697        0.137853 
        6.22036         1.65767        0.136961 
         6.2361          1.6522        0.136074 
         6.2518         1.64586        0.135196 
        6.26748         1.63734        0.134328 
        6.28319         1.63207        0.133466 
        6.29893         1.62843         0.13261 
        6.31463         1.61774        0.131763 
        6.33033         1.61061        0.130924 
        6.34604         1.60347        0.130091 
        6.36177          1.5997        0.129265 
        6.37747         1.59288        0.128448 
