# k  (h/Mpc)    Pcb(k)  (Mpc/h)^3    Pcb_linear(k) (Mpc/h)^3   ShotnoiseSubtracted = true
      0.0200456         198.159         200.716 
      0.0350414          142.44         142.352 
      0.0492313         101.538         101.056 
      0.0637834         83.2829         82.9232 
      0.0800726         65.9834         65.8668 
       0.096163         47.5344         47.4589 
       0.111083         37.1537         37.1311 
       0.126058         32.6918         32.6418 
       0.142273         27.9543         27.9244 
       0.158546         22.1422         22.0201 
        0.17375         18.2245         18.2196 
       0.188953         16.3951         16.3704 
       0.204907         14.7804         14.6164 
       0.220756         12.4698          12.399 
        0.23588         10.7251         10.6522 
         0.2514         9.60683         9.58875 
       0.267535         8.73194         8.71753 
       0.283568         7.75065         7.71929 
       0.299022         6.88325         6.82896 
       0.314451         6.17712         6.19288 
       0.330372         5.69452         5.68579 
       0.346141         5.18619         5.17664 
       0.361624          4.7169          4.6907 
       0.377134         4.33386         4.29205 
       0.392932         3.93076         3.96508 
       0.408854         3.68904         3.66026 
       0.424564         3.37774         3.37034 
       0.440253         3.12566         3.11352 
       0.455999         2.91998         2.89488 
       0.471626         2.73116         2.69964 
        0.48727         2.52926         2.51535 
       0.502856         2.35304         2.34704 
       0.518488         2.22729         2.19677 
       0.534347         2.10083         2.05969 
       0.550082         1.94246         1.93362 
       0.565732         1.80536          1.8174 
       0.581496         1.72678         1.71049 
       0.597222         1.63299          1.6133 
       0.612804         1.53473         1.52424 
       0.628434         1.46372         1.44122 
       0.644267         1.37759         1.36328 
       0.660051         1.30087         1.29159 
       0.675724         1.23854         1.22567 
       0.691403         1.18173         1.16428 
       0.707174         1.11866         1.10672 
       0.722871          1.0594         1.05325 
        0.73838         1.01782         1.00386 
       0.754018        0.976588        0.957251 
       0.769845        0.927807        0.913073 
        0.78569        0.884578        0.871628 
       0.801365        0.843827        0.833154 
       0.817031        0.809122        0.797025 
       0.832809         0.77436        0.762809 
       0.848511        0.739367        0.730758 
       0.864097        0.705533        0.700771 
       0.879701        0.676828        0.672442 
       0.895507        0.654875        0.645347 
       0.911279        0.630041        0.619803 
        0.92691         0.60374        0.595854 
       0.942635         0.58103         0.57304 
       0.958396        0.557063        0.551374 
       0.974128        0.536324        0.530868 
       0.989692        0.518961        0.511608 
        1.00528        0.500976        0.493276 
        1.02113        0.478675        0.475555 
        1.03692         0.46508         0.45877 
        1.05264        0.448861        0.442872 
        1.06832         0.43402        0.427752 
        1.08405        0.416322        0.413298 
        1.09979        0.402727        0.399503 
        1.11537        0.392756        0.386474 
        1.13105        0.379557        0.373948 
        1.14679        0.369141        0.361929 
        1.16256        0.353612        0.350414 
        1.17828        0.342814        0.339439 
        1.19395        0.331489         0.32897 
         1.2097        0.320269        0.318889 
        1.22537         0.31377        0.309279 
          1.241        0.303486        0.300094 
        1.25666        0.296288        0.291258 
        1.27241        0.285516        0.282737 
        1.28819        0.277199        0.274543 
        1.30392        0.269594        0.266697 
        1.31957        0.262402        0.259192 
        1.33529        0.254127        0.251948 
        1.35108        0.247041        0.244952 
        1.36674        0.238334        0.238272 
         1.3824        0.235101        0.231846 
        1.39811        0.227309        0.225636 
        1.41389        0.221643         0.21963 
        1.42964        0.216689        0.213852 
        1.44531        0.209154         0.20831 
        1.46101        0.204771        0.202952 
        1.47667        0.197839        0.197799 
        1.49229        0.194201        0.192838 
        1.50793        0.188314        0.188041 
        1.52367        0.184244        0.183377 
        1.53953        0.179922        0.178839 
        1.55526        0.175601        0.174491 
        1.57092        0.170058        0.170305 
        1.58662        0.166901        0.166246 
        1.60235        0.163435        0.162311 
        1.61809        0.157975        0.158502 
        1.63369        0.155926        0.154848 
        1.64941        0.151787        0.151283 
        1.66519        0.147775        0.147818 
        1.68085        0.144088        0.144485 
        1.69652        0.140744        0.141254 
        1.71228        0.138517        0.138103 
        1.72806        0.134114        0.135046 
        1.74368        0.132179        0.132112 
        1.75933         0.12908        0.129259 
        1.77505        0.125994        0.126476 
        1.79081        0.123845        0.123771 
         1.8065        0.120169        0.121156 
        1.82218        0.118158        0.118619 
        1.83797        0.115361        0.116137 
        1.85367        0.113069        0.113739 
        1.86928        0.110954        0.111423 
        1.88497         0.10881         0.10916 
        1.90073        0.106206         0.10695 
        1.91647        0.103947        0.104803 
        1.93218        0.101682         0.10272 
        1.94787       0.0995604        0.100697 
        1.96363       0.0978757       0.0987194 
        1.97935       0.0954101       0.0967992 
        1.99499       0.0938843       0.0949408 
        2.01064       0.0921931       0.0931284 
         2.0264       0.0902826       0.0913518 
        2.04216       0.0887568       0.0896222 
        2.05781       0.0869113       0.0879483 
        2.07353       0.0847024       0.0863111 
        2.08928       0.0832334       0.0847118 
        2.10499       0.0815218       0.0831573 
        2.12065       0.0804604       0.0816463 
        2.13633        0.078453       0.0801715 
        2.15211       0.0776331       0.0787235 
        2.16785       0.0758966       0.0773152 
        2.18349       0.0740995       0.0759501 
        2.19916        0.073452        0.074615 
        2.21489       0.0720847       0.0733075 
        2.23063       0.0706756       0.0720303 
         2.2463       0.0691755       0.0707893 
        2.26194       0.0678566       0.0695804 
        2.27765       0.0666571       0.0683936 
        2.29341       0.0658157       0.0672312 
        2.30914       0.0643229       0.0660982 
        2.32486       0.0632485       0.0649918 
        2.34061       0.0622925       0.0639089 
        2.35635       0.0610436       0.0628515 
        2.37203       0.0601146       0.0618217 
        2.38768       0.0589969        0.060817 
        2.40339        0.057997       0.0598309 
        2.41914       0.0572963       0.0588643 
        2.43483       0.0559924       0.0579224 
         2.4505       0.0549807       0.0570026 
        2.46622       0.0541122       0.0560996 
        2.48195       0.0531499        0.055216 
        2.49759       0.0526417       0.0543561 
        2.51328        0.051846       0.0535123 
        2.52906       0.0508426       0.0526809 
        2.54479       0.0499602       0.0518703 
        2.56049       0.0491691       0.0510782 
        2.57618       0.0484228       0.0503033 
        2.59189       0.0476536       0.0495433 
        2.60758       0.0470819       0.0488001 
        2.62325       0.0461968        0.048073 
        2.63898       0.0454772       0.0473581 
        2.65468       0.0445838       0.0466592 
        2.67044       0.0441981       0.0459714 
        2.68618       0.0434172        0.045299 
        2.70184       0.0426814       0.0446427 
        2.71755       0.0419181       0.0439977 
        2.73329       0.0414085       0.0433644 
        2.74897       0.0409107       0.0427456 
        2.76462       0.0401559       0.0421402 
        2.78034       0.0396185        0.041544 
        2.79607       0.0390326       0.0409587 
        2.81179       0.0384798       0.0403853 
        2.82749       0.0378201       0.0398234 
        2.84321       0.0373683       0.0392716 
        2.85893       0.0368026       0.0387304 
        2.87462       0.0364638       0.0382002 
        2.89033       0.0358005       0.0376795 
        2.90605       0.0351702       0.0371679 
        2.92176       0.0348651       0.0366661 
        2.93747       0.0342709       0.0361738 
        2.95318       0.0336994       0.0356904 
        2.96891       0.0333423       0.0352156 
        2.98456       0.0329598       0.0347515 
        3.00023       0.0323742        0.034295 
        3.01596       0.0319136       0.0338453 
        3.03164       0.0316444       0.0334049 
        3.04738       0.0311233        0.032971 
         3.0631       0.0305925        0.032545 
        3.07883       0.0301822       0.0321264 
        3.09456       0.0299498       0.0317152 
        3.11026        0.029474       0.0313119 
        3.12596        0.029207       0.0309155 
        3.14163       0.0287403        0.030527 
        3.15734       0.0284146       0.0301441 
        3.17308       0.0279875       0.0297669 
        3.18879       0.0275632       0.0293971 
        3.20447       0.0273437       0.0290342 
         3.2202       0.0269706       0.0286762 
         3.2359       0.0266995       0.0283249 
        3.25157       0.0262355       0.0279802 
        3.26729        0.025953       0.0276403 
        3.28304       0.0256597       0.0273053 
        3.29877       0.0253573       0.0269763 
        3.31446       0.0249969       0.0266533 
        3.33014       0.0247181        0.026336 
        3.34585       0.0244213       0.0260233 
        3.36158       0.0240575       0.0257152 
        3.37727       0.0238707        0.025413 
        3.39294       0.0236051       0.0251159 
        3.40867       0.0232794       0.0248225 
        3.42439       0.0230381        0.024534 
        3.44008       0.0227679       0.0242505 
        3.45578       0.0225658       0.0239713 
        3.47153       0.0222474       0.0236959 
        3.48724        0.022153       0.0234253 
        3.50292       0.0217254       0.0231595 
        3.51859       0.0214583       0.0228979 
        3.53431       0.0213294       0.0226396 
        3.55007       0.0210791       0.0223846 
        3.56577       0.0209063       0.0221345 
        3.58146       0.0205712       0.0218883 
        3.59719       0.0204525       0.0216453 
        3.61292       0.0201301        0.021406 
        3.62859       0.0199363       0.0211713 
        3.64429       0.0197958       0.0209396 
        3.66003       0.0195362       0.0207106 
        3.67578        0.019366       0.0204852 
        3.69146       0.0191976       0.0202639 
        3.70712       0.0190373       0.0200463 
        3.72284        0.018801        0.019831 
        3.73853       0.0185857       0.0196193 
        3.75422         0.01849       0.0194106 
        3.76993       0.0182339       0.0192048 
        3.78564       0.0181029       0.0190019 
        3.80137       0.0179015       0.0188017 
        3.81707       0.0176778       0.0186048 
        3.83279       0.0175719       0.0184105 
        3.84853       0.0174163       0.0182187 
        3.86424       0.0172418       0.0180299 
        3.87992       0.0170968       0.0178442 
        3.89561        0.016956        0.017661 
        3.91134       0.0168124         0.01748 
        3.92704       0.0165871       0.0173017 
        3.94273       0.0164566       0.0171261 
        3.95845         0.01633       0.0169526 
        3.97418       0.0162077       0.0167814 
        3.98988       0.0160197       0.0166128 
        4.00554       0.0158436        0.016447 
        4.02125        0.015661        0.016283 
        4.03698       0.0155113       0.0161209 
        4.05268       0.0153018       0.0159615 
        4.06839       0.0150893        0.015804 
         4.0841       0.0149052       0.0156487 
        4.09983       0.0146922       0.0154953 
        4.11555       0.0145797        0.015344 
        4.13124        0.014388       0.0151951 
        4.14693       0.0141537        0.015048 
        4.16266       0.0140011       0.0149026 
        4.17839       0.0138584       0.0147591 
        4.19408       0.0137358       0.0146178 
        4.20977       0.0135671       0.0144784 
        4.22551       0.0133879       0.0143404 
        4.24123       0.0132658       0.0142043 
        4.25691       0.0131397       0.0140704 
        4.27259       0.0130188       0.0139382 
        4.28831       0.0129533       0.0138073 
        4.30404       0.0128056       0.0136781 
        4.31974       0.0126697       0.0135507 
        4.33543       0.0125855        0.013425 
        4.35116       0.0124808       0.0133007 
        4.36688       0.0123917       0.0131779 
        4.38255        0.012291       0.0130572 
        4.39825       0.0122518       0.0129376 
        4.41398       0.0122084       0.0128194 
         4.4297       0.0121076       0.0127027 
        4.44541        0.012046       0.0125875 
        4.46111       0.0119634       0.0124738 
        4.47683       0.0119361       0.0123615 
        4.49251       0.0118619       0.0122507 
        4.50819       0.0118214       0.0121413 
         4.5239       0.0117755       0.0120331 
        4.53962       0.0117767       0.0119261 
        4.55535       0.0117511       0.0118203 
        4.57106       0.0117574       0.0117159 
        4.58678       0.0116996       0.0116128 
         4.6025       0.0117171       0.0115109 
        4.61821       0.0117386       0.0114102 
        4.63391       0.0117069       0.0113109 
         4.6496       0.0116851       0.0112127 
        4.66532       0.0116992       0.0111156 
        4.68103       0.0117212       0.0110197 
        4.69673        0.011741        0.010925 
        4.71241       0.0118076       0.0108314 
        4.72811       0.0117987       0.0107389 
        4.74384       0.0118209       0.0106472 
        4.75955        0.011904       0.0105568 
        4.77525       0.0119615       0.0104675 
        4.79096       0.0120234       0.0103791 
        4.80669       0.0120158       0.0102917 
         4.8224       0.0121532       0.0102054 
        4.83809       0.0121733       0.0101201 
        4.85379       0.0122928       0.0100358 
         4.8695       0.0123153      0.00995235 
        4.88521       0.0124021      0.00986989 
        4.90093       0.0125441      0.00978834 
        4.91663       0.0126659      0.00970779 
        4.93234       0.0127206      0.00962806 
        4.94807       0.0128212      0.00954916 
        4.96377        0.012944      0.00947129 
        4.97943       0.0130971      0.00939445 
        4.99514       0.0132074      0.00931826 
        5.01086       0.0132809      0.00924286 
        5.02654       0.0134956      0.00916847 
        5.04227       0.0136079      0.00909469 
          5.058       0.0137577      0.00902167 
        5.07371       0.0139305       0.0089496 
        5.08942       0.0142122      0.00887831 
        5.10513       0.0143294      0.00880777 
        5.12084       0.0144029      0.00873797 
        5.13656       0.0146556      0.00866894 
        5.15225       0.0148438      0.00860076 
        5.16796       0.0151446       0.0085332 
        5.18369       0.0152616      0.00846631 
         5.1994       0.0154808      0.00840025 
        5.21509       0.0157116      0.00833495 
        5.23079       0.0158751      0.00827026 
        5.24649       0.0161549      0.00820631 
        5.26217       0.0164255      0.00814308 
        5.27788       0.0166752      0.00808042 
        5.29359       0.0169571      0.00801841 
        5.30933       0.0171751      0.00795695 
        5.32504       0.0174634      0.00789624 
        5.34073        0.017897      0.00783623 
        5.35646       0.0181212      0.00777672 
        5.37218       0.0184157      0.00771781 
        5.38789       0.0188281       0.0076596 
        5.40357       0.0191228      0.00760206 
        5.41929       0.0193695      0.00754498 
        5.43502       0.0198359      0.00748847 
         5.4507       0.0201528      0.00743268 
        5.46639       0.0205702      0.00737745 
        5.48212       0.0207989      0.00732264 
        5.49786       0.0212832      0.00726832 
        5.51353       0.0218029      0.00721483 
        5.52921       0.0222168      0.00716181 
        5.54495       0.0226583      0.00710917 
        5.56066       0.0231459      0.00705711 
        5.57637       0.0236005      0.00700558 
        5.59207        0.023985      0.00695461 
        5.60778        0.024552      0.00690412 
        5.62346       0.0250421       0.0068542 
        5.63916       0.0254894      0.00680473 
        5.65487       0.0261273      0.00675571 
         5.6706       0.0265592      0.00670712 
        5.68633       0.0272272      0.00665899 
        5.70203       0.0278562      0.00661143 
        5.71773       0.0284941      0.00656434 
        5.73344        0.029039      0.00651767 
        5.74916       0.0298112      0.00647142 
        5.76486       0.0303887      0.00642568 
        5.78054       0.0309222      0.00638045 
        5.79626       0.0317882      0.00633552 
          5.812       0.0324021      0.00629099 
         5.8277       0.0334199        0.006247 
        5.84339       0.0338913      0.00620344 
        5.85911       0.0348042       0.0061602 
        5.87484       0.0356169      0.00611739 
        5.89053       0.0365013      0.00607506 
        5.90623        0.037316      0.00603312 
        5.92195        0.038328      0.00599149 
        5.93767       0.0392203      0.00595028 
        5.95336       0.0401361      0.00590952 
        5.96905       0.0410977      0.00586916 
        5.98476       0.0417768      0.00582912 
        6.00048       0.0429668      0.00578943 
        6.01617       0.0439328      0.00575017 
        6.03185        0.045009      0.00571131 
        6.04756        0.046366      0.00567272 
        6.06331       0.0475851      0.00563441 
        6.07903       0.0486394      0.00559652 
        6.09473       0.0499564      0.00555902 
        6.11044       0.0514233      0.00552183 
        6.12616       0.0527097      0.00548498 
        6.14186       0.0539175       0.0054485 
        6.15755       0.0552495      0.00541236 
        6.17326       0.0563743      0.00537651 
        6.18898       0.0581381      0.00534097 
        6.20467       0.0598966      0.00530581 
        6.22036       0.0615061      0.00527098 
         6.2361       0.0626897      0.00523635 
         6.2518       0.0650167       0.0052021 
        6.26748       0.0659701      0.00516822 
        6.28319       0.0684041      0.00513455 
        6.29893       0.0702901      0.00510116 
        6.31463       0.0719218      0.00506811 
        6.33033       0.0738006      0.00503537 
        6.34604       0.0756005      0.00500289 
        6.36177       0.0780977      0.00497066 
        6.37747       0.0798349      0.00493878 
