# k  (h/Mpc)    Pcb(k)  (Mpc/h)^3    Pcb_linear(k) (Mpc/h)^3   ShotnoiseSubtracted = true
      0.0200456         15830.9         16148.9 
      0.0350414         11039.3         11453.2 
      0.0492313         8033.74         8130.62 
      0.0637834         6831.33         6671.71 
      0.0800726         5398.34         5299.41 
       0.096163         3731.56         3818.38 
       0.111083         2937.63         2987.44 
       0.126058         2688.52         2626.24 
       0.142273         2340.99          2246.7 
       0.158546         1992.09         1771.66 
        0.17375         1575.39         1465.88 
       0.188953         1524.57          1317.1 
       0.204907         1435.09         1175.98 
       0.220756         1229.94         997.583 
        0.23588         1085.16         857.036 
         0.2514         939.548         771.477 
       0.267535         926.636         701.382 
       0.283568         839.275         621.067 
       0.299022         786.903         549.434 
       0.314451         744.365         498.258 
       0.330372         684.249         457.459 
       0.346141         630.526         416.494 
       0.361624         606.197         377.397 
       0.377134          561.18         345.323 
       0.392932         537.039         319.017 
       0.408854         518.147         294.492 
       0.424564         485.475         271.166 
       0.440253         475.019         250.503 
       0.455999         447.548         232.912 
       0.471626         423.806         217.203 
        0.48727         407.573         202.376 
       0.502856         395.276         188.834 
       0.518488         390.924         176.745 
       0.534347         365.126         165.715 
       0.550082         347.905         155.572 
       0.565732         345.659         146.221 
       0.581496         324.783          137.62 
       0.597222         319.065         129.801 
       0.612804         309.469         122.635 
       0.628434         297.073         115.956 
       0.644267         288.348         109.684 
       0.660051         281.798         103.917 
       0.675724         277.014         98.6131 
       0.691403         268.298         93.6739 
       0.707174          258.54         89.0428 
       0.722871         254.595          84.741 
        0.73838         250.529         80.7674 
       0.754018         243.624         77.0171 
       0.769845         235.119         73.4626 
        0.78569         234.617         70.1282 
       0.801365         225.734         67.0327 
       0.817031         218.688         64.1258 
       0.832809         216.897         61.3729 
       0.848511         210.437         58.7942 
       0.864097         207.436         56.3816 
       0.879701         203.713         54.1023 
       0.895507         198.508         51.9223 
       0.911279         192.075         49.8671 
        0.92691         191.892         47.9403 
       0.942635         186.578         46.1048 
       0.958396         184.844         44.3616 
       0.974128         180.582         42.7118 
       0.989692         176.336         41.1622 
        1.00528         173.941         39.6872 
        1.02113         172.061         38.2615 
        1.03692         167.475          36.911 
        1.05264         163.899         35.6319 
        1.06832         160.916         34.4154 
        1.08405         158.103         33.2525 
        1.09979          156.26         32.1426 
        1.11537         152.624         31.0943 
        1.13105         149.659         30.0865 
        1.14679         149.572         29.1195 
        1.16256         146.783         28.1931 
        1.17828         143.823           27.31 
        1.19395         141.265         26.4677 
         1.2097         140.618         25.6567 
        1.22537         137.358         24.8835 
          1.241         135.648         24.1445 
        1.25666         133.245         23.4336 
        1.27241         130.648         22.7481 
        1.28819         129.177         22.0887 
        1.30392         126.646         21.4575 
        1.31957         126.004         20.8536 
        1.33529         122.399         20.2708 
        1.35108         121.614          19.708 
        1.36674         120.171         19.1705 
         1.3824         118.039         18.6535 
        1.39811         117.158         18.1539 
        1.41389         114.948         17.6707 
        1.42964         112.435         17.2058 
        1.44531         110.492         16.7599 
        1.46101         109.161         16.3288 
        1.47667         107.814         15.9142 
        1.49229         106.077         15.5151 
        1.50793         105.143         15.1291 
        1.52367         103.712         14.7538 
        1.53953         101.557         14.3887 
        1.55526         100.572         14.0389 
        1.57092         99.3359         13.7021 
        1.58662         97.5287         13.3755 
        1.60235         96.7809          13.059 
        1.61809         94.8682         12.7525 
        1.63369         93.8906         12.4585 
        1.64941         93.0557         12.1717 
        1.66519           91.07         11.8929 
        1.68085          90.629         11.6248 
        1.69652         88.2837         11.3648 
        1.71228         88.1306         11.1113 
        1.72806         86.9746         10.8653 
        1.74368         85.6157         10.6293 
        1.75933         84.4125         10.3997 
        1.77505         83.4677         10.1759 
        1.79081         82.1473         9.95818 
         1.8065         81.0647         9.74779 
        1.82218         79.6119         9.54365 
        1.83797         78.5026         9.34395 
        1.85367         77.8198         9.15105 
        1.86928         76.9418         8.96474 
        1.88497           75.51         8.78259 
        1.90073         74.9888         8.60482 
        1.91647         73.9668         8.43212 
        1.93218         72.8992         8.26451 
        1.94787         72.2048          8.1017 
        1.96363         70.8774         7.94262 
        1.97935          69.992         7.78812 
        1.99499         69.3883          7.6386 
        2.01064         68.5191         7.49278 
         2.0264         67.2998         7.34984 
        2.04216          66.566         7.21069 
        2.05781         65.6185         7.07601 
        2.07353          64.471         6.94429 
        2.08928         63.6774         6.81562 
        2.10499         62.9139         6.69055 
        2.12065         62.5386         6.56898 
        2.13633         61.7418         6.45032 
        2.15211         60.9795         6.33382 
        2.16785         60.0798         6.22051 
        2.18349         59.3363         6.11068 
        2.19916         58.5776         6.00326 
        2.21489         57.9183         5.89806 
        2.23063         57.3628         5.79531 
         2.2463         56.4205         5.69546 
        2.26194         56.0801          5.5982 
        2.27765         55.3955         5.50271 
        2.29341         54.4991         5.40919 
        2.30914         53.7128         5.31803 
        2.32486         53.1285         5.22902 
        2.34061         52.4766         5.14189 
        2.35635         51.8888         5.05681 
        2.37203         51.0742         4.97396 
        2.38768         50.4817         4.89312 
        2.40339           50.01         4.81378 
        2.41914         49.4675         4.73601 
        2.43483         49.1901         4.66023 
         2.4505         48.5118         4.58623 
        2.46622         47.8099         4.51358 
        2.48195         47.3181         4.44249 
        2.49759         46.5173          4.3733 
        2.51328         46.0819         4.30541 
        2.52906         45.6659         4.23852 
        2.54479         45.1029          4.1733 
        2.56049         44.4317         4.10957 
        2.57618         44.1147         4.04723 
        2.59189         43.4369         3.98608 
        2.60758          43.181         3.92628 
        2.62325         42.5302         3.86778 
        2.63898         42.1809         3.81027 
        2.65468          41.688         3.75404 
        2.67044         40.9939          3.6987 
        2.68618         40.6573          3.6446 
        2.70184         40.1073          3.5918 
        2.71755         39.8698          3.5399 
        2.73329         39.2085         3.48895 
        2.74897          38.852         3.43916 
        2.76462         38.3322         3.39046 
        2.78034         38.0916         3.34249 
        2.79607          37.565         3.29539 
        2.81179         37.1652         3.24926 
        2.82749         36.6016         3.20405 
        2.84321         36.3062         3.15965 
        2.85893         35.8633         3.11611 
        2.87462         35.4569         3.07345 
        2.89033         35.0932         3.03156 
        2.90605         34.7139          2.9904 
        2.92176         34.3221         2.95003 
        2.93747         33.9844         2.91042 
        2.95318         33.5385         2.87153 
        2.96891          33.117         2.83332 
        2.98456         32.9032         2.79598 
        3.00023         32.4651         2.75926 
        3.01596         32.2308         2.72307 
        3.03164          31.779         2.68764 
        3.04738         31.5881         2.65273 
         3.0631         31.1419         2.61845 
        3.07883         30.8191         2.58478 
        3.09456         30.4749          2.5517 
        3.11026         30.1419         2.51924 
        3.12596         29.9237         2.48736 
        3.14163         29.5123         2.45609 
        3.15734         29.0728         2.42529 
        3.17308         28.9647         2.39494 
        3.18879         28.7459         2.36519 
        3.20447         28.3003         2.33599 
         3.2202         27.9177         2.30719 
         3.2359         27.7184         2.27892 
        3.25157         27.4382         2.25119 
        3.26729         27.0933         2.22384 
        3.28304         26.8317         2.19689 
        3.29877         26.6137         2.17041 
        3.31446         26.3541         2.14443 
        3.33014         26.0352          2.1189 
        3.34585          25.815         2.09374 
        3.36158         25.5405         2.06895 
        3.37727         25.2237         2.04464 
        3.39294         25.0128         2.02074 
        3.40867         24.7532         1.99713 
        3.42439         24.5553         1.97392 
        3.44008         24.3712         1.95111 
        3.45578         23.9287         1.92865 
        3.47153         23.7392         1.90649 
        3.48724         23.5568         1.88471 
        3.50292         23.2544         1.86333 
        3.51859         23.0627         1.84229 
        3.53431         22.9171          1.8215 
        3.55007         22.6148         1.80098 
        3.56577         22.4368         1.78086 
        3.58146         22.2059         1.76105 
        3.59719          21.935          1.7415 
        3.61292         21.7794         1.72225 
        3.62859         21.5249         1.70337 
        3.64429         21.2798         1.68472 
        3.66003         21.0633          1.6663 
        3.67578         20.9405         1.64816 
        3.69146          20.736         1.63036 
        3.70712         20.5188         1.61285 
        3.72284         20.4226         1.59554 
        3.73853         20.1544          1.5785 
        3.75422         19.9437         1.56171 
        3.76993         19.7662         1.54515 
        3.78564         19.5252         1.52883 
        3.80137         19.4094         1.51272 
        3.81707         19.2277         1.49688 
        3.83279         19.0147         1.48124 
        3.84853          18.753         1.46581 
        3.86424          18.618         1.45063 
        3.87992         18.4586         1.43568 
        3.89561         18.2916         1.42094 
        3.91134         18.1434         1.40638 
        3.92704         17.9556         1.39203 
        3.94273         17.7945          1.3779 
        3.95845          17.571         1.36394 
        3.97418         17.4985         1.35017 
        3.98988         17.2912         1.33661 
        4.00554         17.1388         1.32327 
        4.02125         17.0342         1.31007 
        4.03698          16.814         1.29703 
        4.05268         16.6421          1.2842 
        4.06839         16.5083         1.27153 
         4.0841         16.4188         1.25904 
        4.09983         16.2476          1.2467 
        4.11555         16.1075         1.23452 
        4.13124         15.8648         1.22254 
        4.14693         15.7291         1.21071 
        4.16266         15.6216         1.19901 
        4.17839         15.4644         1.18747 
        4.19408         15.2978          1.1761 
        4.20977         15.2429         1.16488 
        4.22551         15.0663         1.15378 
        4.24123         14.9466         1.14283 
        4.25691         14.7882         1.13206 
        4.27259         14.6835         1.12141 
        4.28831         14.5242         1.11089 
        4.30404         14.3939         1.10049 
        4.31974          14.269         1.09024 
        4.33543         14.1605         1.08013 
        4.35116         14.0292         1.07013 
        4.36688         13.8919         1.06025 
        4.38255         13.7968         1.05053 
        4.39825         13.7173         1.04092 
        4.41398         13.5362          1.0314 
         4.4297          13.432         1.02202 
        4.44541         13.3237         1.01275 
        4.46111         13.2135          1.0036 
        4.47683           13.09         0.99456 
        4.49251         12.9967        0.985648 
        4.50819         12.8651        0.976847 
         4.5239         12.7754        0.968141 
        4.53962         12.6506         0.95953 
        4.55535         12.5445        0.951018 
        4.57106         12.4401        0.942622 
        4.58678         12.3604        0.934325 
         4.6025         12.2408        0.926126 
        4.61821         12.1114        0.918025 
        4.63391         12.0233        0.910032 
         4.6496         11.9121        0.902137 
        4.66532         11.8147        0.894323 
        4.68103          11.724        0.886604 
        4.69673          11.653        0.878983 
        4.71241         11.5477         0.87146 
        4.72811         11.4264        0.864011 
        4.74384         11.3261         0.85664 
        4.75955         11.2492        0.849365 
        4.77525         11.1838        0.842179 
        4.79096         11.0748        0.835067 
        4.80669         10.9848        0.828033 
         4.8224         10.8829        0.821088 
        4.83809         10.8191        0.814229 
        4.85379         10.6934        0.807444 
         4.8695         10.6343        0.800731 
        4.88521         10.5433        0.794096 
        4.90093         10.4461        0.787536 
        4.91663         10.3869        0.781055 
        4.93234         10.2956         0.77464 
        4.94807         10.2093        0.768292 
        4.96377         10.1213        0.762027 
        4.97943         10.0477        0.755845 
        4.99514         9.94864        0.749715 
        5.01086         9.91493        0.743648 
        5.02654           9.794        0.737663 
        5.04227         9.75416        0.731727 
          5.058         9.64371        0.725852 
        5.07371         9.59761        0.720054 
        5.08942         9.49496        0.714317 
        5.10513         9.43219        0.708643 
        5.12084         9.35662        0.703026 
        5.13656         9.27497        0.697472 
        5.15225         9.21031        0.691987 
        5.16796         9.16709        0.686551 
        5.18369         9.07167        0.681169 
         5.1994         9.00438        0.675854 
        5.21509         8.92748        0.670601 
        5.23079         8.87456        0.665396 
        5.24649         8.79775        0.660251 
        5.26217         8.73345        0.655164 
        5.27788         8.65829        0.650122 
        5.29359         8.60945        0.645133 
        5.30933         8.55039        0.640189 
        5.32504         8.49548        0.635304 
        5.34073         8.39402        0.630475 
        5.35646         8.35971        0.625687 
        5.37218         8.28766        0.620948 
        5.38789         8.21342        0.616264 
        5.40357         8.16443        0.611635 
        5.41929         8.08669        0.607042 
        5.43502         8.04839        0.602496 
         5.4507         7.97573        0.598007 
        5.46639         7.93014        0.593563 
        5.48212         7.88557        0.589154 
        5.49786         7.80337        0.584784 
        5.51353         7.75834         0.58048 
        5.52921         7.70054        0.576214 
        5.54495         7.61974        0.571979 
        5.56066         7.58464         0.56779 
        5.57637         7.52081        0.563644 
        5.59207         7.47053        0.559543 
        5.60778         7.40301        0.555481 
        5.62346         7.37326        0.551465 
        5.63916         7.30117        0.547484 
        5.65487         7.25433        0.543541 
         5.6706         7.19154        0.539632 
        5.68633         7.15232        0.535759 
        5.70203         7.10082        0.531932 
        5.71773         7.05763        0.528143 
        5.73344         6.98819        0.524389 
        5.74916         6.96362        0.520668 
        5.76486         6.90135        0.516988 
        5.78054         6.85907        0.513349 
        5.79626         6.79801        0.509734 
          5.812         6.76899        0.506151 
         5.8277         6.69671        0.502612 
        5.84339         6.67214        0.499107 
        5.85911         6.61417        0.495628 
        5.87484         6.55898        0.492184 
        5.89053         6.52296        0.488778 
        5.90623         6.47589        0.485403 
        5.92195         6.44287        0.482054 
        5.93767         6.39817        0.478739 
        5.95336         6.34496        0.475459 
        5.96905         6.30289        0.472212 
        5.98476         6.26424         0.46899 
        6.00048         6.22253        0.465797 
        6.01617         6.17808        0.462638 
        6.03185         6.13518        0.459512 
        6.04756         6.09224        0.456407 
        6.06331         6.06036        0.453325 
        6.07903         6.02238        0.450277 
        6.09473         5.97115        0.447259 
        6.11044         5.94433        0.444267 
        6.12616         5.89277        0.441302 
        6.14186         5.84948        0.438367 
        6.15755         5.80452        0.435459 
        6.17326          5.7776        0.432575 
        6.18898         5.74276        0.429716 
        6.20467         5.70229        0.426887 
        6.22036          5.6558        0.424084 
         6.2361         5.62082        0.421299 
         6.2518         5.58299        0.418543 
        6.26748         5.54371        0.415817 
        6.28319         5.51037        0.413108 
        6.29893         5.47574        0.410421 
        6.31463         5.44029        0.407762 
        6.33033         5.40785        0.405128 
        6.34604         5.36563        0.402515 
        6.36177         5.32724        0.399922 
        6.37747         5.30228        0.397357 
