# k  (h/Mpc)    Pcb(k)  (Mpc/h)^3    Pcb_linear(k) (Mpc/h)^3   ShotnoiseSubtracted = true
      0.0200456         12882.2         13125.3 
      0.0350414         9015.47         9308.77 
      0.0492313          6551.3         6608.32 
      0.0637834         5548.81         5422.56 
      0.0800726          4388.5          4307.2 
       0.096163         3041.47         3103.46 
       0.111083         2386.88         2428.09 
       0.126058         2183.11         2134.53 
       0.142273         1899.91         1826.04 
       0.158546          1595.9         1439.95 
        0.17375         1263.52         1191.42 
       0.188953         1216.49          1070.5 
       0.204907         1145.25         955.802 
       0.220756         975.769         810.805 
        0.23588         856.543         696.573 
         0.2514         743.057         627.033 
       0.267535         726.551         570.061 
       0.283568         658.169         504.784 
       0.299022         613.874         446.563 
       0.314451         576.737         404.968 
       0.330372         530.797         371.808 
       0.346141           482.8         338.514 
       0.361624         464.384         306.736 
       0.377134         430.202         280.668 
       0.392932         408.636         259.287 
       0.408854         392.104         239.354 
       0.424564         370.753         220.395 
       0.440253         359.514         203.601 
       0.455999          337.71         189.303 
       0.471626         316.326         176.536 
        0.48727          305.44         164.485 
       0.502856         295.399         153.479 
       0.518488         291.978         143.652 
       0.534347         273.973         134.688 
       0.550082         258.163         126.444 
       0.565732         254.397         118.844 
       0.581496         240.436         111.853 
       0.597222         234.984         105.498 
       0.612804         227.001          99.674 
       0.628434         218.115         94.2451 
       0.644267         211.039         89.1481 
       0.660051         207.976         84.4606 
       0.675724         203.292         80.1497 
       0.691403         197.329         76.1352 
       0.707174          189.29         72.3712 
       0.722871         187.001         68.8749 
        0.73838         183.061         65.6453 
       0.754018         177.948         62.5971 
       0.769845         171.895         59.7081 
        0.78569         170.364          56.998 
       0.801365         164.431         54.4821 
       0.817031         159.271         52.1195 
       0.832809         157.243          49.882 
       0.848511         152.762         47.7861 
       0.864097         150.546         45.8252 
       0.879701         147.013         43.9727 
       0.895507         143.002         42.2009 
       0.911279          139.48         40.5305 
        0.92691         138.723         38.9644 
       0.942635         134.962         37.4726 
       0.958396          134.56         36.0557 
       0.974128         130.792         34.7148 
       0.989692         127.483         33.4553 
        1.00528         125.112         32.2565 
        1.02113         124.204         31.0977 
        1.03692         119.731         30.0001 
        1.05264         118.146         28.9605 
        1.06832         115.731         27.9718 
        1.08405         113.948         27.0266 
        1.09979         113.323         26.1245 
        1.11537         109.633         25.2725 
        1.13105         108.781         24.4534 
        1.14679         107.861         23.6674 
        1.16256         106.172         22.9145 
        1.17828          103.73         22.1968 
        1.19395         102.024         21.5122 
         1.2097         100.291          20.853 
        1.22537         99.6398         20.2245 
          1.241         97.4187         19.6239 
        1.25666          95.622         19.0461 
        1.27241         94.0701         18.4889 
        1.28819         92.7353          17.953 
        1.30392         91.3196           17.44 
        1.31957         90.2184         16.9492 
        1.33529         88.2393         16.4755 
        1.35108         87.2112          16.018 
        1.36674         86.3377         15.5812 
         1.3824         84.4997          15.161 
        1.39811         83.5243         14.7549 
        1.41389         82.3802         14.3622 
        1.42964         80.8575         13.9843 
        1.44531         79.2078         13.6219 
        1.46101         78.3016         13.2716 
        1.47667         77.8869         12.9346 
        1.49229         76.2858         12.6102 
        1.50793         75.6887         12.2965 
        1.52367         74.4309         11.9915 
        1.53953          73.191         11.6947 
        1.55526         72.5309         11.4104 
        1.57092         72.0146         11.1366 
        1.58662         70.3006         10.8712 
        1.60235         69.9659         10.6139 
        1.61809         68.7272         10.3648 
        1.63369         67.9726         10.1259 
        1.64941         67.3492          9.8928 
        1.66519         65.5214         9.66617 
        1.68085         65.2915         9.44825 
        1.69652          63.916         9.23697 
        1.71228         63.7355         9.03094 
        1.72806         62.7543         8.83101 
        1.74368         61.9305         8.63914 
        1.75933         60.9129         8.45256 
        1.77505          60.492         8.27062 
        1.79081         59.4779          8.0937 
         1.8065         58.7437          7.9227 
        1.82218         57.9363         7.75678 
        1.83797         57.3003         7.59447 
        1.85367         56.7295         7.43769 
        1.86928         56.2602         7.28626 
        1.88497         55.2728         7.13822 
        1.90073         54.3814         6.99373 
        1.91647          54.185         6.85337 
        1.93218         53.3687         6.71714 
        1.94787         52.6492         6.58481 
        1.96363          51.976         6.45551 
        1.97935         51.6136         6.32995 
        1.99499         50.7342         6.20842 
        2.01064         50.4234          6.0899 
         2.0264          49.256         5.97372 
        2.04216         48.9462         5.86063 
        2.05781         48.2929         5.75116 
        2.07353         47.6618          5.6441 
        2.08928         47.1202         5.53952 
        2.10499         46.6688         5.43787 
        2.12065         46.0894         5.33906 
        2.13633         45.7182         5.24262 
        2.15211         45.4347         5.14793 
        2.16785         44.7246         5.05584 
        2.18349         44.2684         4.96657 
        2.19916         43.6808         4.87926 
        2.21489         43.2962         4.79376 
        2.23063          42.778         4.71025 
         2.2463         42.3068         4.62909 
        2.26194         41.5602         4.55004 
        2.27765         41.2861         4.47243 
        2.29341         40.6969         4.39642 
        2.30914         40.1263         4.32233 
        2.32486         39.4678         4.24998 
        2.34061         39.2988         4.17917 
        2.35635         38.7118         4.11002 
        2.37203         38.3049         4.04268 
        2.38768         37.9186         3.97698 
        2.40339         37.5425         3.91249 
        2.41914         37.1949         3.84928 
        2.43483         36.7663         3.78769 
         2.4505         36.4246         3.72755 
        2.46622          35.957          3.6685 
        2.48195         35.5199         3.61072 
        2.49759         35.0901         3.55449 
        2.51328         34.6301          3.4993 
        2.52906         34.3389         3.44494 
        2.54479         33.8973         3.39193 
        2.56049         33.4256         3.34013 
        2.57618          33.202         3.28946 
        2.59189         32.7517         3.23976 
        2.60758         32.5455         3.19116 
        2.62325         32.1027         3.14361 
        2.63898         31.7314         3.09687 
        2.65468         31.3193         3.05117 
        2.67044         30.8931         3.00619 
        2.68618         30.7406         2.96222 
        2.70184         30.4043          2.9193 
        2.71755         30.1518         2.87712 
        2.73329         29.7456         2.83571 
        2.74897         29.4099         2.79525 
        2.76462         29.0054         2.75566 
        2.78034         28.8946         2.71667 
        2.79607         28.5268         2.67839 
        2.81179         28.2471          2.6409 
        2.82749         27.8309         2.60415 
        2.84321         27.6243         2.56807 
        2.85893         27.3401         2.53268 
        2.87462         26.9943         2.49801 
        2.89033         26.6796         2.46396 
        2.90605         26.5632         2.43051 
        2.92176         26.2363         2.39769 
        2.93747         26.0029          2.3655 
        2.95318         25.6374         2.33389 
        2.96891          25.358         2.30284 
        2.98456         25.1408         2.27249 
        3.00023         24.8166         2.24264 
        3.01596         24.5436         2.21323 
        3.03164         24.4723         2.18443 
        3.04738          24.147         2.15606 
         3.0631         23.9089          2.1282 
        3.07883         23.6575         2.10083 
        3.09456         23.4068         2.07394 
        3.11026         23.1962         2.04756 
        3.12596         22.9734         2.02165 
        3.14163         22.7002         1.99624 
        3.15734         22.5146          1.9712 
        3.17308          22.172         1.94653 
        3.18879         22.0889         1.92235 
        3.20447         21.7996         1.89862 
         3.2202         21.5699         1.87521 
         3.2359         21.3624         1.85224 
        3.25157         21.2263          1.8297 
        3.26729         21.0352         1.80747 
        3.28304         20.7735         1.78556 
        3.29877         20.5314         1.76405 
        3.31446         20.3292         1.74293 
        3.33014         20.1241         1.72218 
        3.34585         20.0315         1.70173 
        3.36158         19.7199         1.68158 
        3.37727         19.5062         1.66182 
        3.39294         19.4057         1.64239 
        3.40867         19.1824         1.62321 
        3.42439          18.991         1.60434 
        3.44008         18.8237          1.5858 
        3.45578         18.6583         1.56755 
        3.47153         18.4462         1.54953 
        3.48724         18.2867         1.53184 
        3.50292         18.1598         1.51446 
        3.51859         17.9125         1.49735 
        3.53431         17.7752         1.48046 
        3.55007          17.534         1.46378 
        3.56577           17.38         1.44743 
        3.58146         17.2735         1.43133 
        3.59719         17.0262         1.41544 
        3.61292         16.9511         1.39979 
        3.62859         16.7283         1.38444 
        3.64429         16.5834         1.36929 
        3.66003          16.458         1.35432 
        3.67578         16.2568         1.33958 
        3.69146         16.1968         1.32511 
        3.70712         16.0091         1.31088 
        3.72284         15.8468          1.2968 
        3.73853          15.701         1.28296 
        3.75422          15.555         1.26931 
        3.76993         15.3809         1.25585 
        3.78564         15.2313         1.24259 
        3.80137         15.1337         1.22949 
        3.81707         14.9926         1.21661 
        3.83279         14.8447         1.20391 
        3.84853         14.6716         1.19137 
        3.86424         14.5571         1.17902 
        3.87992         14.4354         1.16687 
        3.89561         14.2847         1.15489 
        3.91134         14.2038         1.14306 
        3.92704          14.047          1.1314 
        3.94273         13.9205         1.11992 
        3.95845         13.7594         1.10857 
        3.97418         13.6926         1.09738 
        3.98988         13.5319         1.08635 
        4.00554         13.4183         1.07551 
        4.02125         13.3097         1.06479 
        4.03698          13.196         1.05419 
        4.05268         13.0691         1.04376 
        4.06839         12.9115         1.03346 
         4.0841         12.8902         1.02331 
        4.09983         12.6863         1.01328 
        4.11555          12.626         1.00338 
        4.13124         12.5081        0.993643 
        4.14693         12.3999        0.984027 
        4.16266         12.2817        0.974516 
        4.17839         12.1895        0.965135 
        4.19408         12.0399        0.955898 
        4.20977         11.9841        0.946778 
        4.22551         11.8357        0.937755 
        4.24123         11.7589        0.928857 
        4.25691         11.6762          0.9201 
        4.27259         11.5399        0.911451 
        4.28831         11.4266        0.902896 
        4.30404         11.3547        0.894443 
        4.31974         11.2631        0.886115 
        4.33543         11.1713        0.877898 
        4.35116         11.0588        0.869765 
        4.36688         10.9772        0.861737 
        4.38255         10.8646         0.85384 
        4.39825         10.7905        0.846025 
        4.41398         10.6827        0.838292 
         4.4297         10.5833        0.830663 
        4.44541         10.5042         0.82313 
        4.46111         10.4426        0.815695 
        4.47683         10.3238        0.808347 
        4.49251         10.2359        0.801104 
        4.50819         10.1658        0.793951 
         4.5239         10.0909        0.786875 
        4.53962         9.99648        0.779876 
        4.55535         9.91654        0.772958 
        4.57106         9.82227        0.766134 
        4.58678         9.73614         0.75939 
         4.6025         9.65713        0.752726 
        4.61821         9.58269        0.746142 
        4.63391         9.51815        0.739646 
         4.6496         9.42603        0.733229 
        4.66532         9.33263        0.726878 
        4.68103         9.25995        0.720604 
        4.69673         9.20621         0.71441 
        4.71241         9.10631        0.708295 
        4.72811          9.0368        0.702241 
        4.74384         8.97685         0.69625 
        4.75955         8.88234        0.690338 
        4.77525         8.81795        0.684497 
        4.79096         8.75425        0.678716 
        4.80669         8.69402        0.672999 
         4.8224         8.63594        0.667354 
        4.83809         8.56743         0.66178 
        4.85379         8.48911        0.656266 
         4.8695         8.46249        0.650809 
        4.88521         8.34019        0.645417 
        4.90093         8.29495        0.640085 
        4.91663         8.21062        0.634817 
        4.93234         8.16166        0.629603 
        4.94807         8.09128        0.624444 
        4.96377         8.02532        0.619352 
        4.97943         7.97695        0.614327 
        4.99514         7.91749        0.609345 
        5.01086         7.84689        0.604414 
        5.02654         7.78957         0.59955 
        5.04227         7.73138        0.594725 
          5.058         7.65167         0.58995 
        5.07371         7.61944        0.585237 
        5.08942         7.55601        0.580575 
        5.10513         7.49707        0.575963 
        5.12084         7.44179        0.571398 
        5.13656         7.37576        0.566884 
        5.15225         7.33521        0.562425 
        5.16796         7.28244        0.558008 
        5.18369          7.2107        0.553633 
         5.1994         7.15351        0.549313 
        5.21509         7.11276        0.545043 
        5.23079         7.05578        0.540814 
        5.24649         6.98889        0.536632 
        5.26217         6.93164        0.532497 
        5.27788          6.8883        0.528399 
        5.29359         6.84624        0.524344 
        5.30933         6.78772        0.520325 
        5.32504         6.73429        0.516355 
        5.34073          6.6914        0.512431 
        5.35646         6.63361        0.508539 
        5.37218         6.59327        0.504687 
        5.38789         6.54433        0.500881 
        5.40357         6.50901        0.497118 
        5.41929          6.4429        0.493385 
        5.43502         6.40511         0.48969 
         5.4507         6.35745        0.486042 
        5.46639         6.30945         0.48243 
        5.48212         6.26657        0.478846 
        5.49786         6.22181        0.475294 
        5.51353         6.16901        0.471796 
        5.52921         6.13832        0.468329 
        5.54495         6.09252        0.464887 
        5.56066         6.04698        0.461482 
        5.57637         5.99822        0.458113 
        5.59207         5.96545        0.454779 
        5.60778         5.90782        0.451478 
        5.62346         5.87023        0.448214 
        5.63916         5.83054        0.444978 
        5.65487         5.78777        0.441773 
         5.6706         5.74328        0.438596 
        5.68633         5.71709        0.435448 
        5.70203         5.66772        0.432338 
        5.71773         5.62061        0.429259 
        5.73344         5.60195        0.426207 
        5.74916         5.56276        0.423183 
        5.76486         5.51754        0.420192 
        5.78054         5.47655        0.417234 
        5.79626         5.43769        0.414296 
          5.812         5.40275        0.411384 
         5.8277         5.37253        0.408507 
        5.84339         5.32862        0.405659 
        5.85911         5.28828        0.402831 
        5.87484         5.26219        0.400032 
        5.89053         5.21494        0.397264 
        5.90623         5.17551        0.394521 
        5.92195         5.14319        0.391799 
        5.93767         5.11103        0.389104 
        5.95336         5.08214        0.386439 
        5.96905         5.04451        0.383799 
        5.98476         5.01641        0.381181 
        6.00048         4.98351        0.378586 
        6.01617          4.9506        0.376018 
        6.03185         4.91286        0.373477 
        6.04756         4.88426        0.370954 
        6.06331         4.86722        0.368448 
        6.07903         4.81617        0.365971 
        6.09473         4.78731        0.363518 
        6.11044         4.74622        0.361086 
        6.12616         4.71964        0.358677 
        6.14186         4.69628        0.356291 
        6.15755          4.6643        0.353928 
        6.17326         4.62419        0.351584 
        6.18898         4.59754         0.34926 
        6.20467         4.57536        0.346961 
        6.22036         4.54537        0.344682 
         6.2361         4.50318        0.342418 
         6.2518         4.48438        0.340178 
        6.26748         4.45582        0.337963 
        6.28319           4.417        0.335762 
        6.29893         4.40292        0.333578 
        6.31463         4.37089        0.331417 
        6.33033         4.33792        0.329275 
        6.34604         4.30862        0.327151 
        6.36177         4.29117        0.325044 
        6.37747         4.26379        0.322959 
