# k  (h/Mpc)    Pcb(k)  (Mpc/h)^3    Pcb_linear(k) (Mpc/h)^3   ShotnoiseSubtracted = true
      0.0200456         32478.2         33117.3 
      0.0350414         24347.5         23487.6 
      0.0492313         16178.6         16673.9 
      0.0637834         12888.3           13682 
      0.0800726         10074.7         10867.8 
       0.096163         8214.54         7830.53 
       0.111083         6587.52         6126.48 
       0.126058         5417.92         5385.77 
       0.142273         4806.54         4607.41 
       0.158546         3920.58         3633.23 
        0.17375         3547.52         3006.16 
       0.188953         3418.92         2701.05 
       0.204907         2937.99         2411.65 
       0.220756         2683.19         2045.79 
        0.23588         2389.74         1757.57 
         0.2514         2185.62         1582.11 
       0.267535         2087.37         1438.36 
       0.283568         1890.53         1273.65 
       0.299022         1787.23         1126.75 
       0.314451         1864.61          1021.8 
       0.330372         1699.34         938.133 
       0.346141         1568.07         854.125 
       0.361624          1494.1         773.946 
       0.377134         1453.06         708.171 
       0.392932         1357.19         654.223 
       0.408854         1320.12         603.928 
       0.424564         1289.04         556.093 
       0.440253         1221.27         513.719 
       0.455999          1162.3         477.643 
       0.471626          1162.5          445.43 
        0.48727          1105.2         415.023 
       0.502856         1090.64         387.252 
       0.518488          1036.3         362.459 
       0.534347         1009.59          339.84 
       0.550082         973.565          319.04 
       0.565732         944.067         299.863 
       0.581496         922.613         282.224 
       0.597222         912.746         266.189 
       0.612804          881.55         251.494 
       0.628434         851.666         237.796 
       0.644267         831.308         224.935 
       0.660051         815.553         213.108 
       0.675724         803.159         202.231 
       0.691403         767.636         192.102 
       0.707174         752.607         182.604 
       0.722871         752.007         173.783 
        0.73838         718.858         165.634 
       0.754018         714.705         157.943 
       0.769845         694.816         150.653 
        0.78569         678.802         143.815 
       0.801365         662.724         137.467 
       0.817031          649.84         131.506 
       0.832809         637.019          125.86 
       0.848511          615.56         120.572 
       0.864097         610.044         115.625 
       0.879701         608.067          110.95 
       0.895507         591.219          106.48 
       0.911279         584.279         102.265 
        0.92691         571.409         98.3136 
       0.942635         557.977         94.5494 
       0.958396         552.078         90.9745 
       0.974128         536.233         87.5912 
       0.989692         530.001         84.4133 
        1.00528         515.869         81.3885 
        1.02113         505.105         78.4646 
        1.03692         497.999         75.6952 
        1.05264         490.789         73.0721 
        1.06832         482.617         70.5774 
        1.08405         475.369         68.1925 
        1.09979         463.335         65.9164 
        1.11537          452.11         63.7666 
        1.13105         445.969         61.6999 
        1.14679         439.706         59.7168 
        1.16256         432.941          57.817 
        1.17828          426.48          56.006 
        1.19395         418.242         54.2787 
         1.2097           407.8         52.6154 
        1.22537         402.455         51.0298 
          1.241         394.487         49.5143 
        1.25666         385.388         48.0565 
        1.27241         384.179         46.6506 
        1.28819         376.043         45.2985 
        1.30392         370.246         44.0039 
        1.31957         361.476         42.7656 
        1.33529         357.933         41.5704 
        1.35108         356.462         40.4161 
        1.36674         347.589         39.3139 
         1.3824         340.883         38.2537 
        1.39811         336.112         37.2291 
        1.41389         332.686         36.2381 
        1.42964         323.301         35.2848 
        1.44531         320.888         34.3703 
        1.46101         312.061         33.4863 
        1.47667         308.532          32.636 
        1.49229         306.211         31.8175 
        1.50793         296.946         31.0261 
        1.52367         295.666         30.2564 
        1.53953         289.186         29.5077 
        1.55526         282.867         28.7903 
        1.57092         280.263         28.0996 
        1.58662         276.504         27.4299 
        1.60235         271.711         26.7807 
        1.61809          266.39         26.1521 
        1.63369         262.076         25.5493 
        1.64941         259.478         24.9611 
        1.66519         255.246         24.3893 
        1.68085         249.179         23.8395 
        1.69652         246.396         23.3064 
        1.71228         243.108         22.7865 
        1.72806         238.438         22.2821 
        1.74368         235.401          21.798 
        1.75933         233.428         21.3272 
        1.77505          229.05         20.8681 
        1.79081         226.137         20.4217 
         1.8065         223.021         19.9903 
        1.82218         217.667         19.5716 
        1.83797         215.693         19.1621 
        1.85367         212.001         18.7665 
        1.86928         208.978         18.3844 
        1.88497         206.187         18.0109 
        1.90073         202.825         17.6463 
        1.91647         200.032         17.2922 
        1.93218         196.875         16.9484 
        1.94787          194.27         16.6146 
        1.96363         192.607         16.2883 
        1.97935         186.338         15.9715 
        1.99499         185.823         15.6649 
        2.01064         182.513         15.3658 
         2.0264         180.317         15.0727 
        2.04216         177.725         14.7873 
        2.05781         174.754         14.5111 
        2.07353          173.01          14.241 
        2.08928         170.113         13.9771 
        2.10499         168.425         13.7206 
        2.12065         165.548         13.4713 
        2.13633         163.228          13.228 
        2.15211         161.418         12.9891 
        2.16785         159.321         12.7567 
        2.18349         156.063         12.5315 
        2.19916         155.066         12.3112 
        2.21489         152.711         12.0954 
        2.23063         150.122         11.8847 
         2.2463         147.973         11.6799 
        2.26194         145.916         11.4805 
        2.27765         144.606         11.2847 
        2.29341         142.686         11.0929 
        2.30914         140.889         10.9059 
        2.32486         139.155         10.7234 
        2.34061         136.352         10.5447 
        2.35635         134.682         10.3703 
        2.37203         134.291         10.2003 
        2.38768         131.845         10.0346 
        2.40339         129.413         9.87186 
        2.41914         128.654         9.71237 
        2.43483          126.36         9.55696 
         2.4505         125.208         9.40521 
        2.46622         123.806         9.25621 
        2.48195         121.712         9.11043 
        2.49759         120.422         8.96855 
        2.51328         118.522         8.82931 
        2.52906         117.052         8.69214 
        2.54479         115.807         8.55839 
        2.56049          113.95          8.4277 
        2.57618         113.083         8.29985 
        2.59189          111.73         8.17444 
        2.60758         110.544         8.05182 
        2.62325         108.765         7.93185 
        2.63898         107.472          7.8139 
        2.65468         106.059         7.69859 
        2.67044         104.981         7.58511 
        2.68618          103.84         7.47416 
        2.70184         102.418         7.36587 
        2.71755         101.042         7.25945 
        2.73329         100.212         7.15496 
        2.74897         98.7592         7.05286 
        2.76462           97.62         6.95298 
        2.78034         96.3789          6.8546 
        2.79607         95.2599         6.75802 
        2.81179          93.794         6.66341 
        2.82749         92.8895         6.57071 
        2.84321         91.6886         6.47966 
        2.85893         90.9041         6.39036 
        2.87462         89.3108         6.30288 
        2.89033         88.5906         6.21696 
        2.90605          87.265         6.13256 
        2.92176         86.5691         6.04977 
        2.93747         85.3669         5.96854 
        2.95318         84.4803         5.88878 
        2.96891         83.3888         5.81043 
        2.98456          82.766         5.73385 
        3.00023          81.683         5.65854 
        3.01596         80.5319         5.58434 
        3.03164         79.9648         5.51168 
        3.04738          79.034         5.44009 
         3.0631         78.1793         5.36979 
        3.07883         77.4138         5.30073 
        3.09456         76.6139         5.23289 
        3.11026         75.5738         5.16634 
        3.12596         74.7594         5.10094 
        3.14163         73.7961         5.03683 
        3.15734         72.6873         4.97366 
        3.17308         72.1817         4.91142 
        3.18879          70.958         4.85041 
        3.20447         70.5147         4.79053 
         3.2202         69.7523         4.73146 
         3.2359         69.1702         4.67349 
        3.25157         68.3555         4.61663 
        3.26729         67.6285         4.56054 
        3.28304          67.047         4.50526 
        3.29877         66.2915         4.45098 
        3.31446         65.3464          4.3977 
        3.33014         64.9926         4.34533 
        3.34585          64.105         4.29374 
        3.36158         63.4122          4.2429 
        3.37727         62.8613         4.19304 
        3.39294         62.0846         4.14403 
        3.40867         61.4308         4.09562 
        3.42439         60.8513         4.04801 
        3.44008         60.2478         4.00124 
        3.45578         59.6574         3.95517 
        3.47153         59.0014         3.90973 
        3.48724         58.1706         3.86508 
        3.50292         57.8616         3.82122 
        3.51859         57.3312         3.77806 
        3.53431           56.59         3.73544 
        3.55007         56.0822         3.69336 
        3.56577         55.6265          3.6521 
        3.58146         54.7581         3.61148 
        3.59719         54.4322         3.57138 
        3.61292         53.8361         3.53191 
        3.62859         53.3907         3.49317 
        3.64429         52.8089         3.45495 
        3.66003         52.2706         3.41717 
        3.67578         51.5897         3.37997 
        3.69146         51.1291         3.34346 
        3.70712         50.8236         3.30756 
        3.72284         50.2321         3.27204 
        3.73853         49.5633         3.23711 
        3.75422          49.239         3.20268 
        3.76993         48.7138         3.16871 
        3.78564         48.2319         3.13525 
        3.80137         47.7736         3.10221 
        3.81707         47.3125         3.06972 
        3.83279         46.9287         3.03766 
        3.84853         46.5493         3.00601 
        3.86424         46.1144         2.97487 
        3.87992         45.5886         2.94421 
        3.89561         45.2147         2.91399 
        3.91134         44.7442         2.88412 
        3.92704         44.3232         2.85471 
        3.94273         43.7641         2.82573 
        3.95845         43.4954          2.7971 
        3.97418         42.9182         2.76886 
        3.98988         42.6547         2.74105 
        4.00554         42.2055         2.71369 
        4.02125         41.8078         2.68663 
        4.03698         41.4832         2.65989 
        4.05268          41.183         2.63358 
        4.06839         40.7393          2.6076 
         4.0841         40.4321         2.58198 
        4.09983          39.996         2.55666 
        4.11555         39.6373         2.53169 
        4.13124         39.3085         2.50712 
        4.14693         38.8083         2.48286 
        4.16266         38.5604         2.45886 
        4.17839         38.1711         2.43519 
        4.19408         37.8539         2.41189 
        4.20977         37.4521         2.38888 
        4.22551          37.136         2.36611 
        4.24123         36.7259         2.34366 
        4.25691         36.4577         2.32156 
        4.27259         36.1972         2.29974 
        4.28831         35.7787         2.27816 
        4.30404         35.4957         2.25683 
        4.31974         35.2512         2.23581 
        4.33543         34.9423         2.21508 
        4.35116         34.5006         2.19456 
        4.36688          34.223          2.1743 
        4.38255         33.9733         2.15438 
        4.39825         33.7223         2.13466 
        4.41398         33.3628         2.11515 
         4.4297         33.0385          2.0959 
        4.44541         32.8257         2.07689 
        4.46111         32.3995         2.05813 
        4.47683          32.134         2.03959 
        4.49251         31.8482         2.02132 
        4.50819         31.6047         2.00327 
         4.5239         31.3716         1.98541 
        4.53962         31.2695         1.96775 
        4.55535         30.8997          1.9503 
        4.57106         30.5973         1.93308 
        4.58678         30.3135         1.91607 
         4.6025         30.0696         1.89925 
        4.61821         29.7796         1.88264 
        4.63391         29.5427         1.86625 
         4.6496          29.326         1.85006 
        4.66532         29.0672         1.83403 
        4.68103         28.8074          1.8182 
        4.69673         28.5572         1.80257 
        4.71241         28.3274         1.78714 
        4.72811         28.0595         1.77187 
        4.74384         27.8537         1.75675 
        4.75955         27.7432         1.74184 
        4.77525         27.3476          1.7271 
        4.79096         27.1477         1.71251 
        4.80669          26.962         1.69809 
         4.8224         26.7023         1.68384 
        4.83809         26.5342         1.66978 
        4.85379         26.2878         1.65587 
         4.8695         26.1171          1.6421 
        4.88521         25.8584         1.62849 
        4.90093         25.6636         1.61504 
        4.91663         25.4392         1.60175 
        4.93234         25.2299         1.58859 
        4.94807         25.0304         1.57557 
        4.96377         24.8714         1.56273 
        4.97943         24.6678         1.55005 
        4.99514         24.4403         1.53748 
        5.01086         24.2026         1.52504 
        5.02654         24.0225         1.51276 
        5.04227         23.7997         1.50059 
          5.058         23.6235         1.48854 
        5.07371         23.4445         1.47665 
        5.08942         23.2836         1.46489 
        5.10513         23.1319         1.45325 
        5.12084         22.9475         1.44173 
        5.13656         22.6985         1.43034 
        5.15225         22.5722         1.41909 
        5.16796         22.3198         1.40794 
        5.18369         22.2183         1.39691 
         5.1994         21.9964         1.38601 
        5.21509          21.841         1.37523 
        5.23079         21.6577         1.36456 
        5.24649         21.5076         1.35401 
        5.26217         21.3448         1.34358 
        5.27788         21.2088         1.33324 
        5.29359         21.0297         1.32301 
        5.30933         20.8347         1.31287 
        5.32504         20.6917         1.30285 
        5.34073         20.5138         1.29295 
        5.35646         20.3049         1.28313 
        5.37218         20.1873         1.27341 
        5.38789         20.0187          1.2638 
        5.40357         19.9426         1.25431 
        5.41929         19.7843         1.24489 
        5.43502         19.5788         1.23557 
         5.4507            19.4         1.22636 
        5.46639         19.3073         1.21725 
        5.48212         19.1593         1.20821 
        5.49786         19.0151         1.19924 
        5.51353         18.8596         1.19042 
        5.52921         18.7228         1.18167 
        5.54495         18.6053         1.17298 
        5.56066         18.4575          1.1644 
        5.57637         18.2889         1.15589 
        5.59207          18.138         1.14748 
        5.60778         18.0324         1.13915 
        5.62346         17.8835         1.13092 
        5.63916         17.7407         1.12275 
        5.65487         17.6193         1.11467 
         5.6706          17.494         1.10665 
        5.68633          17.337         1.09871 
        5.70203          17.245         1.09086 
        5.71773         17.1163         1.08309 
        5.73344         16.9836         1.07539 
        5.74916         16.8831         1.06776 
        5.76486         16.7277         1.06021 
        5.78054         16.6298         1.05275 
        5.79626         16.4802         1.04534 
          5.812         16.3853         1.03799 
         5.8277         16.2601         1.03073 
        5.84339         16.1153         1.02354 
        5.85911         16.0089         1.01641 
        5.87484         15.8832         1.00935 
        5.89053         15.8235         1.00236 
        5.90623         15.6676         0.99544 
        5.92195         15.5313        0.988572 
        5.93767         15.4356        0.981773 
        5.95336         15.3138        0.975048 
        5.96905         15.1991        0.968388 
        5.98476         15.1004        0.961781 
        6.00048         14.9681        0.955233 
        6.01617         14.8913        0.948755 
        6.03185         14.8041        0.942344 
        6.04756         14.6705        0.935977 
        6.06331         14.5845        0.929655 
        6.07903         14.4742        0.923404 
        6.09473          14.373        0.917217 
        6.11044         14.2518         0.91108 
        6.12616         14.1843           0.905 
        6.14186         14.0524        0.898981 
        6.15755         13.9828        0.893018 
        6.17326         13.8576        0.887103 
        6.18898         13.7847        0.881239 
        6.20467         13.6723        0.875438 
        6.22036         13.5925         0.86969 
         6.2361         13.4911        0.863978 
         6.2518         13.4105        0.858326 
        6.26748         13.2551        0.852737 
        6.28319         13.1962        0.847181 
        6.29893         13.1239        0.841671 
        6.31463         13.0171        0.836218 
        6.33033         12.9486        0.830816 
        6.34604         12.8561        0.825457 
        6.36177         12.7638         0.82014 
        6.37747         12.6747        0.814879 
