# k  (h/Mpc)    Pcb(k)  (Mpc/h)^3    Pcb_linear(k) (Mpc/h)^3   ShotnoiseSubtracted = true
      0.0200456         13333.6           13530 
      0.0350414         9872.89         9595.83 
      0.0492313         6747.65          6812.1 
      0.0637834          5392.1         5589.78 
      0.0800726          4243.2         4440.02 
       0.096163         3325.33         3199.16 
       0.111083         2658.15         2502.97 
       0.126058         2198.12         2200.35 
       0.142273         1911.02         1882.35 
       0.158546         1566.04         1484.35 
        0.17375         1357.73         1228.16 
       0.188953         1256.67         1103.51 
       0.204907         1076.21         985.277 
       0.220756         965.675         835.808 
        0.23588         854.042         718.053 
         0.2514         761.509         646.369 
       0.267535         738.763         587.641 
       0.283568             646          520.35 
       0.299022         614.721         460.334 
       0.314451          622.35         417.457 
       0.330372         533.929         383.274 
       0.346141         493.558         348.953 
       0.361624         471.052         316.195 
       0.377134         441.529         289.323 
       0.392932         426.464         267.283 
       0.408854         405.693         246.735 
       0.424564         391.941         227.191 
       0.440253         354.594          209.88 
       0.455999         338.898         195.141 
       0.471626         340.539          181.98 
        0.48727         322.164         169.557 
       0.502856         296.141         158.212 
       0.518488         296.623         148.082 
       0.534347         275.802         138.842 
       0.550082         266.628         130.344 
       0.565732         265.125         122.509 
       0.581496         251.767         115.303 
       0.597222         244.578         108.751 
       0.612804          237.55         102.748 
       0.628434         228.833         97.1514 
       0.644267         218.515         91.8972 
       0.660051         214.955         87.0651 
       0.675724         211.643         82.6213 
       0.691403          206.17         78.4831 
       0.707174         198.591          74.603 
       0.722871         195.266         70.9988 
        0.73838         193.222         67.6696 
       0.754018         183.169         64.5274 
       0.769845         182.865         61.5494 
        0.78569         177.813         58.7557 
       0.801365          172.56         56.1622 
       0.817031         168.949         53.7267 
       0.832809         165.732         51.4202 
       0.848511         161.471         49.2597 
       0.864097         157.736         47.2384 
       0.879701         156.588         45.3287 
       0.895507         152.673         43.5022 
       0.911279         148.034         41.7803 
        0.92691         145.608          40.166 
       0.942635         143.515         38.6281 
       0.958396           140.8         37.1676 
       0.974128         137.913         35.7853 
       0.989692         133.838          34.487 
        1.00528         132.899         33.2513 
        1.02113         129.649         32.0567 
        1.03692          127.87         30.9252 
        1.05264         125.987         29.8536 
        1.06832         123.848         28.8344 
        1.08405         121.288           27.86 
        1.09979         120.462         26.9301 
        1.11537         117.534         26.0518 
        1.13105         116.108         25.2075 
        1.14679         114.125         24.3973 
        1.16256         112.034         23.6211 
        1.17828         110.726         22.8812 
        1.19395         108.127         22.1755 
         1.2097         107.072          21.496 
        1.22537         105.258         20.8482 
          1.241         103.813          20.229 
        1.25666         101.416         19.6335 
        1.27241         99.4217         19.0591 
        1.28819         98.8695         18.5067 
        1.30392         97.1279         17.9778 
        1.31957         95.4227         17.4719 
        1.33529         94.2068         16.9836 
        1.35108         93.3743          16.512 
        1.36674         91.5075         16.0617 
         1.3824         91.1255         15.6285 
        1.39811         88.8127         15.2099 
        1.41389         87.9246         14.8051 
        1.42964         86.0231         14.4156 
        1.44531          85.377          14.042 
        1.46101         84.0283         13.6808 
        1.47667         83.4436         13.3334 
        1.49229         82.4615          12.999 
        1.50793         80.8168         12.6757 
        1.52367         80.0001         12.3613 
        1.53953         79.1064         12.0554 
        1.55526         77.6839         11.7622 
        1.57092         77.2561         11.4801 
        1.58662         76.1137         11.2065 
        1.60235         74.9111         10.9412 
        1.61809         74.0626         10.6844 
        1.63369         72.8425         10.4382 
        1.64941         72.8078         10.1979 
        1.66519         71.1279         9.96425 
        1.68085         70.1574         9.73961 
        1.69652         69.0559         9.52181 
        1.71228         68.2254         9.30943 
        1.72806         67.8848         9.10334 
        1.74368         66.5958         8.90554 
        1.75933         66.0238         8.71322 
        1.77505         65.4046         8.52566 
        1.79081         64.1365         8.34329 
         1.8065         63.7684         8.16702 
        1.82218         62.5572         7.99598 
        1.83797         62.1518         7.82866 
        1.85367         61.0801         7.66705 
        1.86928         60.4412         7.51095 
        1.88497          59.846         7.35834 
        1.90073         59.0438          7.2094 
        1.91647         58.2467         7.06471 
        1.93218         57.5968         6.92428 
        1.94787          56.859         6.78787 
        1.96363         56.1085         6.65459 
        1.97935         55.5818         6.52515 
        1.99499         54.9219         6.39987 
        2.01064         54.2559          6.2777 
         2.0264         53.5865         6.15794 
        2.04216         52.9122         6.04135 
        2.05781          52.261         5.92852 
        2.07353         51.6864         5.81815 
        2.08928         51.0581         5.71035 
        2.10499         50.4604         5.60556 
        2.12065         49.9794          5.5037 
        2.13633         49.4916         5.40429 
        2.15211         48.7831         5.30668 
        2.16785         47.9799         5.21175 
        2.18349         47.5131         5.11973 
        2.19916         46.9696         5.02973 
        2.21489          46.599         4.94159 
        2.23063         45.9164          4.8555 
         2.2463         45.4696         4.77184 
        2.26194         45.2279         4.69035 
        2.27765         44.4115         4.61035 
        2.29341         43.8488         4.53199 
        2.30914         43.3191         4.45562 
        2.32486         42.8111         4.38104 
        2.34061         42.5069         4.30804 
        2.35635         41.8306         4.23676 
        2.37203         41.3385         4.16734 
        2.38768         41.1046         4.09961 
        2.40339         40.5952         4.03314 
        2.41914         40.1449         3.96799 
        2.43483         39.5101         3.90449 
         2.4505         39.3198         3.84249 
        2.46622         38.8552         3.78162 
        2.48195         38.3018         3.72206 
        2.49759         37.8498          3.6641 
        2.51328         37.5822         3.60721 
        2.52906         37.1383         3.55117 
        2.54479         36.8301         3.49653 
        2.56049         36.0896         3.44313 
        2.57618          35.894          3.3909 
        2.59189         35.5352         3.33967 
        2.60758         34.9384         3.28957 
        2.62325         34.8743         3.24055 
        2.63898         34.4137         3.19237 
        2.65468           34.04         3.14526 
        2.67044         33.8008         3.09889 
        2.68618         33.4288         3.05357 
        2.70184         32.8407         3.00932 
        2.71755         32.6447         2.96585 
        2.73329         32.1324         2.92316 
        2.74897         31.9359         2.88144 
        2.76462         31.4786         2.84064 
        2.78034         31.2238         2.80045 
        2.79607         30.8156         2.76099 
        2.81179         30.5098         2.72233 
        2.82749         30.2345         2.68446 
        2.84321         29.8312         2.64726 
        2.85893         29.5183         2.61078 
        2.87462         29.2349         2.57504 
        2.89033         28.9844         2.53994 
        2.90605         28.6461         2.50546 
        2.92176         28.4521         2.47163 
        2.93747         28.2006         2.43844 
        2.95318         27.8518         2.40586 
        2.96891         27.5087         2.37385 
        2.98456         27.3322         2.34256 
        3.00023          27.024         2.31179 
        3.01596         26.7128         2.28148 
        3.03164         26.4032         2.25179 
        3.04738         26.2062         2.22255 
         3.0631         26.0053         2.19383 
        3.07883          25.629         2.16561 
        3.09456         25.3172         2.13789 
        3.11026         25.0845          2.1107 
        3.12596         24.8309         2.08399 
        3.14163         24.5941         2.05779 
        3.15734         24.3653         2.03199 
        3.17308         24.0498         2.00656 
        3.18879         23.8432         1.98163 
        3.20447         23.6513         1.95717 
         3.2202         23.3635         1.93304 
         3.2359          23.082         1.90935 
        3.25157         22.9832         1.88612 
        3.26729         22.7501         1.86321 
        3.28304         22.3632         1.84062 
        3.29877         22.1876         1.81844 
        3.31446         21.9895         1.79668 
        3.33014         21.8055         1.77528 
        3.34585         21.5743         1.75421 
        3.36158         21.4187         1.73344 
        3.37727         21.1016         1.71307 
        3.39294         20.9514         1.69304 
        3.40867         20.7522         1.67326 
        3.42439         20.5797         1.65381 
        3.44008         20.3287          1.6347 
        3.45578         20.2256         1.61588 
        3.47153         19.9362         1.59732 
        3.48724          19.777         1.57908 
        3.50292         19.5844         1.56116 
        3.51859         19.4046         1.54353 
        3.53431          19.212         1.52611 
        3.55007         19.0333         1.50892 
        3.56577         18.8632         1.49206 
        3.58146         18.6837         1.47547 
        3.59719         18.4713         1.45909 
        3.61292         18.3211         1.44296 
        3.62859         18.1233         1.42714 
        3.64429         17.9034         1.41152 
        3.66003         17.8399         1.39608 
        3.67578         17.6342         1.38089 
        3.69146         17.4576         1.36597 
        3.70712         17.3248          1.3513 
        3.72284         17.1317         1.33679 
        3.73853         17.0277         1.32252 
        3.75422         16.8022         1.30845 
        3.76993         16.6817         1.29457 
        3.78564         16.5145          1.2809 
        3.80137         16.3726         1.26741 
        3.81707         16.2202         1.25413 
        3.83279         16.0669         1.24104 
        3.84853         15.8836          1.2281 
        3.86424         15.7525         1.21538 
        3.87992         15.6199         1.20286 
        3.89561         15.5118         1.19051 
        3.91134         15.3059         1.17831 
        3.92704          15.218         1.16629 
        3.94273         15.0474         1.15445 
        3.95845         14.9389         1.14276 
        3.97418         14.7861         1.13122 
        3.98988         14.6487         1.11986 
        4.00554         14.5692         1.10868 
        4.02125         14.3629         1.09762 
        4.03698         14.2236          1.0867 
        4.05268         14.1285         1.07595 
        4.06839         14.0232         1.06533 
         4.0841         13.8725         1.05486 
        4.09983         13.7459         1.04452 
        4.11555         13.6084         1.03432 
        4.13124         13.5245         1.02428 
        4.14693         13.4401         1.01437 
        4.16266         13.3036         1.00457 
        4.17839         13.1594        0.994897 
        4.19408         13.0412        0.985376 
        4.20977         12.9327        0.975974 
        4.22551         12.8235        0.966673 
        4.24123         12.6836        0.957501 
        4.25691         12.5477        0.948473 
        4.27259         12.4992        0.939558 
        4.28831         12.4246        0.930739 
        4.30404         12.2671        0.922025 
        4.31974         12.1767        0.913441 
        4.33543         12.0779         0.90497 
        4.35116         11.9641        0.896586 
        4.36688         11.8493        0.888311 
        4.38255         11.7681        0.880171 
        4.39825         11.6295        0.872114 
        4.41398         11.5619        0.864142 
         4.4297         11.4425        0.856278 
        4.44541         11.3433        0.848513 
        4.46111         11.2805        0.840849 
        4.47683         11.1733        0.833275 
        4.49251         11.0783        0.825808 
        4.50819         10.9809        0.818435 
         4.5239         10.8954         0.81114 
        4.53962         10.8209        0.803925 
        4.55535         10.7155        0.796794 
        4.57106         10.6425         0.78976 
        4.58678         10.5425        0.782808 
         4.6025         10.4662        0.775938 
        4.61821         10.3669        0.769152 
        4.63391         10.2878        0.762455 
         4.6496         10.1846         0.75584 
        4.66532         10.1368        0.749293 
        4.68103         10.0154        0.742826 
        4.69673         9.93653        0.736441 
        4.71241         9.86132        0.730137 
        4.72811         9.80587        0.723897 
        4.74384         9.70574        0.717721 
        4.75955         9.64282        0.711626 
        4.77525          9.5612        0.705605 
        4.79096         9.51021        0.699646 
        4.80669         9.42924        0.693753 
         4.8224         9.34017        0.687934 
        4.83809         9.26893        0.682188 
        4.85379         9.17526        0.676503 
         4.8695           9.105        0.670878 
        4.88521         9.04139         0.66532 
        4.90093         8.99296        0.659823 
        4.91663         8.88996        0.654393 
        4.93234         8.83177        0.649018 
        4.94807         8.75111          0.6437 
        4.96377         8.67784        0.638451 
        4.97943         8.63324        0.633271 
        4.99514          8.5336        0.628135 
        5.01086         8.49304        0.623052 
        5.02654          8.4263        0.618038 
        5.04227         8.34691        0.613064 
          5.058         8.28999        0.608143 
        5.07371         8.22818        0.603285 
        5.08942         8.17277        0.598478 
        5.10513         8.09914        0.593724 
        5.12084         8.06402        0.589019 
        5.13656         7.97499        0.584365 
        5.15225         7.90065        0.579769 
        5.16796         7.86355        0.575215 
        5.18369         7.79749        0.570706 
         5.1994         7.73719        0.566253 
        5.21509         7.67301        0.561851 
        5.23079         7.60664        0.557491 
        5.24649         7.55603         0.55318 
        5.26217         7.49186        0.548918 
        5.27788         7.45646        0.544694 
        5.29359         7.38726        0.540513 
        5.30933          7.3503        0.536371 
        5.32504         7.29993        0.532278 
        5.34073         7.22922        0.528233 
        5.35646         7.17054        0.524221 
        5.37218         7.13017         0.52025 
        5.38789         7.07126        0.516327 
        5.40357          7.0106        0.512448 
        5.41929         6.97623          0.5086 
        5.43502         6.91982        0.504791 
         5.4507         6.86477         0.50103 
        5.46639         6.81841        0.497307 
        5.48212         6.77654        0.493612 
        5.49786         6.71917        0.489951 
        5.51353          6.6709        0.486345 
        5.52921         6.63415        0.482771 
        5.54495         6.58619        0.479222 
        5.56066         6.51377        0.475713 
        5.57637         6.48773         0.47224 
        5.59207         6.42773        0.468804 
        5.60778         6.39804          0.4654 
        5.62346         6.33923        0.462035 
        5.63916          6.3074          0.4587 
        5.65487         6.26146        0.455396 
         5.6706         6.21409        0.452121 
        5.68633         6.17249        0.448876 
        5.70203         6.12064         0.44567 
        5.71773         6.08286        0.442496 
        5.73344         6.05199         0.43935 
        5.74916         6.00005        0.436233 
        5.76486         5.96914        0.433149 
        5.78054          5.9201          0.4301 
        5.79626         5.87248        0.427072 
          5.812         5.84905         0.42407 
         5.8277         5.79134        0.421105 
        5.84339         5.75234        0.418168 
        5.85911           5.703        0.415254 
        5.87484         5.67852        0.412367 
        5.89053         5.64189        0.409514 
        5.90623         5.60293        0.406687 
        5.92195         5.55784        0.403881 
        5.93767         5.52558        0.401103 
        5.95336          5.4858        0.398355 
        5.96905         5.44947        0.395635 
        5.98476         5.41484        0.392935 
        6.00048          5.3795         0.39026 
        6.01617         5.34351        0.387613 
        6.03185         5.30447        0.384994 
        6.04756         5.27107        0.382393 
        6.06331          5.2343         0.37981 
        6.07903         5.19256        0.377256 
        6.09473         5.15972        0.374728 
        6.11044         5.13801        0.372221 
        6.12616          5.0875        0.369737 
        6.14186         5.06133        0.367278 
        6.15755         5.02842        0.364842 
        6.17326         5.00728        0.362426 
        6.18898         4.96325         0.36003 
        6.20467         4.92902         0.35766 
        6.22036         4.89776        0.355312 
         6.2361         4.86134        0.352978 
         6.2518         4.82997        0.350669 
        6.26748          4.8112        0.348385 
        6.28319         4.77679        0.346116 
        6.29893         4.74151        0.343864 
        6.31463         4.71189        0.341637 
        6.33033         4.68639        0.339429 
        6.34604          4.6493         0.33724 
        6.36177         4.62678        0.335068 
        6.37747         4.59274        0.332919 
