# k  (h/Mpc)    Pcb(k)  (Mpc/h)^3    Pcb_linear(k) (Mpc/h)^3   ShotnoiseSubtracted = true
      0.0200456         5406.19         5490.77 
      0.0350414         3826.36         3894.18 
      0.0492313         2763.44         2764.49 
      0.0637834         2310.13         2268.44 
      0.0800726         1830.35         1801.85 
       0.096163         1283.53         1298.28 
       0.111083         1001.59         1015.76 
       0.126058         907.566         892.948 
       0.142273         786.251         763.897 
       0.158546         636.759          602.38 
        0.17375         509.922         498.413 
       0.188953         478.517         447.828 
       0.204907         447.776         399.845 
       0.220756           375.1         339.188 
        0.23588         325.146           291.4 
         0.2514         285.748         262.309 
       0.267535          269.63         238.476 
       0.283568         243.458         211.169 
       0.299022         222.483         186.813 
       0.314451         201.357         169.412 
       0.330372         186.759          155.54 
       0.346141         168.179         141.612 
       0.361624         158.656         128.318 
       0.377134         148.691         117.413 
       0.392932         134.302         108.469 
       0.408854         128.871          100.13 
       0.424564         123.063         92.1989 
       0.440253         114.671         85.1734 
       0.455999         107.638         79.1921 
       0.471626          99.646         73.8512 
        0.48727         96.2029         68.8098 
       0.502856         91.4116         64.2054 
       0.518488         88.0987         60.0948 
       0.534347         84.4458         56.3447 
       0.550082         77.6282          52.896 
       0.565732         73.8716         49.7166 
       0.581496         71.3164         46.7921 
       0.597222         68.8801         44.1335 
       0.612804         65.0238         41.6971 
       0.628434         63.3449          39.426 
       0.644267         61.2957         37.2937 
       0.660051         59.1291         35.3328 
       0.675724          56.475         33.5294 
       0.691403         54.7361           31.85 
       0.707174         52.9459         30.2754 
       0.722871         51.2404         28.8127 
        0.73838         49.8486         27.4617 
       0.754018         47.3879         26.1865 
       0.769845         46.2761          24.978 
        0.78569         45.0094         23.8442 
       0.801365         43.3124         22.7917 
       0.817031         42.2595         21.8034 
       0.832809         41.5169         20.8674 
       0.848511         39.2779         19.9906 
       0.864097          38.494         19.1703 
       0.879701         37.7538         18.3953 
       0.895507         37.1471         17.6541 
       0.911279         35.9564         16.9553 
        0.92691         35.1076         16.3002 
       0.942635          33.777         15.6761 
       0.958396         33.4884         15.0834 
       0.974128         32.4804         14.5224 
       0.989692         31.9948         13.9955 
        1.00528          31.242          13.494 
        1.02113         30.1806         13.0093 
        1.03692         29.5454         12.5501 
        1.05264          29.168         12.1152 
        1.06832         28.3177         11.7016 
        1.08405         27.8153         11.3062 
        1.09979          27.268         10.9288 
        1.11537         26.4958         10.5724 
        1.13105         26.3636         10.2297 
        1.14679          25.949         9.90091 
        1.16256         25.0862         9.58592 
        1.17828          24.765         9.28567 
        1.19395         24.2032         8.99928 
         1.2097         23.9966         8.72351 
        1.22537         23.5506         8.46062 
          1.241         23.0039         8.20935 
        1.25666         22.4213         7.96765 
        1.27241         22.1531         7.73455 
        1.28819         21.5837         7.51038 
        1.30392         21.4028         7.29574 
        1.31957          21.201         7.09044 
        1.33529         20.9087         6.89228 
        1.35108         20.4092          6.7009 
        1.36674         20.0829         6.51815 
         1.3824          19.653         6.34238 
        1.39811         19.4569          6.1725 
        1.41389         19.2568         6.00819 
        1.42964         18.8561         5.85013 
        1.44531         18.7574         5.69852 
        1.46101         18.2517         5.55196 
        1.47667         18.0306         5.41098 
        1.49229         17.8436         5.27527 
        1.50793         17.5963         5.14405 
        1.52367         17.3668         5.01644 
        1.53953         17.1731         4.89231 
        1.55526         16.8455         4.77336 
        1.57092         16.5663         4.65884 
        1.58662         16.4106         4.54781 
        1.60235         16.1784         4.44018 
        1.61809         15.9863         4.33596 
        1.63369         15.7879         4.23602 
        1.64941         15.4594          4.1385 
        1.66519         15.3956         4.04369 
        1.68085         15.1413         3.95253 
        1.69652         14.9458         3.86414 
        1.71228         14.7917         3.77795 
        1.72806         14.6153         3.69432 
        1.74368         14.3949         3.61405 
        1.75933         14.2411           3.536 
        1.77505         14.0741         3.45989 
        1.79081         13.8651         3.38587 
         1.8065         13.7922         3.31434 
        1.82218          13.528         3.24493 
        1.83797         13.3349         3.17703 
        1.85367         13.2091         3.11144 
        1.86928         13.1244         3.04809 
        1.88497         12.9039         2.98616 
        1.90073         12.8792         2.92572 
        1.91647         12.6626           2.867 
        1.93218         12.5387         2.81001 
        1.94787         12.4158         2.75465 
        1.96363           12.31         2.70056 
        1.97935          12.143         2.64804 
        1.99499         11.9609          2.5972 
        2.01064         11.8664         2.54762 
         2.0264         11.7247         2.49901 
        2.04216         11.5969          2.4517 
        2.05781         11.4196         2.40591 
        2.07353         11.3456         2.36112 
        2.08928         11.2285         2.31737 
        2.10499         11.1149         2.27485 
        2.12065          10.943         2.23351 
        2.13633         10.9374         2.19317 
        2.15211          10.747         2.15356 
        2.16785         10.7147         2.11503 
        2.18349         10.6207         2.07769 
        2.19916         10.4709         2.04116 
        2.21489         10.3846          2.0054 
        2.23063         10.2592         1.97046 
         2.2463         10.1426         1.93651 
        2.26194         10.0506         1.90344 
        2.27765          10.013         1.87097 
        2.29341         9.87348         1.83917 
        2.30914         9.71855         1.80818 
        2.32486         9.69086         1.77791 
        2.34061         9.59315         1.74829 
        2.35635         9.49289         1.71936 
        2.37203         9.44267         1.69119 
        2.38768         9.27522         1.66371 
        2.40339         9.19438         1.63673 
        2.41914         9.10832         1.61029 
        2.43483         9.07916         1.58452 
         2.4505         8.97956         1.55936 
        2.46622         8.88343         1.53466 
        2.48195         8.83736         1.51049 
        2.49759         8.72786         1.48696 
        2.51328         8.63022         1.46388 
        2.52906         8.57407         1.44114 
        2.54479         8.47579         1.41896 
        2.56049         8.45724         1.39729 
        2.57618          8.3758          1.3761 
        2.59189         8.25206          1.3553 
        2.60758          8.2393         1.33497 
        2.62325         8.16778         1.31508 
        2.63898         8.03191         1.29553 
        2.65468         7.95003         1.27641 
        2.67044         7.90882         1.25759 
        2.68618         7.82068          1.2392 
        2.70184         7.78644         1.22124 
        2.71755         7.70369          1.2036 
        2.73329         7.61103         1.18628 
        2.74897         7.57729         1.16935 
        2.76462         7.54826         1.15279 
        2.78034         7.41065         1.13648 
        2.79607         7.38546         1.12046 
        2.81179         7.32102         1.10478 
        2.82749         7.28806         1.08941 
        2.84321         7.21783         1.07431 
        2.85893         7.15746         1.05951 
        2.87462          7.0924           1.045 
        2.89033         7.01161         1.03076 
        2.90605         6.95917         1.01676 
        2.92176         6.91389         1.00304 
        2.93747         6.85862         0.98957 
        2.95318         6.82381        0.976345 
        2.96891         6.75074        0.963356 
        2.98456         6.67588         0.95066 
        3.00023         6.63574        0.938173 
        3.01596         6.59599         0.92587 
        3.03164         6.55834        0.913823 
        3.04738         6.51317        0.901954 
         3.0631         6.42788        0.890299 
        3.07883         6.39118        0.878848 
        3.09456         6.33839        0.867601 
        3.11026         6.28291        0.856566 
        3.12596         6.24947        0.845724 
        3.14163         6.18294        0.835094 
        3.15734         6.14599        0.824621 
        3.17308         6.09218        0.814302 
        3.18879         6.03346        0.804187 
        3.20447         6.00417        0.794258 
         3.2202         5.93621        0.784465 
         3.2359         5.91225        0.774854 
        3.25157         5.86289        0.765426 
        3.26729         5.83645        0.756126 
        3.28304         5.76392        0.746962 
        3.29877         5.72406        0.737961 
        3.31446         5.69024        0.729128 
        3.33014         5.64156        0.720446 
        3.34585         5.62787        0.711892 
        3.36158         5.56425        0.703463 
        3.37727         5.53621        0.695197 
        3.39294         5.50037         0.68707 
        3.40867         5.43504        0.679044 
        3.42439         5.40832         0.67115 
        3.44008         5.35992        0.663396 
        3.45578         5.32021        0.655758 
        3.47153         5.29113        0.648224 
        3.48724         5.24964         0.64082 
        3.50292         5.22409        0.633549 
        3.51859         5.17416        0.626394 
        3.53431         5.12908        0.619327 
        3.55007         5.11187        0.612351 
        3.56577         5.07267         0.60551 
        3.58146         5.04374        0.598775 
        3.59719         4.99243        0.592127 
        3.61292         4.97453        0.585582 
        3.62859         4.92858         0.57916 
        3.64429         4.89416        0.572822 
        3.66003         4.84679        0.566559 
        3.67578         4.83288        0.560391 
        3.69146         4.77094        0.554338 
        3.70712         4.76688        0.548385 
        3.72284         4.71477        0.542497 
        3.73853         4.68635        0.536706 
        3.75422         4.65139        0.530996 
        3.76993         4.63402        0.525364 
        3.78564         4.58498        0.519816 
        3.80137         4.56559        0.514339 
        3.81707         4.53097        0.508952 
        3.83279         4.50236        0.503637 
        3.84853         4.45927        0.498389 
        3.86424         4.42415        0.493226 
        3.87992         4.40276        0.488144 
        3.89561         4.37637        0.483132 
        3.91134         4.33624        0.478181 
        3.92704         4.30883        0.473304 
        3.94273         4.28047          0.4685 
        3.95845         4.25668        0.463753 
        3.97418         4.22874        0.459071 
        3.98988         4.19526         0.45446 
        4.00554         4.17307        0.449924 
        4.02125         4.14349        0.445437 
        4.03698         4.10899        0.441004 
        4.05268         4.08271        0.436641 
        4.06839         4.06379        0.432334 
         4.0841         4.02968        0.428085 
        4.09983         3.99581        0.423888 
        4.11555         3.95687        0.419749 
        4.13124         3.93814        0.415675 
        4.14693         3.90821        0.411653 
        4.16266         3.87626        0.407674 
        4.17839         3.85497        0.403749 
        4.19408         3.81425        0.399885 
        4.20977         3.79822         0.39607 
        4.22551         3.76537        0.392295 
        4.24123         3.74954        0.388573 
        4.25691         3.72856         0.38491 
        4.27259         3.70716        0.381292 
        4.28831         3.67845        0.377713 
        4.30404         3.64921        0.374176 
        4.31974         3.62355        0.370693 
        4.33543         3.59159        0.367255 
        4.35116         3.57031        0.363853 
        4.36688         3.53955        0.360494 
        4.38255         3.51751        0.357191 
        4.39825         3.50807        0.353922 
        4.41398         3.48591        0.350686 
         4.4297         3.45919        0.347495 
        4.44541         3.44102        0.344344 
        4.46111         3.42011        0.341234 
        4.47683         3.37662         0.33816 
        4.49251         3.37309         0.33513 
        4.50819         3.34619        0.332137 
         4.5239         3.32465        0.329177 
        4.53962          3.3165        0.326249 
        4.55535         3.28906        0.323355 
        4.57106          3.2687          0.3205 
        4.58678         3.24535        0.317679 
         4.6025          3.2289        0.314891 
        4.61821         3.20828        0.312137 
        4.63391         3.18658        0.309419 
         4.6496         3.17067        0.306735 
        4.66532         3.14337        0.304078 
        4.68103         3.11982        0.301454 
        4.69673         3.10766        0.298863 
        4.71241           3.078        0.296304 
        4.72811          3.0684        0.293772 
        4.74384         3.05606        0.291266 
        4.75955         3.02765        0.288792 
        4.77525         3.00462        0.286349 
        4.79096           2.985         0.28393 
        4.80669         2.97367        0.281539 
         4.8224         2.95722        0.279177 
        4.83809         2.94012        0.276845 
        4.85379         2.92298        0.274539 
         4.8695         2.90186        0.272256 
        4.88521         2.87817            0.27 
        4.90093         2.87446         0.26777 
        4.91663         2.85287        0.265566 
        4.93234         2.83626        0.263385 
        4.94807         2.82459        0.261226 
        4.96377         2.79316        0.259096 
        4.97943         2.77864        0.256994 
        4.99514         2.76007         0.25491 
        5.01086         2.75094        0.252847 
        5.02654         2.73132        0.250812 
        5.04227         2.71789        0.248794 
          5.058         2.70867        0.246797 
        5.07371         2.68771        0.244825 
        5.08942         2.67359        0.242875 
        5.10513         2.65444        0.240945 
        5.12084         2.63783        0.239036 
        5.13656         2.62733        0.237147 
        5.15225         2.60817        0.235282 
        5.16796         2.59822        0.233434 
        5.18369         2.58149        0.231604 
         5.1994         2.56499        0.229797 
        5.21509         2.55278         0.22801 
        5.23079         2.53439        0.226241 
        5.24649         2.52474        0.224492 
        5.26217         2.50925        0.222762 
        5.27788         2.49121        0.221048 
        5.29359         2.47881        0.219351 
        5.30933         2.46489         0.21767 
        5.32504         2.44915        0.216009 
        5.34073         2.43308        0.214368 
        5.35646         2.42571         0.21274 
        5.37218         2.40523        0.211128 
        5.38789         2.39567        0.209536 
        5.40357         2.38402        0.207962 
        5.41929         2.36756          0.2064 
        5.43502          2.3592        0.204854 
         5.4507         2.34515        0.203328 
        5.46639         2.33133        0.201817 
        5.48212         2.31885        0.200318 
        5.49786         2.30417        0.198832 
        5.51353         2.29096        0.197368 
        5.52921          2.2859        0.195918 
        5.54495         2.26818        0.194478 
        5.56066         2.25694        0.193054 
        5.57637          2.2444        0.191644 
        5.59207         2.23431         0.19025 
        5.60778         2.22418        0.188869 
        5.62346         2.20907        0.187503 
        5.63916         2.19595         0.18615 
        5.65487         2.18573        0.184809 
         5.6706         2.17252         0.18348 
        5.68633         2.16208        0.182163 
        5.70203         2.15147        0.180862 
        5.71773         2.13602        0.179574 
        5.73344         2.12282        0.178297 
        5.74916         2.11558        0.177032 
        5.76486         2.10891        0.175781 
        5.78054         2.09488        0.174543 
        5.79626         2.09054        0.173314 
          5.812         2.07491        0.172096 
         5.8277         2.06588        0.170893 
        5.84339         2.05133        0.169701 
        5.85911         2.04518        0.168518 
        5.87484         2.03408        0.167347 
        5.89053           2.021        0.166189 
        5.90623         2.01246        0.165042 
        5.92195         2.00367        0.163903 
        5.93767         1.98967        0.162776 
        5.95336         1.98051        0.161661 
        5.96905         1.97233        0.160556 
        5.98476         1.96031        0.159461 
        6.00048         1.95122        0.158375 
        6.01617         1.94188        0.157301 
        6.03185         1.93192        0.156238 
        6.04756         1.91924        0.155183 
        6.06331         1.91034        0.154135 
        6.07903         1.90277        0.153098 
        6.09473         1.89773        0.152072 
        6.11044         1.88252        0.151055 
        6.12616         1.87251        0.150047 
        6.14186         1.86937        0.149049 
        6.15755         1.85937         0.14806 
        6.17326         1.85235         0.14708 
        6.18898         1.84204        0.146107 
        6.20467         1.83149        0.145146 
        6.22036         1.82126        0.144193 
         6.2361         1.81588        0.143245 
         6.2518         1.80671        0.142308 
        6.26748         1.79338        0.141382 
        6.28319         1.78697        0.140461 
        6.29893         1.78033        0.139547 
        6.31463         1.77436        0.138643 
        6.33033         1.76081        0.137747 
        6.34604         1.75503        0.136859 
        6.36177         1.74729        0.135977 
        6.37747         1.74026        0.135105 
