# k  (h/Mpc)    Pcb(k)  (Mpc/h)^3    Pcb_linear(k) (Mpc/h)^3   ShotnoiseSubtracted = true
      0.0200456           22588         22974.7 
      0.0350414         16839.3         16294.2 
      0.0492313         11340.9         11567.3 
      0.0637834         9039.26         9491.72 
      0.0800726         7088.32         7539.38 
       0.096163         5677.31         5432.34 
       0.111083         4551.72         4250.17 
       0.126058         3740.94         3736.31 
       0.142273          3292.8         3196.33 
       0.158546         2694.51         2520.51 
        0.17375         2386.71         2085.48 
       0.188953         2256.21         1873.82 
       0.204907         1939.73         1673.05 
       0.220756         1753.85         1419.24 
        0.23588         1559.06         1219.29 
         0.2514         1407.07         1097.57 
       0.267535         1357.09         997.843 
       0.283568          1207.2         883.581 
       0.299022         1147.65          781.67 
       0.314451         1194.63         708.863 
       0.330372         1050.77         650.819 
       0.346141         963.479         592.539 
       0.361624         923.656         536.916 
       0.377134         885.083         491.285 
       0.392932         841.686         453.859 
       0.408854         806.844         418.968 
       0.424564         788.184         385.783 
       0.440253         728.105         356.386 
       0.455999         695.239         331.359 
       0.471626           707.8         309.011 
        0.48727         666.311         287.917 
       0.502856         638.135         268.651 
       0.518488          618.67         251.451 
       0.534347         593.309          235.76 
       0.550082         564.667          221.33 
       0.565732         556.462         208.026 
       0.581496          543.74          195.79 
       0.597222         531.352         184.665 
       0.612804         517.858         174.471 
       0.628434          495.68         164.968 
       0.644267         480.903         156.046 
       0.660051         475.367         147.841 
       0.675724         464.222         140.295 
       0.691403         451.641         133.268 
       0.707174         436.864          126.68 
       0.722871         431.859          120.56 
        0.73838         421.579         114.906 
       0.754018         409.802         109.571 
       0.769845         405.379         104.514 
        0.78569         396.178         99.7701 
       0.801365         381.966         95.3662 
       0.817031         379.187         91.2307 
       0.832809         372.598         87.3142 
       0.848511         366.222         83.6455 
       0.864097         355.996         80.2131 
       0.879701          354.91         76.9704 
       0.895507         341.092          73.869 
       0.911279         335.501         70.9451 
        0.92691         332.188         68.2039 
       0.942635         327.529         65.5925 
       0.958396         316.604         63.1125 
       0.974128         312.641         60.7653 
       0.989692         302.821         58.5607 
        1.00528         300.177         56.4623 
        1.02113         295.512         54.4339 
        1.03692         290.168         52.5126 
        1.05264         285.689         50.6929 
        1.06832         280.108         48.9622 
        1.08405         277.206         47.3077 
        1.09979         271.628         45.7287 
        1.11537         264.789         44.2373 
        1.13105         261.288         42.8036 
        1.14679         257.309         41.4278 
        1.16256          255.54         40.1099 
        1.17828         250.907         38.8535 
        1.19395         244.241         37.6552 
         1.2097         243.576         36.5013 
        1.22537         239.216         35.4013 
          1.241         232.795         34.3499 
        1.25666         231.219         33.3386 
        1.27241         227.716         32.3633 
        1.28819         222.643         31.4253 
        1.30392         222.281         30.5272 
        1.31957          215.52         29.6681 
        1.33529         212.415          28.839 
        1.35108         211.524         28.0382 
        1.36674         205.275         27.2735 
         1.3824         203.655         26.5381 
        1.39811         201.679         25.8273 
        1.41389         196.178         25.1397 
        1.42964         193.426         24.4784 
        1.44531         192.039          23.844 
        1.46101         188.206         23.2307 
        1.47667         185.919         22.6409 
        1.49229         183.204          22.073 
        1.50793         180.254          21.524 
        1.52367         177.422           20.99 
        1.53953         174.087         20.4706 
        1.55526         172.335         19.9729 
        1.57092          171.13         19.4937 
        1.58662         166.946         19.0292 
        1.60235         165.308         18.5788 
        1.61809         162.801         18.1427 
        1.63369          159.62         17.7245 
        1.64941         157.683         17.3165 
        1.66519         155.499         16.9198 
        1.68085         152.853         16.5384 
        1.69652         151.466         16.1685 
        1.71228         148.701         15.8079 
        1.72806         147.188         15.4579 
        1.74368         144.944         15.1221 
        1.75933         143.919         14.7955 
        1.77505          141.69          14.477 
        1.79081         138.659         14.1673 
         1.8065         137.509          13.868 
        1.82218         134.116         13.5776 
        1.83797         133.396         13.2935 
        1.85367         131.323          13.019 
        1.86928         129.608          12.754 
        1.88497         128.599         12.4948 
        1.90073         127.017         12.2419 
        1.91647         124.428         11.9962 
        1.93218         122.613         11.7578 
        1.94787         120.873         11.5261 
        1.96363         120.423         11.2998 
        1.97935         118.881           11.08 
        1.99499         116.715         10.8673 
        2.01064         114.493         10.6598 
         2.0264         113.732         10.4565 
        2.04216         111.921         10.2585 
        2.05781          109.96         10.0669 
        2.07353         109.069         9.87952 
        2.08928         107.491         9.69646 
        2.10499          106.54         9.51852 
        2.12065         105.084         9.34557 
        2.13633         103.796         9.17676 
        2.15211         101.957         9.01101 
        2.16785         100.875         8.84981 
        2.18349         99.5917         8.69356 
        2.19916         98.5247         8.54073 
        2.21489         97.1654         8.39107 
        2.23063         95.5602         8.24488 
         2.2463         94.4393         8.10282 
        2.26194            93.6         7.96446 
        2.27765         92.2904          7.8286 
        2.29341         91.2283         7.69556 
        2.30914         90.1299         7.56587 
        2.32486         88.7001         7.43923 
        2.34061         87.7515         7.31527 
        2.35635         86.9062         7.19424 
        2.37203         85.2515         7.07636 
        2.38768         84.6423         6.96135 
        2.40339         83.3594         6.84848 
        2.41914         82.4123         6.73784 
        2.43483         81.7252         6.63003 
         2.4505         80.4674         6.52475 
        2.46622         79.4563         6.42139 
        2.48195         78.6858         6.32025 
        2.49759          77.472         6.22182 
        2.51328         76.8509         6.12523 
        2.52906          75.795         6.03007 
        2.54479         74.7505         5.93728 
        2.56049         73.5578         5.84662 
        2.57618          72.888         5.75792 
        2.59189         72.0475         5.67092 
        2.60758         70.7971         5.58585 
        2.62325         70.4023         5.50263 
        2.63898         69.5843          5.4208 
        2.65468         68.7447          5.3408 
        2.67044         67.6502         5.26208 
        2.68618         66.8764         5.18511 
        2.70184         66.1952         5.10998 
        2.71755         65.5722         5.03616 
        2.73329         64.5819         4.96367 
        2.74897         63.9692         4.89284 
        2.76462         63.3909         4.82354 
        2.78034         62.2425          4.7553 
        2.79607         61.5263          4.6883 
        2.81179         61.1021         4.62266 
        2.82749          60.576         4.55835 
        2.84321         59.6756         4.49519 
        2.85893         58.9178         4.43323 
        2.87462         58.3888         4.37255 
        2.89033         57.7038         4.31294 
        2.90605         57.0882         4.25439 
        2.92176          56.491         4.19695 
        2.93747         56.0106          4.1406 
        2.95318         55.0391         4.08527 
        2.96891         54.6091         4.03092 
        2.98456         53.8732         3.97779 
        3.00023         53.3369         3.92554 
        3.01596         52.8753         3.87407 
        3.03164         52.1971         3.82366 
        3.04738         52.0013           3.774 
         3.0631         50.9622         3.72523 
        3.07883         50.5524         3.67732 
        3.09456         49.9284         3.63025 
        3.11026         49.5301         3.58408 
        3.12596         48.9864         3.53872 
        3.14163         48.2516         3.49424 
        3.15734         47.7033         3.45042 
        3.17308          47.304         3.40724 
        3.18879         46.9085         3.36492 
        3.20447         46.4619         3.32337 
         3.2202         45.7735         3.28239 
         3.2359         45.2087         3.24218 
        3.25157         44.9456         3.20273 
        3.26729         44.4729         3.16382 
        3.28304         43.9097         3.12547 
        3.29877         43.5221         3.08781 
        3.31446         43.0966         3.05085 
        3.33014         42.5675         3.01452 
        3.34585         42.1194         2.97873 
        3.36158         41.7865         2.94346 
        3.37727         41.2527         2.90887 
        3.39294         40.9276         2.87487 
        3.40867         40.4804         2.84129 
        3.42439         40.0225         2.80826 
        3.44008         39.5184         2.77581 
        3.45578         39.2165         2.74385 
        3.47153         38.7198         2.71233 
        3.48724         38.4161         2.68135 
        3.50292         38.0867         2.65093 
        3.51859         37.5432         2.62099 
        3.53431         37.1737         2.59142 
        3.55007         36.8467         2.56223 
        3.56577         36.4812          2.5336 
        3.58146          36.089         2.50542 
        3.59719         35.7637         2.47761 
        3.61292         35.3546         2.45022 
        3.62859         35.0808         2.42335 
        3.64429          34.724         2.39683 
        3.66003         34.4272         2.37062 
        3.67578         34.0884         2.34481 
        3.69146         33.7711         2.31949 
        3.70712         33.4142         2.29458 
        3.72284         33.1183         2.26994 
        3.73853         32.7863         2.24571 
        3.75422         32.4471         2.22182 
        3.76993         32.1936         2.19825 
        3.78564         31.8385         2.17504 
        3.80137         31.6335         2.15212 
        3.81707         31.1167         2.12958 
        3.83279         31.0118         2.10734 
        3.84853         30.6636         2.08538 
        3.86424         30.3109         2.06378 
        3.87992         30.0709         2.04251 
        3.89561         29.8837         2.02154 
        3.91134         29.5761         2.00083 
        3.92704         29.3123         1.98042 
        3.94273         28.9886         1.96032 
        3.95845         28.7936         1.94046 
        3.97418         28.4878         1.92087 
        3.98988         28.1856         1.90157 
        4.00554         27.9614         1.88259 
        4.02125         27.7172         1.86382 
        4.03698         27.4096         1.84527 
        4.05268         27.2432         1.82701 
        4.06839         26.8894         1.80899 
         4.0841          26.713         1.79121 
        4.09983         26.4652         1.77365 
        4.11555         26.2001         1.75633 
        4.13124         26.0122         1.73929 
        4.14693         25.7273         1.72246 
        4.16266         25.5207         1.70581 
        4.17839         25.2514         1.68939 
        4.19408         25.0481         1.67322 
        4.20977         24.8714         1.65725 
        4.22551         24.5524         1.64146 
        4.24123         24.3454         1.62589 
        4.25691         24.1795         1.61056 
        4.27259         24.0395         1.59542 
        4.28831         23.6989         1.58044 
        4.30404         23.5476         1.56565 
        4.31974         23.3123         1.55107 
        4.33543         23.1564         1.53669 
        4.35116         22.9324         1.52245 
        4.36688         22.7218          1.5084 
        4.38255          22.578         1.49457 
        4.39825         22.3242         1.48089 
        4.41398          22.142         1.46736 
         4.4297           21.96           1.454 
        4.44541          21.816         1.44082 
        4.46111         21.5536         1.42781 
        4.47683         21.4174         1.41494 
        4.49251         21.2071         1.40226 
        4.50819         21.0669         1.38974 
         4.5239         20.8621         1.37736 
        4.53962         20.7179         1.36511 
        4.55535         20.4984           1.353 
        4.57106         20.3378         1.34105 
        4.58678         20.1701         1.32925 
         4.6025         19.9847         1.31758 
        4.61821         19.8004         1.30606 
        4.63391         19.6111         1.29469 
         4.6496         19.4917         1.28345 
        4.66532         19.3386         1.27234 
        4.68103         19.1718         1.26136 
        4.69673         19.0217         1.25051 
        4.71241         18.8876         1.23981 
        4.72811         18.6962         1.22921 
        4.74384         18.5254         1.21873 
        4.75955         18.3796         1.20838 
        4.77525         18.2297         1.19815 
        4.79096         18.1089         1.18803 
        4.80669         17.9473         1.17803 
         4.8224         17.7815         1.16815 
        4.83809         17.6713         1.15839 
        4.85379         17.4925         1.14874 
         4.8695         17.3794         1.13919 
        4.88521         17.2318         1.12975 
        4.90093         17.0601         1.12041 
        4.91663         16.9479         1.11119 
        4.93234         16.8307         1.10207 
        4.94807         16.6873         1.09304 
        4.96377         16.5674         1.08412 
        4.97943         16.4211         1.07533 
        4.99514         16.2714         1.06661 
        5.01086         16.1688         1.05797 
        5.02654         16.0534         1.04946 
        5.04227         15.9097         1.04101 
          5.058         15.7571         1.03266 
        5.07371         15.6341         1.02441 
        5.08942         15.4921         1.01625 
        5.10513         15.3973         1.00817 
        5.12084         15.2876         1.00018 
        5.13656         15.1229        0.992281 
        5.15225         15.0427        0.984477 
        5.16796          14.923        0.976745 
        5.18369         14.8095        0.969088 
         5.1994         14.7157        0.961526 
        5.21509         14.5968        0.954052 
        5.23079         14.4778        0.946648 
        5.24649         14.3736        0.939328 
        5.26217         14.2724         0.93209 
        5.27788         14.1439        0.924918 
        5.29359         14.0464        0.917819 
        5.30933         13.9314        0.910785 
        5.32504         13.8112        0.903836 
        5.34073         13.7164        0.896966 
        5.35646         13.6164        0.890154 
        5.37218         13.4943        0.883411 
        5.38789         13.3978        0.876749 
        5.40357         13.3056        0.870162 
        5.41929         13.2006        0.863629 
        5.43502         13.0954        0.857161 
         5.4507         12.9862        0.850775 
        5.46639         12.8878        0.844452 
        5.48212          12.812        0.838179 
        5.49786          12.719        0.831962 
        5.51353         12.6349        0.825838 
        5.52921         12.5328         0.81977 
        5.54495         12.4369        0.813744 
        5.56066         12.3551        0.807785 
        5.57637         12.2553        0.801887 
        5.59207          12.169        0.796052 
        5.60778         12.0704        0.790273 
        5.62346         11.9892         0.78456 
        5.63916         11.8937        0.778897 
        5.65487         11.8031        0.773286 
         5.6706          11.717        0.767724 
        5.68633         11.6316        0.762215 
        5.70203         11.5435        0.756771 
        5.71773         11.4647         0.75138 
        5.73344           11.38        0.746039 
        5.74916         11.3099        0.740745 
        5.76486         11.2207        0.735509 
        5.78054         11.1552        0.730332 
        5.79626          11.043         0.72519 
          5.812         11.0011        0.720092 
         5.8277         10.9033        0.715057 
        5.84339         10.8284        0.710071 
        5.85911         10.7461        0.705122 
        5.87484         10.6638        0.700221 
        5.89053         10.5944        0.695376 
        5.90623         10.5196        0.690575 
        5.92195         10.4204         0.68581 
        5.93767          10.356        0.681093 
        5.95336         10.2857        0.676428 
        5.96905         10.2206        0.671808 
        5.98476          10.157        0.667224 
        6.00048          10.073        0.662682 
        6.01617         10.0196        0.658187 
        6.03185         9.93113         0.65374 
        6.04756         9.88019        0.649323 
        6.06331         9.81489        0.644937 
        6.07903          9.7341        0.640601 
        6.09473         9.67503        0.636308 
        6.11044         9.59704        0.632051 
        6.12616         9.52577        0.627833 
        6.14186         9.47181        0.623658 
        6.15755         9.39007         0.61952 
        6.17326          9.3209        0.615417 
        6.18898         9.28903        0.611349 
        6.20467         9.20671        0.607325 
        6.22036         9.13712        0.603337 
         6.2361         9.08379        0.599374 
         6.2518         9.02811        0.595453 
        6.26748          8.9616        0.591576 
        6.28319          8.9116        0.587722 
        6.29893         8.84639        0.583899 
        6.31463         8.79218        0.580116 
        6.33033         8.71858        0.576368 
        6.34604         8.66642        0.572651 
        6.36177         8.60724        0.568962 
        6.37747         8.56577        0.565313 
