# k  (h/Mpc)    Pcb(k)  (Mpc/h)^3    Pcb_linear(k) (Mpc/h)^3   ShotnoiseSubtracted = true
      0.0200456         25179.6         25778.3 
      0.0350414         17388.5         18282.6 
      0.0492313         12694.4         12978.9 
      0.0637834         10907.1           10650 
      0.0800726         8597.86         8459.42 
       0.096163         5915.25         6095.25 
       0.111083         4712.15         4768.83 
       0.126058         4301.34         4192.26 
       0.142273         3748.19         3586.39 
       0.158546         3302.86         2828.09 
        0.17375         2624.14         2339.98 
       0.188953         2561.26         2102.48 
       0.204907         2406.18         1877.21 
       0.220756         2088.69         1592.44 
        0.23588         1871.84         1368.08 
         0.2514         1627.04          1231.5 
       0.267535         1627.12         1119.61 
       0.283568         1474.04         991.406 
       0.299022         1397.97         877.058 
       0.314451         1328.64         795.366 
       0.330372         1215.33         730.239 
       0.346141         1174.18         664.847 
       0.361624         1128.13         602.436 
       0.377134         1052.12         551.237 
       0.392932         1003.47         509.244 
       0.408854         989.856         470.095 
       0.424564         910.238          432.86 
       0.440253         892.693         399.877 
       0.455999         865.793         371.796 
       0.471626         835.407         346.721 
        0.48727         798.876         323.052 
       0.502856         773.998         301.435 
       0.518488         767.925         282.136 
       0.534347         720.212          264.53 
       0.550082         704.484         248.339 
       0.565732         698.189         233.412 
       0.581496         660.579         219.682 
       0.597222         645.134           207.2 
       0.612804         634.581         195.762 
       0.628434         616.481         185.099 
       0.644267         600.014         175.089 
       0.660051         584.359         165.882 
       0.675724         576.062         157.416 
       0.691403         557.268         149.531 
       0.707174         538.146         142.139 
       0.722871         529.827         135.272 
        0.73838         519.741         128.929 
       0.754018         509.327         122.942 
       0.769845         500.055         117.268 
        0.78569         490.404         111.945 
       0.801365         477.224         107.004 
       0.817031         465.563         102.364 
       0.832809          459.99         97.9692 
       0.848511         450.515         93.8528 
       0.864097         435.245         90.0016 
       0.879701         428.929         86.3632 
       0.895507         426.758         82.8833 
       0.911279         415.028         79.6026 
        0.92691         408.741         76.5269 
       0.942635         397.044         73.5969 
       0.958396         387.609         70.8142 
       0.974128         382.127         68.1806 
       0.989692           379.9         65.7069 
        1.00528         368.139         63.3525 
        1.02113         365.282         61.0765 
        1.03692         355.942         58.9208 
        1.05264         351.946          56.879 
        1.06832          342.34         54.9372 
        1.08405         337.341         53.0808 
        1.09979         332.218          51.309 
        1.11537         325.565         49.6357 
        1.13105         320.632          48.027 
        1.14679          310.49         46.4833 
        1.16256         305.187         45.0045 
        1.17828           304.4         43.5949 
        1.19395         297.153         42.2503 
         1.2097         290.643         40.9556 
        1.22537         285.035         39.7214 
          1.241         281.215         38.5417 
        1.25666         277.726          37.407 
        1.27241          272.83         36.3126 
        1.28819          267.48         35.2601 
        1.30392         262.076         34.2524 
        1.31957         260.165         33.2886 
        1.33529         256.116         32.3582 
        1.35108         250.285         31.4597 
        1.36674         245.954         30.6018 
         1.3824         243.559         29.7765 
        1.39811         239.115          28.979 
        1.41389         236.416         28.2076 
        1.42964         233.435         27.4655 
        1.44531          230.06         26.7537 
        1.46101         225.344         26.0656 
        1.47667         222.452         25.4037 
        1.49229         219.801         24.7666 
        1.50793         213.965         24.1506 
        1.52367         212.959         23.5515 
        1.53953         208.938         22.9687 
        1.55526         205.605         22.4102 
        1.57092         203.048         21.8726 
        1.58662         200.543         21.3513 
        1.60235         197.258          20.846 
        1.61809         194.531         20.3567 
        1.63369         192.273         19.8875 
        1.64941         188.193         19.4296 
        1.66519         186.571         18.9846 
        1.68085         183.777         18.5565 
        1.69652          181.34         18.1416 
        1.71228         176.731         17.7369 
        1.72806         174.613         17.3443 
        1.74368         172.017         16.9674 
        1.75933         169.761          16.601 
        1.77505         168.054         16.2437 
        1.79081         165.878         15.8962 
         1.8065         162.402         15.5603 
        1.82218         160.746         15.2345 
        1.83797         159.307         14.9157 
        1.85367         156.753         14.6078 
        1.86928         153.802         14.3104 
        1.88497         152.267         14.0196 
        1.90073         150.079         13.7358 
        1.91647         148.975         13.4601 
        1.93218         146.433         13.1926 
        1.94787         143.077         12.9327 
        1.96363         141.294         12.6788 
        1.97935         140.033         12.4321 
        1.99499         138.087         12.1935 
        2.01064         135.953         11.9607 
         2.0264         134.906         11.7325 
        2.04216         132.702         11.5104 
        2.05781         130.992         11.2954 
        2.07353         129.871         11.0851 
        2.08928         127.262         10.8797 
        2.10499         126.098         10.6801 
        2.12065         124.111          10.486 
        2.13633         121.952         10.2966 
        2.15211         120.484         10.1106 
        2.16785         119.183         9.92976 
        2.18349         117.989         9.75444 
        2.19916         116.143         9.58297 
        2.21489         114.982         9.41504 
        2.23063         113.003         9.25102 
         2.2463         111.804         9.09162 
        2.26194         109.883         8.93637 
        2.27765         108.831         8.78394 
        2.29341         107.364         8.63465 
        2.30914         106.271         8.48914 
        2.32486         104.552         8.34705 
        2.34061         103.475         8.20796 
        2.35635         102.072         8.07216 
        2.37203         100.959          7.9399 
        2.38768         99.3566         7.81086 
        2.40339         98.3544         7.68421 
        2.41914         96.9264         7.56007 
        2.43483         95.7556          7.4391 
         2.4505         94.6586         7.32097 
        2.46622         93.6286           7.205 
        2.48195         91.9815         7.09152 
        2.49759         91.0891         6.98108 
        2.51328         90.3185          6.8727 
        2.52906         89.0973         6.76593 
        2.54479         88.0176         6.66181 
        2.56049         86.5616         6.56009 
        2.57618          85.871         6.46056 
        2.59189         85.0982         6.36295 
        2.60758         83.8828          6.2675 
        2.62325         82.5528         6.17412 
        2.63898         81.5913         6.08231 
        2.65468         80.5455         5.99255 
        2.67044         79.9555         5.90421 
        2.68618         79.0627         5.81785 
        2.70184         78.2415         5.73356 
        2.71755         76.9445         5.65072 
        2.73329         76.4013         5.56939 
        2.74897         75.4468         5.48992 
        2.76462         74.5505         5.41217 
        2.78034         73.5145         5.33559 
        2.79607         72.4825         5.26042 
        2.81179         71.8138         5.18677 
        2.82749         71.1747         5.11461 
        2.84321         70.1657         5.04374 
        2.85893         69.4447         4.97423 
        2.87462         68.8111         4.90614 
        2.89033         67.7861         4.83926 
        2.90605         66.9197         4.77356 
        2.92176         66.1252         4.70911 
        2.93747         65.5719         4.64588 
        2.95318         64.8841          4.5838 
        2.96891         64.2213         4.52282 
        2.98456         63.5769         4.46321 
        3.00023         62.7208         4.40458 
        3.01596         61.8477         4.34683 
        3.03164         61.4367         4.29026 
        3.04738         60.5009         4.23454 
         3.0631         59.8215         4.17982 
        3.07883         59.3626         4.12606 
        3.09456         58.8173         4.07326 
        3.11026         58.0479         4.02145 
        3.12596         57.2678         3.97055 
        3.14163         57.0309         3.92064 
        3.15734         56.0465         3.87148 
        3.17308         55.4817         3.82303 
        3.18879         54.9836         3.77554 
        3.20447         54.3978         3.72892 
         3.2202         53.8724         3.68295 
         3.2359         53.1639         3.63783 
        3.25157          52.717         3.59357 
        3.26729         52.2103          3.5499 
        3.28304          51.723         3.50688 
        3.29877         51.0592         3.46462 
        3.31446         50.4303         3.42315 
        3.33014         50.0399         3.38239 
        3.34585         49.3844         3.34223 
        3.36158         49.0387         3.30266 
        3.37727         48.5371         3.26385 
        3.39294         47.7753         3.22569 
        3.40867         47.4476         3.18801 
        3.42439         47.0637         3.15095 
        3.44008         46.4092         3.11455 
        3.45578         46.0416         3.07869 
        3.47153         45.5358         3.04332 
        3.48724         45.1849         3.00856 
        3.50292         44.7807         2.97442 
        3.51859         44.1666         2.94083 
        3.53431         43.8875         2.90765 
        3.55007         43.4156          2.8749 
        3.56577         43.0425         2.84278 
        3.58146         42.5699         2.81116 
        3.59719         42.0718         2.77995 
        3.61292         41.6688         2.74922 
        3.62859         41.1678         2.71907 
        3.64429         40.8437         2.68931 
        3.66003         40.4499         2.65991 
        3.67578         40.0771         2.63095 
        3.69146         39.6015         2.60254 
        3.70712         39.2057         2.57459 
        3.72284         38.9622         2.54694 
        3.73853         38.4409         2.51975 
        3.75422          38.095         2.49295 
        3.76993         37.6443         2.46651 
        3.78564         37.4129         2.44046 
        3.80137         36.9617         2.41475 
        3.81707          36.584         2.38945 
        3.83279         36.3174          2.3645 
        3.84853         35.9419         2.33987 
        3.86424         35.6025         2.31563 
        3.87992         35.1925         2.29176 
        3.89561         34.9374         2.26824 
        3.91134         34.5903         2.24499 
        3.92704         34.1661         2.22209 
        3.94273         33.9228         2.19954 
        3.95845         33.6089         2.17725 
        3.97418         33.3827         2.15527 
        3.98988         33.0289         2.13362 
        4.00554         32.7777         2.11233 
        4.02125         32.4034         2.09126 
        4.03698         32.1442         2.07045 
        4.05268         31.8017         2.04997 
        4.06839         31.5016         2.02974 
         4.0841         31.2514          2.0098 
        4.09983         31.0235         1.99009 
        4.11555          30.693         1.97066 
        4.13124         30.4599         1.95153 
        4.14693         30.2117         1.93265 
        4.16266          29.873         1.91397 
        4.17839         29.5905         1.89554 
        4.19408         29.3263          1.8774 
        4.20977         29.0673         1.85949 
        4.22551         28.8577         1.84177 
        4.24123         28.5339         1.82429 
        4.25691         28.3333         1.80709 
        4.27259          28.052         1.79011 
        4.28831          27.817         1.77331 
        4.30404         27.6015          1.7567 
        4.31974         27.3517         1.74035 
        4.33543         27.0715         1.72421 
        4.35116          26.885         1.70823 
        4.36688         26.6211         1.69247 
        4.38255         26.3572         1.67696 
        4.39825         26.1873         1.66161 
        4.41398         25.9509         1.64642 
         4.4297         25.6905         1.63144 
        4.44541         25.5449         1.61664 
        4.46111         25.2321         1.60204 
        4.47683         25.0505         1.58761 
        4.49251         24.8535         1.57338 
        4.50819         24.6281         1.55934 
         4.5239         24.4802         1.54544 
        4.53962         24.2403         1.53169 
        4.55535         24.0488         1.51811 
        4.57106         23.8326          1.5047 
        4.58678          23.594         1.49146 
         4.6025         23.3675         1.47837 
        4.61821         23.2432         1.46544 
        4.63391          23.032         1.45268 
         4.6496         22.8533         1.44008 
        4.66532         22.6364          1.4276 
        4.68103         22.4609         1.41528 
        4.69673         22.2705         1.40312 
        4.71241         22.1048         1.39111 
        4.72811          21.885         1.37922 
        4.74384         21.7932         1.36745 
        4.75955         21.5167         1.35584 
        4.77525         21.4169         1.34437 
        4.79096         21.1815         1.33301 
        4.80669         21.0487         1.32178 
         4.8224         20.8093          1.3107 
        4.83809         20.7091         1.29975 
        4.85379         20.5605         1.28892 
         4.8695         20.3573          1.2782 
        4.88521         20.1986         1.26761 
        4.90093         19.9658         1.25714 
        4.91663         19.8355         1.24679 
        4.93234         19.6734         1.23655 
        4.94807         19.5504         1.22642 
        4.96377          19.393         1.21642 
        4.97943         19.1992         1.20655 
        4.99514         19.0579         1.19677 
        5.01086         18.9395         1.18708 
        5.02654         18.7557         1.17753 
        5.04227          18.632         1.16805 
          5.058         18.4492         1.15867 
        5.07371         18.3045         1.14942 
        5.08942         18.1411         1.14026 
        5.10513         18.0162          1.1312 
        5.12084          17.957         1.12224 
        5.13656         17.7799         1.11337 
        5.15225          17.608         1.10461 
        5.16796         17.4849         1.09594 
        5.18369         17.3308         1.08735 
         5.1994         17.2028         1.07886 
        5.21509         17.0715         1.07048 
        5.23079         16.9372         1.06217 
        5.24649         16.8554         1.05395 
        5.26217         16.6896         1.04583 
        5.27788         16.5894         1.03779 
        5.29359         16.4489         1.02982 
        5.30933         16.2492         1.02193 
        5.32504         16.1854         1.01413 
        5.34073         16.0791         1.00642 
        5.35646         15.9183        0.998781 
        5.37218         15.8057        0.991215 
        5.38789         15.6827        0.983739 
        5.40357         15.5882        0.976349 
        5.41929         15.4134        0.969018 
        5.43502         15.3601        0.961761 
         5.4507         15.1962        0.954596 
        5.46639         15.0934        0.947502 
        5.48212         15.0053        0.940463 
        5.49786         14.8907        0.933487 
        5.51353         14.7488        0.926616 
        5.52921         14.6666        0.919807 
        5.54495         14.5547        0.913046 
        5.56066          14.461         0.90636 
        5.57637         14.3327        0.899742 
        5.59207         14.2225        0.893196 
        5.60778         14.0653        0.886711 
        5.62346         14.0214          0.8803 
        5.63916         13.9246        0.873946 
        5.65487         13.8134        0.867651 
         5.6706         13.7258        0.861411 
        5.68633         13.6319        0.855229 
        5.70203         13.5072         0.84912 
        5.71773         13.4285        0.843072 
        5.73344         13.3532        0.837079 
        5.74916         13.2259        0.831139 
        5.76486         13.1394        0.825264 
        5.78054         13.0657        0.819455 
        5.79626         12.9369        0.813685 
          5.812         12.8584        0.807965 
         5.8277         12.7675        0.802316 
        5.84339         12.6681        0.796721 
        5.85911         12.5867        0.791169 
        5.87484         12.4792         0.78567 
        5.89053         12.3966        0.780234 
        5.90623         12.3086        0.774846 
        5.92195         12.2191          0.7695 
        5.93767          12.138        0.764208 
        5.95336         12.0825        0.758973 
        5.96905          11.949        0.753789 
        5.98476         11.8918        0.748646 
        6.00048         11.7843        0.743549 
        6.01617         11.7219        0.738507 
        6.03185         11.6438        0.733517 
        6.04756         11.5397         0.72856 
        6.06331         11.4712        0.723639 
        6.07903          11.411        0.718774 
        6.09473          11.336        0.713957 
        6.11044         11.2174        0.709181 
        6.12616         11.1527        0.704448 
        6.14186         11.0864        0.699763 
        6.15755         10.9973        0.695121 
        6.17326         10.9301        0.690517 
        6.18898         10.8682        0.685953 
        6.20467          10.796        0.681437 
        6.22036         10.7098        0.676963 
         6.2361         10.6097        0.672516 
         6.2518         10.5563        0.668117 
        6.26748         10.5041        0.663766 
        6.28319         10.3986        0.659442 
        6.29893         10.3395        0.655153 
        6.31463         10.2582        0.650909 
        6.33033         10.2226        0.646703 
        6.34604         10.1468        0.642532 
        6.36177         10.0623        0.638393 
        6.37747         9.98599        0.634298 
