# k  (h/Mpc)    Pcb(k)  (Mpc/h)^3    Pcb_linear(k) (Mpc/h)^3   ShotnoiseSubtracted = true
      0.0200456         10719.7         10870.6 
      0.0350414         7918.01         7709.72 
      0.0492313         5437.28         5473.15 
      0.0637834         4350.81         4491.08 
      0.0800726         3427.42         3567.31 
       0.096163         2665.32         2570.35 
       0.111083         2127.15            2011 
       0.126058         1765.09         1767.86 
       0.142273         1528.19         1512.37 
       0.158546         1251.11          1192.6 
        0.17375         1078.09         986.762 
       0.188953         990.797         886.611 
       0.204907         847.376         791.616 
       0.220756         758.765         671.526 
        0.23588         668.962         576.916 
         0.2514         595.805         519.322 
       0.267535         576.361         472.137 
       0.283568         502.563         418.073 
       0.299022         476.492         369.853 
       0.314451         475.722         335.403 
       0.330372          408.25          307.94 
       0.346141          377.76         280.364 
       0.361624         359.128         254.046 
       0.377134         333.227         232.455 
       0.392932         323.105         214.747 
       0.408854         306.588         198.238 
       0.424564         294.778         182.536 
       0.440253         265.736         168.627 
       0.455999         252.725         156.785 
       0.471626         251.152         146.211 
        0.48727         238.823          136.23 
       0.502856         217.977         127.114 
       0.518488         218.188         118.976 
       0.534347          202.49         111.552 
       0.550082         197.162         104.724 
       0.565732         195.174         98.4292 
       0.581496         182.141         92.6393 
       0.597222         177.693         87.3757 
       0.612804         171.916         82.5521 
       0.628434         166.422         78.0558 
       0.644267         158.221         73.8343 
       0.660051         154.604          69.952 
       0.675724         152.506         66.3817 
       0.691403         148.557         63.0568 
       0.707174          143.17         59.9394 
       0.722871         140.762         57.0436 
        0.73838          138.72         54.3688 
       0.754018         130.306         51.8442 
       0.769845         130.049         49.4515 
        0.78569         126.427         47.2069 
       0.801365         122.343         45.1232 
       0.817031         118.977         43.1664 
       0.832809         116.825         41.3133 
       0.848511          113.88         39.5775 
       0.864097         111.764         37.9534 
       0.879701         110.159         36.4191 
       0.895507         106.624         34.9516 
       0.911279         104.021         33.5682 
        0.92691         101.754         32.2711 
       0.942635         99.4909         31.0356 
       0.958396         98.6073         29.8621 
       0.974128           96.35         28.7515 
       0.989692         93.9487         27.7084 
        1.00528         92.6329         26.7156 
        1.02113         90.1183         25.7558 
        1.03692         89.7797         24.8467 
        1.05264         88.4294         23.9857 
        1.06832         85.5803         23.1668 
        1.08405         84.6649          22.384 
        1.09979         83.9568         21.6369 
        1.11537         81.5476         20.9312 
        1.13105         80.4651         20.2528 
        1.14679         79.1195         19.6019 
        1.16256         77.4731         18.9783 
        1.17828         76.7763         18.3838 
        1.19395         74.7005         17.8168 
         1.2097         74.4839         17.2709 
        1.22537         72.6705         16.7504 
          1.241         72.4749         16.2529 
        1.25666         69.8456         15.7744 
        1.27241         69.4017         15.3129 
        1.28819         68.8162         14.8691 
        1.30392         67.3947         14.4441 
        1.31957         66.7748         14.0377 
        1.33529         65.7208         13.6454 
        1.35108         65.2228         13.2665 
        1.36674          63.994         12.9047 
         1.3824         63.3803         12.5567 
        1.39811         61.8332         12.2204 
        1.41389         60.9354          11.895 
        1.42964         60.1702         11.5821 
        1.44531         59.6468          11.282 
        1.46101         58.9699         10.9918 
        1.47667         58.0136         10.7127 
        1.49229         57.2178          10.444 
        1.50793         56.4916         10.1842 
        1.52367         56.0581         9.93158 
        1.53953         55.1432         9.68582 
        1.55526           54.09         9.45032 
        1.57092         53.9883          9.2236 
        1.58662         53.1576         9.00378 
        1.60235         52.4536         8.79068 
        1.61809         51.4287         8.58436 
        1.63369         50.8434         8.38649 
        1.64941         50.5444         8.19342 
        1.66519          49.337         8.00573 
        1.68085         49.0023         7.82524 
        1.69652         48.0676         7.65025 
        1.71228         47.7176         7.47961 
        1.72806         47.2683         7.31403 
        1.74368         46.5027         7.15511 
        1.75933          46.196         7.00059 
        1.77505         45.6279          6.8499 
        1.79081         44.9803         6.70337 
         1.8065         44.6182         6.56175 
        1.82218          43.415         6.42433 
        1.83797         43.0967          6.2899 
        1.85367         42.7484         6.16005 
        1.86928         42.3782         6.03464 
        1.88497         41.6307         5.91202 
        1.90073         41.0587         5.79236 
        1.91647         40.9661          5.6761 
        1.93218         40.5652         5.56328 
        1.94787         39.8995         5.45368 
        1.96363         39.2888         5.34659 
        1.97935         38.9246         5.24259 
        1.99499         38.5079         5.14194 
        2.01064         37.8773         5.04378 
         2.0264          37.813         4.94756 
        2.04216         37.1768         4.85389 
        2.05781         36.7528         4.76324 
        2.07353         36.1421         4.67456 
        2.08928         36.0862         4.58795 
        2.10499         35.6933         4.50376 
        2.12065         35.1826         4.42192 
        2.13633         34.9823         4.34205 
        2.15211         34.4148         4.26362 
        2.16785         33.8551         4.18735 
        2.18349         33.5783         4.11342 
        2.19916         33.2458         4.04111 
        2.21489         33.0421          3.9703 
        2.23063         32.5606         3.90113 
         2.2463         32.2971         3.83391 
        2.26194         31.8858         3.76844 
        2.27765         31.5121         3.70416 
        2.29341         31.0913         3.64121 
        2.30914          30.792         3.57984 
        2.32486         30.3759         3.51992 
        2.34061         30.1522         3.46127 
        2.35635         29.8684         3.40401 
        2.37203         29.5608         3.34823 
        2.38768         29.3234         3.29381 
        2.40339         29.0426         3.24041 
        2.41914         28.7758         3.18806 
        2.43483         28.3979         3.13705 
         2.4505         28.1405         3.08723 
        2.46622         27.7644         3.03832 
        2.48195         27.6054         2.99047 
        2.49759         27.1973          2.9439 
        2.51328         26.9149          2.8982 
        2.52906         26.6936         2.85317 
        2.54479           26.45         2.80927 
        2.56049         26.2277         2.76637 
        2.57618         25.9112          2.7244 
        2.59189          25.632         2.68324 
        2.60758         25.3402         2.64299 
        2.62325         25.1904         2.60361 
        2.63898          24.959         2.56489 
        2.65468         24.5768         2.52704 
        2.67044         24.4382         2.48979 
        2.68618         24.1686         2.45337 
        2.70184         23.8883         2.41783 
        2.71755         23.6622         2.38289 
        2.73329         23.4396          2.3486 
        2.74897         23.1873         2.31508 
        2.76462         22.9818         2.28229 
        2.78034         22.7167            2.25 
        2.79607          22.541          2.2183 
        2.81179         22.3077         2.18725 
        2.82749         22.0781         2.15682 
        2.84321          21.841         2.12693 
        2.85893         21.6531         2.09762 
        2.87462         21.4581          2.0689 
        2.89033          21.225          2.0407 
        2.90605         21.0258           2.013 
        2.92176         20.8248         1.98582 
        2.93747         20.6247         1.95916 
        2.95318         20.5309         1.93297 
        2.96891         20.2345         1.90726 
        2.98456         20.0778         1.88212 
        3.00023          19.785          1.8574 
        3.01596         19.5433         1.83304 
        3.03164         19.4324         1.80919 
        3.04738         19.3104         1.78569 
         3.0631          19.095         1.76262 
        3.07883         18.8625         1.73995 
        3.09456         18.6669         1.71768 
        3.11026         18.4885         1.69583 
        3.12596         18.2985         1.67437 
        3.14163         18.1615         1.65332 
        3.15734         18.0414         1.63259 
        3.17308         17.7748         1.61216 
        3.18879         17.6468         1.59213 
        3.20447         17.5432         1.57248 
         3.2202         17.3008         1.55309 
         3.2359         17.1118         1.53406 
        3.25157         16.9652          1.5154 
        3.26729         16.8604         1.49698 
        3.28304         16.6963         1.47884 
        3.29877         16.5531         1.46102 
        3.31446         16.4057         1.44353 
        3.33014         16.1726         1.42634 
        3.34585         16.1231         1.40941 
        3.36158         15.8848         1.39272 
        3.37727         15.7853         1.37635 
        3.39294         15.6727         1.36027 
        3.40867         15.5101         1.34438 
        3.42439         15.3166         1.32875 
        3.44008         15.1878          1.3134 
        3.45578         15.0499         1.29827 
        3.47153          14.942         1.28336 
        3.48724         14.8188          1.2687 
        3.50292         14.6459          1.2543 
        3.51859         14.5504         1.24014 
        3.53431         14.4043         1.22615 
        3.55007         14.2632         1.21234 
        3.56577         14.1725         1.19879 
        3.58146         14.0181         1.18546 
        3.59719         13.9027          1.1723 
        3.61292         13.7883         1.15934 
        3.62859         13.6019         1.14662 
        3.64429         13.5031         1.13408 
        3.66003         13.4143         1.12168 
        3.67578         13.3417         1.10947 
        3.69146         13.1867         1.09748 
        3.70712         13.0567          1.0857 
        3.72284         12.9469         1.07404 
        3.73853         12.8575         1.06257 
        3.75422         12.6771         1.05127 
        3.76993         12.6107         1.04012 
        3.78564         12.4906         1.02914 
        3.80137         12.3602         1.01829 
        3.81707         12.2438         1.00763 
        3.83279         12.1986        0.997104 
        3.84853         12.0554        0.986714 
        3.86424         11.9336        0.976492 
        3.87992         11.8782         0.96643 
        3.89561         11.7392        0.956508 
        3.91134         11.6721        0.946705 
        3.92704          11.566         0.93705 
        3.94273          11.452        0.927539 
        3.95845          11.351        0.918141 
        3.97418         11.2435        0.908872 
        3.98988         11.1645        0.899742 
        4.00554         11.0446        0.890762 
        4.02125         10.9608        0.881879 
        4.03698         10.8923        0.873102 
        4.05268         10.7917        0.864464 
        4.06839         10.6731        0.855936 
         4.0841         10.5971        0.847526 
        4.09983          10.484        0.839216 
        4.11555         10.4123        0.831021 
        4.13124          10.329        0.822956 
        4.14693         10.2458        0.814992 
        4.16266         10.1541        0.807114 
        4.17839         10.0409        0.799345 
        4.19408         9.99497        0.791695 
        4.20977         9.90497        0.784142 
        4.22551         9.81868        0.776668 
        4.24123         9.74452        0.769299 
        4.25691         9.65287        0.762046 
        4.27259         9.56327        0.754883 
        4.28831          9.5256        0.747798 
        4.30404         9.41332        0.740796 
        4.31974         9.35077        0.733899 
        4.33543         9.23618        0.727094 
        4.35116         9.20882        0.720357 
        4.36688         9.10451        0.713709 
        4.38255         9.01747        0.707169 
        4.39825         8.96146        0.700696 
        4.41398         8.89756        0.694291 
         4.4297         8.80181        0.687972 
        4.44541         8.74501        0.681733 
        4.46111         8.66477        0.675576 
        4.47683         8.58735         0.66949 
        4.49251         8.53028        0.663491 
        4.50819         8.45603        0.657567 
         4.5239         8.39245        0.651707 
        4.53962         8.32371         0.64591 
        4.55535         8.25425         0.64018 
        4.57106         8.21503        0.634528 
        4.58678         8.12467        0.628943 
         4.6025         8.08227        0.623424 
        4.61821         8.02094        0.617971 
        4.63391         7.93282         0.61259 
         4.6496         7.86256        0.607275 
        4.66532         7.82388        0.602015 
        4.68103         7.74506         0.59682 
        4.69673         7.68072         0.59169 
        4.71241         7.63683        0.586625 
        4.72811         7.56154        0.581611 
        4.74384         7.52992        0.576649 
        4.75955          7.4635        0.571752 
        4.77525         7.39403        0.566915 
        4.79096         7.34513        0.562127 
        4.80669         7.26779        0.557392 
         4.8224         7.23725        0.552717 
        4.83809         7.16727          0.5481 
        4.85379         7.12691        0.543533 
         4.8695         7.06229        0.539014 
        4.88521         6.99531        0.534548 
        4.90093         6.97587        0.530132 
        4.91663         6.89553        0.525769 
        4.93234         6.85096         0.52145 
        4.94807         6.80214        0.517178 
        4.96377          6.7417         0.51296 
        4.97943          6.6875        0.508799 
        4.99514         6.64695        0.504672 
        5.01086         6.60191        0.500588 
        5.02654         6.53556         0.49656 
        5.04227         6.49115        0.492564 
          5.058         6.45529        0.488609 
        5.07371         6.40725        0.484706 
        5.08942         6.34403        0.480844 
        5.10513         6.29046        0.477024 
        5.12084         6.25199        0.473244 
        5.13656         6.21086        0.469505 
        5.15225         6.16987        0.465813 
        5.16796          6.1169        0.462154 
        5.18369         6.07749        0.458531 
         5.1994         6.03773        0.454953 
        5.21509          5.9906        0.451416 
        5.23079          5.9305        0.447913 
        5.24649         5.89908         0.44445 
        5.26217         5.86983        0.441025 
        5.27788         5.82203        0.437631 
        5.29359         5.77062        0.434273 
        5.30933         5.72573        0.430944 
        5.32504          5.6951        0.427656 
        5.34073         5.64836        0.424406 
        5.35646         5.61416        0.421183 
        5.37218         5.58246        0.417992 
        5.38789         5.53982         0.41484 
        5.40357         5.49494        0.411724 
        5.41929         5.46434        0.408632 
        5.43502          5.4209        0.405572 
         5.4507          5.3774         0.40255 
        5.46639         5.33576        0.399559 
        5.48212         5.30124         0.39659 
        5.49786         5.26289        0.393649 
        5.51353         5.24007        0.390751 
        5.52921         5.18693         0.38788 
        5.54495          5.1571        0.385029 
        5.56066         5.12818        0.382209 
        5.57637         5.09016        0.379419 
        5.59207         5.04294        0.376658 
        5.60778          5.0208        0.373924 
        5.62346         4.98208         0.37122 
        5.63916         4.94596         0.36854 
        5.65487         4.91456        0.365886 
         5.6706         4.88186        0.363254 
        5.68633         4.84754        0.360647 
        5.70203         4.81238        0.358071 
        5.71773         4.78873        0.355521 
        5.73344         4.75803        0.352994 
        5.74916         4.71746        0.350489 
        5.76486         4.69138        0.348011 
        5.78054          4.6524        0.345562 
        5.79626         4.62625        0.343129 
          5.812         4.59875        0.340716 
         5.8277         4.56026        0.338334 
        5.84339         4.53212        0.335975 
        5.85911         4.49922        0.333633 
        5.87484         4.47344        0.331315 
        5.89053         4.43909        0.329022 
        5.90623          4.4135         0.32675 
        5.92195         4.38938        0.324496 
        5.93767          4.3551        0.322264 
        5.95336         4.32479        0.320057 
        5.96905         4.29336        0.317871 
        5.98476         4.27256        0.315702 
        6.00048         4.24361        0.313553 
        6.01617         4.21805        0.311426 
        6.03185         4.19927        0.309322 
        6.04756         4.16893        0.307232 
        6.06331         4.13349        0.305157 
        6.07903         4.10901        0.303105 
        6.09473         4.08208        0.301074 
        6.11044         4.05041        0.299059 
        6.12616         4.02612        0.297064 
        6.14186         4.00438        0.295088 
        6.15755         3.97464         0.29313 
        6.17326         3.95312        0.291189 
        6.18898         3.93344        0.289264 
        6.20467         3.90762         0.28736 
        6.22036         3.88723        0.285473 
         6.2361         3.85316        0.283598 
         6.2518         3.83055        0.281743 
        6.26748         3.81206        0.279908 
        6.28319         3.78666        0.278085 
        6.29893         3.75883        0.276276 
        6.31463         3.74382        0.274486 
        6.33033         3.71959        0.272713 
        6.34604         3.69224        0.270954 
        6.36177         3.67221        0.269208 
        6.37747         3.64594        0.267482 
