# k  (h/Mpc)    Pcb(k)  (Mpc/h)^3    Pcb_linear(k) (Mpc/h)^3   ShotnoiseSubtracted = true
      0.0200456         3612.16         3665.68 
      0.0350414         2565.85         2599.79 
      0.0492313         1848.34          1845.6 
      0.0637834         1538.29         1514.43 
      0.0800726         1219.08         1202.93 
       0.096163         859.228         866.745 
       0.111083         670.117         678.127 
       0.126058         603.899          596.14 
       0.142273         521.753         509.985 
       0.158546         418.766         402.154 
        0.17375         337.265         332.745 
       0.188953         313.174         298.974 
       0.204907         291.476          266.94 
       0.220756         243.492         226.445 
        0.23588         210.459         194.541 
         0.2514         185.853          175.12 
       0.267535         173.333         159.209 
       0.283568         155.884         140.978 
       0.299022         141.463         124.718 
       0.314451         126.645         113.101 
       0.330372         117.701          103.84 
       0.346141         106.427         94.5414 
       0.361624         99.2688         85.6665 
       0.377134         93.0533         78.3859 
       0.392932         82.9353         72.4146 
       0.408854         79.7746         66.8476 
       0.424564         75.5609         61.5528 
       0.440253         69.7382         56.8625 
       0.455999          65.499         52.8694 
       0.471626         60.9992         49.3037 
        0.48727         58.4247          45.938 
       0.502856         55.0152         42.8641 
       0.518488         52.6157         40.1198 
       0.534347         50.5113         37.6162 
       0.550082         46.1891         35.3138 
       0.565732         43.3869         33.1912 
       0.581496         42.2033         31.2388 
       0.597222         40.7626         29.4639 
       0.612804         38.1314         27.8373 
       0.628434          36.868         26.3211 
       0.644267         35.8258         24.8976 
       0.660051         34.1192         23.5885 
       0.675724         32.3761         22.3845 
       0.691403         31.3352         21.2633 
       0.707174         30.3037         20.2121 
       0.722871         29.1093         19.2356 
        0.73838         28.0838         18.3337 
       0.754018         26.8837         17.4823 
       0.769845          26.097         16.6755 
        0.78569         25.2731         15.9186 
       0.801365         24.2913          15.216 
       0.817031         23.6995         14.5561 
       0.832809         23.2019         13.9312 
       0.848511         21.7903         13.3459 
       0.864097         21.4013         12.7982 
       0.879701          20.859         12.2809 
       0.895507         20.2753          11.786 
       0.911279         19.6511         11.3195 
        0.92691         19.1597         10.8821 
       0.942635         18.3792         10.4655 
       0.958396         18.0324         10.0698 
       0.974128         17.4794         9.69528 
       0.989692         17.2843         9.34353 
        1.00528         16.8306         9.00873 
        1.02113         16.1329         8.68509 
        1.03692         15.7703         8.37855 
        1.05264         15.4957          8.0882 
        1.06832         15.0769         7.81207 
        1.08405         14.6497         7.54809 
        1.09979         14.3398         7.29615 
        1.11537         14.0751          7.0582 
        1.13105         13.7862         6.82944 
        1.14679         13.5705         6.60993 
        1.16256         13.0533         6.39964 
        1.17828         13.0244         6.19919 
        1.19395         12.5432           6.008 
         1.2097         12.4034         5.82389 
        1.22537         12.0688         5.64838 
          1.241         11.8683         5.48063 
        1.25666         11.5891         5.31928 
        1.27241         11.3207         5.16365 
        1.28819         11.1006         5.01399 
        1.30392         11.0023          4.8707 
        1.31957         10.7972         4.73364 
        1.33529         10.5873         4.60134 
        1.35108         10.3278         4.47358 
        1.36674          10.247         4.35157 
         1.3824         9.95527         4.23423 
        1.39811         9.80241         4.12081 
        1.41389         9.66158         4.01112 
        1.42964         9.52598          3.9056 
        1.44531         9.39159         3.80438 
        1.46101         9.13707         3.70653 
        1.47667         9.03382         3.61242 
        1.49229         8.90927         3.52181 
        1.50793         8.74608         3.43421 
        1.52367         8.59662         3.34902 
        1.53953         8.46704         3.26615 
        1.55526         8.34705         3.18673 
        1.57092         8.22274         3.11028 
        1.58662         8.11356         3.03616 
        1.60235         7.97492          2.9643 
        1.61809         7.86603         2.89473 
        1.63369          7.7448           2.828 
        1.64941         7.61463          2.7629 
        1.66519         7.55393         2.69961 
        1.68085         7.41335         2.63874 
        1.69652         7.29831         2.57973 
        1.71228         7.19753         2.52219 
        1.72806          7.1356         2.46636 
        1.74368         6.99525         2.41277 
        1.75933         6.93257         2.36066 
        1.77505         6.83457         2.30985 
        1.79081         6.70361         2.26044 
         1.8065         6.66387         2.21268 
        1.82218         6.54326         2.16634 
        1.83797          6.4976         2.12101 
        1.85367         6.38078         2.07722 
        1.86928         6.36861         2.03493 
        1.88497         6.21156         1.99359 
        1.90073         6.16208         1.95324 
        1.91647         6.10671         1.91403 
        1.93218         6.03244         1.87599 
        1.94787         5.94304         1.83903 
        1.96363         5.88689         1.80292 
        1.97935         5.78445         1.76785 
        1.99499         5.70859         1.73391 
        2.01064         5.66292         1.70081 
         2.0264         5.59971         1.66836 
        2.04216         5.53513         1.63678 
        2.05781         5.45799         1.60621 
        2.07353         5.41627         1.57631 
        2.08928         5.35995          1.5471 
        2.10499          5.3101         1.51871 
        2.12065         5.23425         1.49111 
        2.13633         5.19561         1.46418 
        2.15211         5.11612         1.43773 
        2.16785         5.06143         1.41201 
        2.18349         5.00896         1.38708 
        2.19916         4.94923          1.3627 
        2.21489          4.9039         1.33882 
        2.23063         4.85249          1.3155 
         2.2463         4.79636         1.29283 
        2.26194         4.73353         1.27075 
        2.27765         4.71605         1.24908 
        2.29341         4.65325         1.22785 
        2.30914         4.60045         1.20716 
        2.32486         4.54141         1.18695 
        2.34061         4.52101         1.16717 
        2.35635         4.47913         1.14786 
        2.37203         4.43698         1.12905 
        2.38768         4.38131          1.1107 
        2.40339         4.33929          1.0927 
        2.41914         4.27868         1.07504 
        2.43483         4.27168         1.05784 
         2.4505         4.21359         1.04104 
        2.46622         4.18115         1.02455 
        2.48195         4.12599         1.00841 
        2.49759         4.11446         0.99271 
        2.51328         4.06416        0.977299 
        2.52906         4.04417        0.962116 
        2.54479         3.98462        0.947311 
        2.56049         3.96082        0.932845 
        2.57618         3.91426        0.918693 
        2.59189         3.88192        0.904812 
        2.60758         3.86273        0.891239 
        2.62325         3.81233         0.87796 
        2.63898         3.76615        0.864905 
        2.65468         3.73999        0.852141 
        2.67044         3.71192         0.83958 
        2.68618          3.6876        0.827299 
        2.70184         3.64424        0.815313 
        2.71755         3.61583        0.803534 
        2.73329         3.59178        0.791968 
        2.74897          3.5767        0.780667 
        2.76462         3.53689         0.76961 
        2.78034         3.48218        0.758722 
        2.79607         3.46708        0.748032 
        2.81179         3.44903        0.737559 
        2.82749         3.39511        0.727298 
        2.84321         3.39371         0.71722 
        2.85893         3.35951        0.707335 
        2.87462         3.33031        0.697653 
        2.89033         3.30811        0.688143 
        2.90605         3.27546        0.678801 
        2.92176         3.23996        0.669636 
        2.93747         3.21863        0.660645 
        2.95318         3.19718        0.651817 
        2.96891         3.18048        0.643145 
        2.98456          3.1517        0.634669 
        3.00023         3.11637        0.626332 
        3.01596         3.09966        0.618119 
        3.03164         3.08435        0.610076 
        3.04738         3.05223        0.602152 
         3.0631         3.02576        0.594371 
        3.07883         3.00856        0.586727 
        3.09456         2.98683        0.579218 
        3.11026         2.96463        0.571851 
        3.12596         2.93419        0.564613 
        3.14163         2.91244        0.557516 
        3.15734         2.88967        0.550524 
        3.17308         2.87392        0.543635 
        3.18879         2.85301        0.536882 
        3.20447         2.83922        0.530253 
         3.2202         2.80279        0.523716 
         3.2359         2.79825        0.517299 
        3.25157         2.77097        0.511005 
        3.26729         2.75205        0.504797 
        3.28304         2.73569        0.498678 
        3.29877         2.71701        0.492669 
        3.31446         2.69062        0.486772 
        3.33014         2.68076        0.480976 
        3.34585         2.65995        0.475265 
        3.36158         2.64611        0.469638 
        3.37727         2.61169        0.464119 
        3.39294         2.61011        0.458694 
        3.40867         2.58166        0.453336 
        3.42439         2.56577        0.448065 
        3.44008         2.54853        0.442889 
        3.45578         2.53235         0.43779 
        3.47153         2.51575         0.43276 
        3.48724          2.5003        0.427817 
        3.50292         2.48855        0.422963 
        3.51859         2.46918        0.418186 
        3.53431         2.44964        0.413468 
        3.55007         2.43573        0.408811 
        3.56577         2.42108        0.404243 
        3.58146         2.40926        0.399747 
        3.59719         2.39216        0.395309 
        3.61292         2.37441         0.39094 
        3.62859         2.35473        0.386652 
        3.64429         2.33632        0.382421 
        3.66003         2.33436        0.378239 
        3.67578         2.31524        0.374122 
        3.69146         2.29863        0.370081 
        3.70712         2.28543        0.366107 
        3.72284         2.26773        0.362176 
        3.73853         2.25426        0.358309 
        3.75422         2.24136        0.354498 
        3.76993         2.21657        0.350738 
        3.78564         2.21217        0.347034 
        3.80137         2.19922        0.343377 
        3.81707         2.17707        0.339781 
        3.83279         2.16864        0.336232 
        3.84853         2.15913        0.332729 
        3.86424         2.14254        0.329282 
        3.87992         2.12863        0.325889 
        3.89561         2.11445        0.322543 
        3.91134         2.10836        0.319238 
        3.92704         2.09335        0.315982 
        3.94273         2.07708        0.312775 
        3.95845         2.06521        0.309606 
        3.97418         2.04576         0.30648 
        3.98988         2.03479        0.303401 
        4.00554         2.01885        0.300373 
        4.02125         2.00983        0.297378 
        4.03698         1.99852        0.294418 
        4.05268         1.98558        0.291505 
        4.06839         1.97506         0.28863 
         4.0841         1.96224        0.285794 
        4.09983         1.94475        0.282991 
        4.11555         1.93601        0.280228 
        4.13124         1.92166        0.277508 
        4.14693         1.90744        0.274823 
        4.16266          1.8973        0.272166 
        4.17839         1.88701        0.269546 
        4.19408         1.87336        0.266967 
        4.20977         1.85604         0.26442 
        4.22551         1.85266          0.2619 
        4.24123         1.84032        0.259415 
        4.25691         1.82694        0.256969 
        4.27259         1.81512        0.254554 
        4.28831         1.80838        0.252164 
        4.30404         1.79656        0.249803 
        4.31974         1.78378        0.247478 
        4.33543         1.77261        0.245183 
        4.35116         1.76184        0.242911 
        4.36688         1.75506        0.240669 
        4.38255         1.74036        0.238464 
        4.39825         1.73259        0.236281 
        4.41398         1.72019        0.234121 
         4.4297         1.71019        0.231991 
        4.44541         1.70026        0.229887 
        4.46111         1.69115        0.227811 
        4.47683         1.68067        0.225758 
        4.49251         1.67514        0.223735 
        4.50819          1.6662        0.221738 
         4.5239         1.65473        0.219761 
        4.53962         1.64896        0.217807 
        4.55535         1.63753        0.215875 
        4.57106         1.62784        0.213969 
        4.58678         1.62198        0.212085 
         4.6025         1.61262        0.210224 
        4.61821         1.60012        0.208385 
        4.63391          1.5956        0.206571 
         4.6496         1.58506        0.204779 
        4.66532         1.57804        0.203005 
        4.68103         1.57342        0.201253 
        4.69673         1.56441        0.199523 
        4.71241         1.55427        0.197815 
        4.72811         1.54647        0.196125 
        4.74384         1.54093        0.194451 
        4.75955         1.53207          0.1928 
        4.77525         1.52545        0.191169 
        4.79096         1.51793        0.189554 
        4.80669         1.51145        0.187958 
         4.8224          1.5027        0.186381 
        4.83809         1.49718        0.184824 
        4.85379         1.48833        0.183284 
         4.8695         1.48214         0.18176 
        4.88521         1.47504        0.180254 
        4.90093          1.4665        0.178765 
        4.91663         1.46076        0.177294 
        4.93234         1.45627        0.175838 
        4.94807         1.44832        0.174397 
        4.96377         1.44199        0.172975 
        4.97943         1.43576        0.171572 
        4.99514         1.42695         0.17018 
        5.01086         1.42153        0.168803 
        5.02654          1.4142        0.167445 
        5.04227         1.41191        0.166097 
          5.058         1.40635        0.164764 
        5.07371         1.39608        0.163447 
        5.08942          1.3935        0.162145 
        5.10513         1.38577        0.160857 
        5.12084         1.37997        0.159582 
        5.13656         1.37198        0.158321 
        5.15225         1.36885        0.157076 
        5.16796         1.36402        0.155842 
        5.18369         1.35681        0.154621 
         5.1994         1.35207        0.153414 
        5.21509         1.34731        0.152222 
        5.23079         1.34151         0.15104 
        5.24649         1.33556        0.149873 
        5.26217         1.33077        0.148718 
        5.27788         1.32232        0.147573 
        5.29359         1.32096        0.146441 
        5.30933         1.31617        0.145318 
        5.32504         1.31055         0.14421 
        5.34073         1.30558        0.143114 
        5.35646         1.30025        0.142027 
        5.37218         1.29468        0.140951 
        5.38789         1.29323        0.139888 
        5.40357         1.28684        0.138837 
        5.41929         1.27811        0.137794 
        5.43502         1.27594        0.136763 
         5.4507         1.26892        0.135744 
        5.46639         1.26909        0.134735 
        5.48212         1.26311        0.133734 
        5.49786         1.25708        0.132742 
        5.51353         1.25073        0.131765 
        5.52921         1.24592        0.130797 
        5.54495         1.24164        0.129835 
        5.56066         1.23821        0.128885 
        5.57637         1.23205        0.127943 
        5.59207         1.22792        0.127013 
        5.60778         1.22324         0.12609 
        5.62346         1.22189        0.125179 
        5.63916         1.21779        0.124275 
        5.65487         1.21339         0.12338 
         5.6706         1.20982        0.122493 
        5.68633         1.20418        0.121614 
        5.70203         1.19955        0.120745 
        5.71773         1.19635        0.119885 
        5.73344         1.18948        0.119033 
        5.74916         1.18598        0.118188 
        5.76486         1.18249        0.117353 
        5.78054         1.18249        0.116527 
        5.79626         1.17547        0.115706 
          5.812         1.17285        0.114893 
         5.8277         1.16609        0.114089 
        5.84339         1.16381        0.113294 
        5.85911         1.16323        0.112504 
        5.87484         1.15832        0.111722 
        5.89053         1.15493        0.110949 
        5.90623         1.15019        0.110183 
        5.92195         1.14713        0.109423 
        5.93767          1.1432         0.10867 
        5.95336         1.13752        0.107926 
        5.96905         1.13522        0.107189 
        5.98476         1.13145        0.106458 
        6.00048         1.12718        0.105733 
        6.01617         1.12418        0.105016 
        6.03185         1.11954        0.104306 
        6.04756         1.11773        0.103601 
        6.06331         1.11227        0.102902 
        6.07903         1.11119         0.10221 
        6.09473         1.10898        0.101525 
        6.11044         1.10543        0.100846 
        6.12616          1.0999        0.100173 
        6.14186         1.09674       0.0995064 
        6.15755         1.09559       0.0988463 
        6.17326         1.09079       0.0981916 
        6.18898         1.08844       0.0975425 
        6.20467         1.08719       0.0969005 
        6.22036         1.08237       0.0962642 
         6.2361         1.07806       0.0956319 
         6.2518          1.0732       0.0950063 
        6.26748         1.07321       0.0943876 
        6.28319         1.06859       0.0937728 
        6.29893         1.06577       0.0931628 
        6.31463         1.06215       0.0925593 
        6.33033          1.0622       0.0919613 
        6.34604         1.05756       0.0913681 
        6.36177         1.05405       0.0907796 
        6.37747          1.0517       0.0901973 
