# k  (h/Mpc)    Pcb(k)  (Mpc/h)^3    Pcb_linear(k) (Mpc/h)^3   ShotnoiseSubtracted = true
      0.0200456           27979           28497 
      0.0350414         20924.7         20210.7 
      0.0492313         13986.3         14347.6 
      0.0637834         11142.6         11773.2 
      0.0800726         8721.81         9351.57 
       0.096163         7058.06         6738.07 
       0.111083         5661.27         5271.76 
       0.126058         4651.38         4634.38 
       0.142273         4115.04         3964.61 
       0.158546         3361.67         3126.34 
        0.17375         3013.83         2586.76 
       0.188953         2880.01         2324.22 
       0.204907          2477.4         2075.19 
       0.220756         2252.12         1760.38 
        0.23588         2004.63         1512.36 
         0.2514         1824.29         1361.38 
       0.267535         1749.45         1237.69 
       0.283568          1572.8         1095.96 
       0.299022         1490.94         969.554 
       0.314451         1558.28         879.247 
       0.330372         1399.58         807.251 
       0.346141         1284.71         734.964 
       0.361624         1229.88         665.971 
       0.377134         1187.65         609.371 
       0.392932         1118.83          562.95 
       0.408854         1081.46         519.672 
       0.424564         1058.29          478.51 
       0.440253         990.834         442.048 
       0.455999         945.267         411.006 
       0.471626         955.332         383.286 
        0.48727         903.096         357.122 
       0.502856         882.383         333.225 
       0.518488         843.845         311.891 
       0.534347         820.274         292.428 
       0.550082         783.829         274.529 
       0.565732         766.089         258.028 
       0.581496         748.872          242.85 
       0.597222         738.362         229.052 
       0.612804         716.594         216.407 
       0.628434         688.694          204.62 
       0.644267         670.469         193.554 
       0.660051          662.47         183.376 
       0.675724         650.423         174.017 
       0.691403         624.464         165.301 
       0.707174          610.22         157.129 
       0.722871         609.017         149.538 
        0.73838         586.939         142.526 
       0.754018         578.302         135.908 
       0.769845         567.791         129.635 
        0.78569         554.799         123.751 
       0.801365         538.529         118.289 
       0.817031         530.807         113.159 
       0.832809         521.259         108.301 
       0.848511         511.022         103.751 
       0.864097         501.985         99.4934 
       0.879701          504.04         95.4712 
       0.895507          484.82         91.6243 
       0.911279         479.978         87.9977 
        0.92691         470.684         84.5975 
       0.942635         462.327         81.3585 
       0.958396          452.56         78.2824 
       0.974128         443.193          75.371 
       0.989692         434.918         72.6365 
        1.00528         425.944         70.0338 
        1.02113         418.922         67.5178 
        1.03692         412.873         65.1347 
        1.05264          407.99         62.8776 
        1.06832         398.327         60.7309 
        1.08405         395.778         58.6788 
        1.09979         385.487         56.7202 
        1.11537         377.437         54.8704 
        1.13105         371.974          53.092 
        1.14679         365.917         51.3855 
        1.16256         362.655         49.7508 
        1.17828           357.2         48.1925 
        1.19395         349.138         46.7061 
         1.2097         342.252         45.2749 
        1.22537         338.557         43.9105 
          1.241         331.017         42.6064 
        1.25666         327.352          41.352 
        1.27241         325.066         40.1422 
        1.28819         315.805         38.9787 
        1.30392          313.43         37.8648 
        1.31957         306.925         36.7992 
        1.33529         302.386         35.7708 
        1.35108         301.963         34.7775 
        1.36674         294.429         33.8291 
         1.3824         287.754         32.9168 
        1.39811         284.041         32.0352 
        1.41389         280.332         31.1824 
        1.42964         275.291         30.3621 
        1.44531         271.111         29.5752 
        1.46101         264.445         28.8146 
        1.47667           263.2         28.0829 
        1.49229         260.259         27.3785 
        1.50793         254.162         26.6975 
        1.52367         250.677         26.0353 
        1.53953         247.391          25.391 
        1.55526         241.968         24.7736 
        1.57092         240.283         24.1793 
        1.58662         235.396         23.6031 
        1.60235         231.763         23.0444 
        1.61809         229.564         22.5036 
        1.63369         224.703         21.9848 
        1.64941         222.481         21.4787 
        1.66519         218.545         20.9867 
        1.68085         214.817         20.5136 
        1.69652          211.99         20.0548 
        1.71228         208.862         19.6075 
        1.72806         205.986         19.1734 
        1.74368         202.561         18.7568 
        1.75933          200.62         18.3518 
        1.77505         197.105         17.9567 
        1.79081         194.563         17.5726 
         1.8065         193.299         17.2014 
        1.82218         188.004         16.8411 
        1.83797         186.526         16.4887 
        1.85367         183.818         16.1483 
        1.86928         180.567         15.8196 
        1.88497         178.597         15.4981 
        1.90073         176.511         15.1844 
        1.91647          174.04         14.8797 
        1.93218          170.88         14.5839 
        1.94787          167.81         14.2966 
        1.96363         167.024         14.0159 
        1.97935         163.737         13.7433 
        1.99499         162.544         13.4794 
        2.01064         158.578         13.2221 
         2.0264         157.531         12.9698 
        2.04216         154.919         12.7243 
        2.05781         152.863         12.4866 
        2.07353         151.617         12.2542 
        2.08928         149.789         12.0271 
        2.10499         147.033         11.8064 
        2.12065         145.394         11.5919 
        2.13633         143.146         11.3825 
        2.15211         141.463         11.1769 
        2.16785         139.887          10.977 
        2.18349         137.477         10.7832 
        2.19916         137.185         10.5936 
        2.21489         133.795          10.408 
        2.23063         132.147         10.2266 
         2.2463         130.433         10.0504 
        2.26194          129.45         9.87882 
        2.27765         127.433         9.71031 
        2.29341         125.961         9.54528 
        2.30914          124.22         9.38442 
        2.32486         122.827         9.22734 
        2.34061         120.638         9.07359 
        2.35635         119.265         8.92347 
        2.37203          118.17         8.77725 
        2.38768         116.202         8.63461 
        2.40339         115.235          8.4946 
        2.41914         113.252         8.35737 
        2.43483          111.89         8.22364 
         2.4505         111.034         8.09306 
        2.46622         109.082         7.96485 
        2.48195         107.584          7.8394 
        2.49759         106.205         7.71732 
        2.51328         105.042         7.59751 
        2.52906         103.808         7.47948 
        2.54479         102.605         7.36438 
        2.56049         101.068         7.25193 
        2.57618         100.251         7.14191 
        2.59189         99.1426           7.034 
        2.60758         98.1654         6.92849 
        2.62325         96.3969         6.82525 
        2.63898         94.8219         6.72376 
        2.65468         94.0376         6.62454 
        2.67044         93.0469         6.52688 
        2.68618         92.0285         6.43142 
        2.70184         91.2732         6.33823 
        2.71755         89.6001         6.24666 
        2.73329         88.5863         6.15675 
        2.74897         87.3799         6.06889 
        2.76462         86.7886         5.98294 
        2.78034         85.9217          5.8983 
        2.79607         84.6415         5.81519 
        2.81179          83.889         5.73378 
        2.82749         82.7973         5.65401 
        2.84321         81.7048         5.57566 
        2.85893         80.8585         5.49882 
        2.87462         79.6779         5.42355 
        2.89033         79.0727         5.34961 
        2.90605         77.9883         5.27699 
        2.92176         77.1899         5.20575 
        2.93747         76.3198         5.13585 
        2.95318          75.534         5.06722 
        2.96891         74.8087          4.9998 
        2.98456         73.7316         4.93391 
        3.00023         72.9506          4.8691 
        3.01596         72.4296         4.80525 
        3.03164         71.4155         4.74272 
        3.04738         70.7287         4.68112 
         3.0631         70.1504         4.62064 
        3.07883         69.3044         4.56121 
        3.09456         68.3676         4.50283 
        3.11026         67.7948         4.44556 
        3.12596         67.0127         4.38929 
        3.14163         66.2315         4.33412 
        3.15734         65.4876         4.27977 
        3.17308          64.803         4.22621 
        3.18879         64.0309         4.17372 
        3.20447         63.5695         4.12218 
         3.2202         62.7642         4.07136 
         3.2359           62.29         4.02148 
        3.25157         61.4546         3.97255 
        3.26729         60.7993         3.92428 
        3.28304         60.0331         3.87672 
        3.29877         59.4866         3.83001 
        3.31446         58.9346         3.78416 
        3.33014         58.2699          3.7391 
        3.34585         57.7253         3.69471 
        3.36158         57.0867         3.65096 
        3.37727         56.5083         3.60806 
        3.39294         56.0149         3.56588 
        3.40867         55.4166         3.52423 
        3.42439          54.577         3.48326 
        3.44008         54.0536         3.44301 
        3.45578         53.7611         3.40337 
        3.47153         53.2195         3.36427 
        3.48724         52.5689         3.32585 
        3.50292          52.188         3.28811 
        3.51859         51.6004         3.25098 
        3.53431         50.9336          3.2143 
        3.55007         50.4629         3.17809 
        3.56577         49.9052         3.14258 
        3.58146         49.3865         3.10763 
        3.59719         49.0476         3.07313 
        3.61292         48.5942         3.03916 
        3.62859         48.0704         3.00583 
        3.64429         47.5728         2.97293 
        3.66003           47.19         2.94043 
        3.67578         46.6042         2.90842 
        3.69146         46.1512           2.877 
        3.70712          45.619         2.84611 
        3.72284         45.1294         2.81555 
        3.73853         44.9024         2.78549 
        3.75422         44.4336         2.75586 
        3.76993         44.1169         2.72663 
        3.78564         43.4855         2.69784 
        3.80137         43.0836         2.66941 
        3.81707         42.6574         2.64145 
        3.83279         42.2243         2.61387 
        3.84853         41.8581         2.58663 
        3.86424         41.5293         2.55984 
        3.87992         41.0182         2.53346 
        3.89561          40.731         2.50745 
        3.91134         40.3836         2.48175 
        3.92704         39.9949         2.45644 
        3.94273          39.579         2.43151 
        3.95845         39.1959         2.40687 
        3.97418         38.8065         2.38257 
        3.98988         38.3863         2.35864 
        4.00554         38.1011          2.3351 
        4.02125         37.6904         2.31181 
        4.03698         37.4242          2.2888 
        4.05268         37.0398         2.26616 
        4.06839          36.732          2.2438 
         4.0841         36.4299         2.22176 
        4.09983         36.1256         2.19997 
        4.11555         35.7625         2.17849 
        4.13124          35.453         2.15735 
        4.14693         35.1294         2.13647 
        4.16266          34.842         2.11582 
        4.17839         34.4548         2.09545 
        4.19408         34.1975          2.0754 
        4.20977         33.8306          2.0556 
        4.22551         33.5356           2.036 
        4.24123         33.2125         2.01669 
        4.25691         32.9054         1.99767 
        4.27259         32.6904          1.9789 
        4.28831         32.3218         1.96032 
        4.30404         32.0668         1.94197 
        4.31974         31.7422         1.92389 
        4.33543         31.4746         1.90605 
        4.35116         31.1722         1.88839 
        4.36688         30.9426         1.87096 
        4.38255         30.7086         1.85381 
        4.39825         30.4445         1.83685 
        4.41398         30.1081         1.82006 
         4.4297          29.808         1.80349 
        4.44541         29.6227         1.78714 
        4.46111          29.444           1.771 
        4.47683         29.1641         1.75504 
        4.49251         28.8873         1.73932 
        4.50819         28.6252         1.72379 
         4.5239         28.3047         1.70842 
        4.53962         28.1288         1.69323 
        4.55535         27.8411         1.67821 
        4.57106         27.6513         1.66339 
        4.58678         27.3921         1.64875 
         4.6025         27.1344         1.63428 
        4.61821         26.9619         1.61999 
        4.63391         26.7524         1.60588 
         4.6496         26.4806         1.59195 
        4.66532         26.3329         1.57816 
        4.68103         26.0948         1.56454 
        4.69673         25.8265         1.55109 
        4.71241         25.6212         1.53781 
        4.72811         25.4296         1.52467 
        4.74384         25.2194         1.51166 
        4.75955         25.0211         1.49883 
        4.77525         24.8422         1.48614 
        4.79096         24.6197         1.47359 
        4.80669         24.4097         1.46118 
         4.8224         24.2145         1.44893 
        4.83809         24.0028         1.43682 
        4.85379         23.7649         1.42485 
         4.8695         23.6176           1.413 
        4.88521         23.3785          1.4013 
        4.90093         23.1889         1.38972 
        4.91663         23.0517         1.37828 
        4.93234         22.8407         1.36696 
        4.94807          22.664         1.35576 
        4.96377         22.4995          1.3447 
        4.97943         22.3087          1.3338 
        4.99514         22.1363         1.32298 
        5.01086         21.9475         1.31227 
        5.02654         21.7298         1.30171 
        5.04227         21.6023         1.29124 
          5.058         21.4948         1.28087 
        5.07371         21.2778         1.27064 
        5.08942         21.1271         1.26051 
        5.10513         20.9111          1.2505 
        5.12084           20.75         1.24059 
        5.13656         20.6656         1.23079 
        5.15225         20.4374         1.22111 
        5.16796         20.2567         1.21152 
        5.18369         20.1514         1.20202 
         5.1994         19.9751         1.19264 
        5.21509         19.7767         1.18337 
        5.23079         19.6524         1.17419 
        5.24649         19.4995         1.16511 
        5.26217         19.3773         1.15613 
        5.27788         19.2284         1.14723 
        5.29359         19.0381         1.13843 
        5.30933          18.911          1.1297 
        5.32504         18.7737         1.12108 
        5.34073         18.5966         1.11256 
        5.35646         18.5343         1.10411 
        5.37218         18.3429         1.09575 
        5.38789         18.2259         1.08749 
        5.40357         18.0541         1.07932 
        5.41929          17.945         1.07121 
        5.43502           17.78         1.06319 
         5.4507         17.6919         1.05527 
        5.46639         17.5098         1.04743 
        5.48212         17.3861         1.03965 
        5.49786         17.2588         1.03193 
        5.51353         17.1168         1.02434 
        5.52921         16.9826         1.01681 
        5.54495         16.9052         1.00934 
        5.56066         16.7505         1.00195 
        5.57637         16.6269        0.994631 
        5.59207         16.5151        0.987394 
        5.60778         16.3973        0.980226 
        5.62346         16.2314        0.973138 
        5.63916         16.1208        0.966114 
        5.65487         15.9964        0.959155 
         5.6706         15.8897        0.952257 
        5.68633         15.7695        0.945423 
        5.70203         15.6689         0.93867 
        5.71773         15.5452        0.931984 
        5.73344         15.4496         0.92536 
        5.74916         15.3445        0.918793 
        5.76486         15.2319        0.912298 
        5.78054         15.1072        0.905877 
        5.79626         15.0073        0.899498 
          5.812         14.9324        0.893175 
         5.8277         14.7949         0.88693 
        5.84339         14.6692        0.880745 
        5.85911         14.5606        0.874607 
        5.87484         14.4451        0.868528 
        5.89053          14.362        0.862519 
        5.90623         14.2592        0.856563 
        5.92195         14.1711        0.850653 
        5.93767         14.0705        0.844802 
        5.95336         13.9493        0.839016 
        5.96905         13.8776        0.833285 
        5.98476         13.7738          0.8276 
        6.00048         13.6544        0.821966 
        6.01617         13.5545        0.816391 
        6.03185         13.5099        0.810875 
        6.04756         13.3633        0.805396 
        6.06331         13.2998        0.799956 
        6.07903         13.1909        0.794577 
        6.09473         13.1035        0.789253 
        6.11044         13.0069        0.783972 
        6.12616         12.9235        0.778741 
        6.14186         12.8183        0.773562 
        6.15755         12.7519         0.76843 
        6.17326         12.6802        0.763341 
        6.18898         12.5822        0.758295 
        6.20467         12.4818        0.753303 
        6.22036         12.3856        0.748357 
         6.2361         12.3064        0.743441 
         6.2518         12.2252        0.738578 
        6.26748         12.1389        0.733769 
        6.28319         12.0543        0.728988 
        6.29893         11.9724        0.724247 
        6.31463         11.8911        0.719555 
        6.33033         11.8234        0.714906 
        6.34604         11.7432        0.710295 
        6.36177          11.668        0.705719 
        6.37747         11.5623        0.701193 
