# k  (h/Mpc)    Pcb(k)  (Mpc/h)^3    Pcb_linear(k) (Mpc/h)^3   ShotnoiseSubtracted = true
      0.0200456         3094.08         3132.75 
      0.0350414         2261.66         2221.82 
      0.0492313         1580.03         1577.27 
      0.0637834         1273.87         1294.26 
      0.0800726         1006.94         1028.04 
       0.096163         758.035         740.734 
       0.111083         599.726         579.538 
       0.126058         507.655          509.47 
       0.142273         433.705          435.84 
       0.158546         350.509         343.687 
        0.17375         296.265         284.369 
       0.188953         265.769         255.507 
       0.204907         228.299         228.131 
       0.220756          201.51         193.523 
        0.23588         174.757         166.258 
         0.2514         156.684          149.66 
       0.267535         146.222         136.062 
       0.283568         128.367         120.482 
       0.299022          117.32         106.586 
       0.314451         110.531         96.6579 
       0.330372         98.1591         88.7433 
       0.346141         89.9616         80.7965 
       0.361624         82.8218         73.2119 
       0.377134         75.4454         66.9898 
       0.392932         72.9034         61.8866 
       0.408854         67.0026         57.1289 
       0.424564          63.775         52.6039 
       0.440253         57.9948         48.5955 
       0.455999         53.0126         45.1829 
       0.471626         50.3424         42.1357 
        0.48727         48.8142         39.2593 
       0.502856          45.343         36.6323 
       0.518488         42.6482          34.287 
       0.534347         40.1409         32.1474 
       0.550082         38.5826         30.1797 
       0.565732         37.1077         28.3657 
       0.581496         34.6538         26.6972 
       0.597222         32.9002         25.1803 
       0.612804         31.3721         23.7902 
       0.628434         30.7604         22.4944 
       0.644267         29.0544         21.2779 
       0.660051         27.6233         20.1591 
       0.675724          26.364         19.1301 
       0.691403         25.8346          18.172 
       0.707174         24.7654         17.2736 
       0.722871         23.9263         16.4391 
        0.73838         22.6856         15.6682 
       0.754018         21.4832         14.9407 
       0.769845         21.0052         14.2511 
        0.78569         20.2898         13.6043 
       0.801365         19.5491         13.0038 
       0.817031         18.7889         12.4399 
       0.832809         18.2783         11.9058 
       0.848511         17.6631         11.4056 
       0.864097         17.0948         10.9376 
       0.879701         16.8046         10.4954 
       0.895507           16.15         10.0725 
       0.911279         15.4834         9.67381 
        0.92691         15.1928         9.30003 
       0.942635         14.8048         8.94396 
       0.958396         14.3126         8.60579 
       0.974128         13.9337         8.28573 
       0.989692         13.3074         7.98512 
        1.00528         13.2112           7.699 
        1.02113         12.7596         7.42241 
        1.03692          12.466         7.16043 
        1.05264         12.1827          6.9123 
        1.06832         11.9209         6.67631 
        1.08405         11.5747         6.45071 
        1.09979         11.2934          6.2354 
        1.11537         10.9909         6.03204 
        1.13105            10.8         5.83654 
        1.14679          10.548         5.64895 
        1.16256         10.3188         5.46923 
        1.17828         10.0935         5.29792 
        1.19395         9.90254         5.13452 
         1.2097         9.59696         4.97718 
        1.22537         9.42368         4.82719 
          1.241          9.1717         4.68383 
        1.25666         9.11625         4.54593 
        1.27241         8.91885         4.41294 
        1.28819         8.55319         4.28503 
        1.30392         8.54354         4.16257 
        1.31957         8.30944         4.04544 
        1.33529         8.19998         3.93238 
        1.35108         8.02754         3.82319 
        1.36674         7.82718         3.71892 
         1.3824         7.72403         3.61863 
        1.39811         7.58909         3.52171 
        1.41389         7.42085         3.42796 
        1.42964         7.31058         3.33778 
        1.44531         7.17067         3.25128 
        1.46101         7.08689         3.16766 
        1.47667         6.93998         3.08722 
        1.49229         6.75711         3.00979 
        1.50793         6.68775         2.93493 
        1.52367         6.56778         2.86212 
        1.53953         6.45202          2.7913 
        1.55526         6.36753         2.72343 
        1.57092         6.26735          2.6581 
        1.58662          6.1537         2.59475 
        1.60235         6.07728         2.53333 
        1.61809         5.98899         2.47388 
        1.63369         5.86616         2.41685 
        1.64941         5.77197         2.36121 
        1.66519         5.70338         2.30712 
        1.68085         5.59766         2.25511 
        1.69652         5.54117         2.20468 
        1.71228         5.48334          2.1555 
        1.72806         5.37129         2.10779 
        1.74368          5.3115         2.06199 
        1.75933         5.22876         2.01746 
        1.77505         5.12939         1.97403 
        1.79081         5.08588          1.9318 
         1.8065         5.03817         1.89099 
        1.82218         4.95464         1.85139 
        1.83797         4.86043         1.81265 
        1.85367         4.80147         1.77523 
        1.86928         4.75858         1.73909 
        1.88497         4.68072         1.70375 
        1.90073         4.61731         1.66926 
        1.91647         4.53007         1.63576 
        1.93218         4.49834         1.60325 
        1.94787         4.43923         1.57166 
        1.96363         4.38826          1.5408 
        1.97935         4.34931         1.51083 
        1.99499         4.29013         1.48183 
        2.01064         4.23171         1.45354 
         2.0264         4.18805         1.42581 
        2.04216         4.13402         1.39881 
        2.05781          4.0847         1.37269 
        2.07353         4.04135         1.34713 
        2.08928         3.96844         1.32217 
        2.10499         3.93057         1.29791 
        2.12065         3.93201         1.27433 
        2.13633         3.86878         1.25131 
        2.15211         3.80408         1.22871 
        2.16785         3.75791         1.20673 
        2.18349         3.74063         1.18542 
        2.19916         3.69193         1.16458 
        2.21489         3.65483         1.14418 
        2.23063         3.60758         1.12424 
         2.2463          3.5614         1.10487 
        2.26194         3.51935           1.086 
        2.27765         3.46749         1.06748 
        2.29341         3.43334         1.04934 
        2.30914         3.40427         1.03165 
        2.32486         3.37629         1.01439 
        2.34061         3.34687        0.997484 
        2.35635          3.3061         0.98098 
        2.37203         3.29106        0.964906 
        2.38768         3.25894        0.949225 
        2.40339         3.20285        0.933834 
        2.41914         3.17802        0.918747 
        2.43483          3.1382        0.904047 
         2.4505         3.10895        0.889691 
        2.46622         3.08394        0.875597 
        2.48195         3.06614        0.861806 
        2.49759         3.01863        0.848385 
        2.51328          2.9977        0.835214 
        2.52906         2.96426        0.822238 
        2.54479         2.93985        0.809586 
        2.56049         2.91124        0.797223 
        2.57618          2.8828        0.785129 
        2.59189         2.88113        0.773266 
        2.60758         2.84622        0.761667 
        2.62325          2.7903        0.750318 
        2.63898           2.781        0.739161 
        2.65468         2.75069        0.728252 
        2.67044          2.7435        0.717517 
        2.68618         2.71934        0.707022 
        2.70184         2.69025        0.696779 
        2.71755         2.65537        0.686712 
        2.73329          2.6363        0.676828 
        2.74897         2.61239        0.667169 
        2.76462         2.58915        0.657721 
        2.78034         2.57447        0.648415 
        2.79607         2.54731        0.639279 
        2.81179         2.52599        0.630329 
        2.82749         2.49704         0.62156 
        2.84321         2.48409        0.612947 
        2.85893         2.45557        0.604499 
        2.87462         2.44358        0.596225 
        2.89033         2.42942        0.588097 
        2.90605         2.40466        0.580113 
        2.92176         2.37645        0.572281 
        2.93747          2.3643        0.564597 
        2.95318          2.3435        0.557052 
        2.96891         2.33068        0.549641 
        2.98456           2.311        0.542397 
        3.00023         2.29454        0.535273 
        3.01596         2.26937        0.528254 
        3.03164         2.25258         0.52138 
        3.04738          2.2409        0.514608 
         3.0631          2.2224        0.507959 
        3.07883         2.20574        0.501426 
        3.09456         2.18086        0.495008 
        3.11026         2.17071        0.488712 
        3.12596         2.15406        0.482527 
        3.14163          2.1422        0.476462 
        3.15734         2.11896        0.470486 
        3.17308         2.10804        0.464599 
        3.18879         2.09553        0.458828 
        3.20447         2.07414        0.453163 
         3.2202          2.0651        0.447575 
         3.2359         2.05083        0.442092 
        3.25157         2.03236        0.436713 
        3.26729          2.0135        0.431407 
        3.28304         2.00107        0.426178 
        3.29877         1.98339        0.421043 
        3.31446          1.9718        0.416003 
        3.33014          1.9622        0.411049 
        3.34585         1.94613        0.406169 
        3.36158         1.92738         0.40136 
        3.37727         1.92498        0.396643 
        3.39294          1.9061        0.392007 
        3.40867         1.89812        0.387427 
        3.42439         1.88017        0.382923 
        3.44008          1.8657        0.378499 
        3.45578         1.85606        0.374142 
        3.47153         1.84507        0.369843 
        3.48724         1.83168        0.365619 
        3.50292         1.81599        0.361471 
        3.51859         1.80819        0.357388 
        3.53431         1.79128        0.353356 
        3.55007         1.78734        0.349376 
        3.56577         1.77181        0.345472 
        3.58146         1.75987         0.34163 
        3.59719         1.75357        0.337837 
        3.61292         1.73865        0.334103 
        3.62859         1.72881        0.330439 
        3.64429         1.71773        0.326823 
        3.66003         1.70589        0.323249 
        3.67578         1.69614         0.31973 
        3.69146         1.68017        0.316277 
        3.70712         1.67313         0.31288 
        3.72284         1.66002        0.309521 
        3.73853         1.65127        0.306217 
        3.75422         1.64177        0.302959 
        3.76993         1.62946        0.299746 
        3.78564         1.61556         0.29658 
        3.80137         1.60837        0.293455 
        3.81707         1.59792        0.290382 
        3.83279         1.59464        0.287349 
        3.84853         1.57929        0.284355 
        3.86424         1.56677         0.28141 
        3.87992         1.56023         0.27851 
        3.89561         1.55111         0.27565 
        3.91134         1.54203        0.272825 
        3.92704         1.53027        0.270043 
        3.94273         1.52305        0.267302 
        3.95845         1.51035        0.264594 
        3.97418         1.50194        0.261922 
        3.98988         1.49691        0.259291 
        4.00554         1.48735        0.256703 
        4.02125          1.4742        0.254143 
        4.03698         1.46928        0.251614 
        4.05268         1.45689        0.249125 
        4.06839         1.44841        0.246667 
         4.0841         1.43748        0.244243 
        4.09983         1.42659        0.241849 
        4.11555         1.41785        0.239487 
        4.13124         1.41016        0.237163 
        4.14693         1.39874        0.234868 
        4.16266         1.39284        0.232597 
        4.17839          1.3844        0.230358 
        4.19408          1.3727        0.228154 
        4.20977         1.36489        0.225977 
        4.22551         1.36077        0.223823 
        4.24123         1.34943          0.2217 
        4.25691         1.33957        0.219609 
        4.27259         1.33007        0.217545 
        4.28831         1.32731        0.215503 
        4.30404         1.31617        0.213486 
        4.31974          1.3079        0.211498 
        4.33543         1.29788        0.209537 
        4.35116         1.29422        0.207596 
        4.36688         1.28555        0.205679 
        4.38255         1.28247        0.203795 
        4.39825         1.27105        0.201929 
        4.41398         1.26465        0.200084 
         4.4297         1.25783        0.198263 
        4.44541         1.24566        0.196465 
        4.46111         1.24262         0.19469 
        4.47683         1.23777        0.192936 
        4.49251         1.22799        0.191208 
        4.50819         1.22409          0.1895 
         4.5239         1.21681        0.187811 
        4.53962         1.20946        0.186141 
        4.55535         1.20579         0.18449 
        4.57106         1.19749        0.182861 
        4.58678         1.19296        0.181251 
         4.6025         1.18619        0.179661 
        4.61821         1.18404        0.178089 
        4.63391         1.17781        0.176539 
         4.6496         1.16722        0.175007 
        4.66532         1.16638        0.173491 
        4.68103         1.15689        0.171994 
        4.69673           1.155        0.170516 
        4.71241         1.14802        0.169056 
        4.72811         1.14527        0.167611 
        4.74384         1.13828        0.166181 
        4.75955         1.13588         0.16477 
        4.77525         1.12771        0.163376 
        4.79096         1.12048        0.161996 
        4.80669         1.11756        0.160632 
         4.8224         1.11405        0.159284 
        4.83809          1.1098        0.157954 
        4.85379         1.10673        0.156638 
         4.8695         1.09831        0.155335 
        4.88521         1.09565        0.154048 
        4.90093         1.09291        0.152775 
        4.91663         1.08733        0.151518 
        4.93234           1.084        0.150274 
        4.94807         1.07695        0.149042 
        4.96377         1.07353        0.147827 
        4.97943         1.07203        0.146628 
        4.99514         1.06762        0.145438 
        5.01086         1.06158        0.144262 
        5.02654         1.05732        0.143101 
        5.04227         1.05418        0.141949 
          5.058         1.05114        0.140809 
        5.07371         1.04895        0.139684 
        5.08942         1.04439        0.138572 
        5.10513         1.04198        0.137471 
        5.12084         1.03581        0.136381 
        5.13656         1.03357        0.135304 
        5.15225         1.02865         0.13424 
        5.16796         1.02569        0.133185 
        5.18369         1.02382        0.132141 
         5.1994         1.02117         0.13111 
        5.21509         1.01454        0.130091 
        5.23079         1.01233        0.129081 
        5.24649         1.00987        0.128083 
        5.26217         1.00667        0.127096 
        5.27788         1.00189        0.126118 
        5.29359        0.999805         0.12515 
        5.30933        0.998477        0.124191 
        5.32504        0.993319        0.123244 
        5.34073        0.991676        0.122307 
        5.35646        0.986989        0.121378 
        5.37218        0.985171        0.120459 
        5.38789        0.983724         0.11955 
        5.40357        0.980118        0.118652 
        5.41929        0.979761        0.117761 
        5.43502        0.972999        0.116879 
         5.4507        0.969896        0.116009 
        5.46639        0.970087        0.115146 
        5.48212        0.965224        0.114291 
        5.49786        0.962962        0.113443 
        5.51353        0.961409        0.112608 
        5.52921         0.95641        0.111781 
        5.54495        0.956272        0.110959 
        5.56066        0.954249        0.110147 
        5.57637        0.952909        0.109342 
        5.59207        0.947648        0.108547 
        5.60778        0.947666        0.107759 
        5.62346        0.943917         0.10698 
        5.63916        0.943336        0.106207 
        5.65487        0.938724        0.105442 
         5.6706        0.936233        0.104684 
        5.68633        0.934293        0.103933 
        5.70203        0.933182         0.10319 
        5.71773        0.930548        0.102455 
        5.73344        0.929297        0.101727 
        5.74916        0.925559        0.101005 
        5.76486        0.923351        0.100291 
        5.78054        0.922405       0.0995854 
        5.79626        0.920067       0.0988842 
          5.812        0.917368        0.098189 
         5.8277         0.91553       0.0975026 
        5.84339        0.915766       0.0968226 
        5.85911        0.911603       0.0961478 
        5.87484        0.909339       0.0954796 
        5.89053        0.906867       0.0948189 
        5.90623        0.905528       0.0941642 
        5.92195        0.904529       0.0935145 
        5.93767        0.902527       0.0928713 
        5.95336        0.898405       0.0922352 
        5.96905        0.896487       0.0916052 
        5.98476        0.895982       0.0909802 
        6.00048         0.89577       0.0903608 
        6.01617        0.890598        0.089748 
        6.03185        0.891328       0.0891416 
        6.04756         0.88994       0.0885393 
        6.06331        0.886842       0.0879412 
        6.07903        0.885777         0.08735 
        6.09473        0.884716       0.0867646 
        6.11044        0.882405       0.0861841 
        6.12616        0.879503        0.085609 
        6.14186        0.878035       0.0850397 
        6.15755        0.877169       0.0844755 
        6.17326        0.875256        0.083916 
        6.18898        0.874106       0.0833613 
        6.20467        0.870101       0.0828126 
        6.22036        0.869646       0.0822688 
         6.2361        0.866625       0.0817285 
         6.2518        0.867408       0.0811938 
        6.26748        0.864406       0.0806651 
        6.28319        0.864251       0.0801396 
        6.29893        0.859176       0.0796183 
        6.31463        0.860515       0.0791025 
        6.33033         0.85769       0.0785915 
        6.34604        0.856555       0.0780845 
        6.36177        0.855038       0.0775816 
        6.37747        0.852891        0.077084 
