# k  (h/Mpc)    Pcb(k)  (Mpc/h)^3    Pcb_linear(k) (Mpc/h)^3   ShotnoiseSubtracted = true
      0.0200456         19694.7         20120.8 
      0.0350414         13675.2         14270.2 
      0.0492313         9967.43         10130.4 
      0.0637834         8514.99         8312.67 
      0.0800726         6721.89         6602.85 
       0.096163         4635.21         4757.54 
       0.111083         3665.83         3722.22 
       0.126058         3353.66         3272.19 
       0.142273         2921.29         2799.29 
       0.158546         2525.29         2207.41 
        0.17375         1998.25         1826.43 
       0.188953         1942.94         1641.06 
       0.204907         1827.85         1465.23 
       0.220756         1576.53         1242.95 
        0.23588         1400.04         1067.83 
         0.2514         1212.23         961.229 
       0.267535         1205.28         873.893 
       0.283568         1091.44         773.824 
       0.299022         1029.04         684.572 
       0.314451         977.425         620.809 
       0.330372         897.111         569.975 
       0.346141         843.373         518.935 
       0.361624         810.394         470.221 
       0.377134         751.854         430.258 
       0.392932         720.785         397.482 
       0.408854         702.371         366.924 
       0.424564         651.467         337.861 
       0.440253         640.367         312.117 
       0.455999         608.915         290.198 
       0.471626         583.934         270.627 
        0.48727         558.874         252.153 
       0.502856          543.38          235.28 
       0.518488         536.497         220.216 
       0.534347         501.251         206.474 
       0.550082         483.842         193.837 
       0.565732         482.605         182.186 
       0.581496         452.878         171.469 
       0.597222           445.1         161.726 
       0.612804         434.203         152.798 
       0.628434         419.401         144.476 
       0.644267         407.742         136.662 
       0.660051         395.126         129.476 
       0.675724         390.607         122.868 
       0.691403         377.334         116.714 
       0.707174         364.256         110.944 
       0.722871         359.369         105.584 
        0.73838         353.708         100.633 
       0.754018         343.725         95.9601 
       0.769845           335.2         91.5314 
        0.78569         331.739         87.3768 
       0.801365         321.519         83.5199 
       0.817031         310.909         79.8981 
       0.832809         308.844         76.4681 
       0.848511          300.67         73.2552 
       0.864097         293.794         70.2492 
       0.879701         289.525         67.4092 
       0.895507         284.875         64.6931 
       0.911279         275.477         62.1324 
        0.92691         273.189         59.7317 
       0.942635         266.189         57.4447 
       0.958396         260.938         55.2727 
       0.974128         256.274         53.2171 
       0.989692         252.911         51.2864 
        1.00528         247.799         49.4486 
        1.02113         245.104         47.6722 
        1.03692         238.864         45.9896 
        1.05264         235.838         44.3959 
        1.06832         230.258         42.8802 
        1.08405         226.263         41.4312 
        1.09979         221.519         40.0483 
        1.11537         218.703         38.7422 
        1.13105         213.094         37.4866 
        1.14679         211.125         36.2817 
        1.16256         207.395         35.1275 
        1.17828         204.694         34.0272 
        1.19395          199.99         32.9777 
         1.2097         199.455         31.9672 
        1.22537         194.641         31.0038 
          1.241          193.26          30.083 
        1.25666         189.227         29.1973 
        1.27241         186.368         28.3431 
        1.28819         183.864         27.5217 
        1.30392         179.236         26.7351 
        1.31957         179.711         25.9828 
        1.33529         175.232         25.2566 
        1.35108         171.456         24.5553 
        1.36674         170.429         23.8857 
         1.3824         168.763         23.2415 
        1.39811         166.463          22.619 
        1.41389         163.143         22.0169 
        1.42964         161.043         21.4377 
        1.44531         158.593         20.8821 
        1.46101         156.384         20.3451 
        1.47667         153.535         19.8284 
        1.49229         152.013         19.3311 
        1.50793         149.028         18.8503 
        1.52367         147.906         18.3827 
        1.53953         145.197         17.9278 
        1.55526          142.44         17.4919 
        1.57092         141.346         17.0723 
        1.58662         139.454         16.6654 
        1.60235         136.912          16.271 
        1.61809         136.139         15.8891 
        1.63369         133.184         15.5228 
        1.64941         130.802         15.1655 
        1.66519          129.55         14.8181 
        1.68085          128.31          14.484 
        1.69652         126.585         14.1601 
        1.71228         123.937         13.8442 
        1.72806          122.66         13.5378 
        1.74368         121.572         13.2436 
        1.75933         119.296         12.9576 
        1.77505         117.922         12.6787 
        1.79081          116.95         12.4075 
         1.8065         115.422         12.1453 
        1.82218         113.118          11.891 
        1.83797         111.864         11.6422 
        1.85367         110.729         11.4018 
        1.86928         108.589         11.1697 
        1.88497             107         10.9427 
        1.90073         105.782         10.7213 
        1.91647         104.527         10.5061 
        1.93218         103.209         10.2972 
        1.94787         101.564         10.0944 
        1.96363         100.364         9.89618 
        1.97935         98.6676         9.70368 
        1.99499         97.4809         9.51738 
        2.01064         96.2474          9.3357 
         2.0264         94.9811          9.1576 
        2.04216          93.921         8.98422 
        2.05781         93.0196         8.81642 
        2.07353         92.0151          8.6523 
        2.08928           89.94         8.49198 
        2.10499         88.9134         8.33614 
        2.12065         87.9121         8.18468 
        2.13633         87.1989         8.03683 
        2.15211         85.6386         7.89168 
        2.16785          84.386          7.7505 
        2.18349         83.5535         7.61365 
        2.19916         82.5632         7.47982 
        2.21489         81.5525         7.34874 
        2.23063          80.352         7.22071 
         2.2463         79.3105          7.0963 
        2.26194         78.6911         6.97512 
        2.27765         77.4091         6.85615 
        2.29341         76.6636         6.73963 
        2.30914         75.6191         6.62605 
        2.32486         74.9223         6.51514 
        2.34061          73.857         6.40658 
        2.35635            72.4         6.30058 
        2.37203         71.6493         6.19734 
        2.38768         70.9729         6.09662 
        2.40339         70.0405         5.99777 
        2.41914         69.0231         5.90088 
        2.43483         68.3916         5.80646 
         2.4505         67.4685         5.71425 
        2.46622         66.4913         5.62373 
        2.48195         65.8658         5.53516 
        2.49759         65.0571         5.44896 
        2.51328          64.569         5.36436 
        2.52906         63.4863         5.28102 
        2.54479         62.9163         5.19976 
        2.56049         62.0328         5.12036 
        2.57618         61.4822         5.04268 
        2.59189         60.5928         4.96649 
        2.60758         59.8512         4.89199 
        2.62325         59.1353          4.8191 
        2.63898         58.4184         4.74744 
        2.65468         57.8293         4.67738 
        2.67044         57.1306         4.60843 
        2.68618         56.5415         4.54102 
        2.70184         56.1986         4.47523 
        2.71755         55.2961         4.41057 
        2.73329         54.7427         4.34709 
        2.74897         54.1282         4.28506 
        2.76462         53.4956         4.22437 
        2.78034         52.8044          4.1646 
        2.79607         52.1549         4.10592 
        2.81179         51.7228         4.04844 
        2.82749         50.9738         3.99212 
        2.84321            50.6          3.9368 
        2.85893         49.8297         3.88254 
        2.87462         49.3803          3.8294 
        2.89033         48.8081          3.7772 
        2.90605         48.1156         3.72592 
        2.92176         47.7882         3.67561 
        2.93747         47.3629         3.62626 
        2.95318         46.7296          3.5778 
        2.96891          46.072          3.5302 
        2.98456          45.677         3.48368 
        3.00023         44.9246         3.43792 
        3.01596         44.5168         3.39284 
        3.03164         44.0882         3.34869 
        3.04738          43.537          3.3052 
         3.0631         43.0721         3.26249 
        3.07883         42.6682         3.22053 
        3.09456         42.2351         3.17931 
        3.11026         41.7174         3.13887 
        3.12596         41.2077         3.09914 
        3.14163         40.8207         3.06019 
        3.15734         40.4409         3.02181 
        3.17308         40.0609           2.984 
        3.18879         39.6702         2.94693 
        3.20447         38.9029         2.91055 
         3.2202         38.7848         2.87466 
         3.2359         38.3724         2.83944 
        3.25157         37.9739         2.80489 
        3.26729         37.5271         2.77081 
        3.28304          37.175         2.73723 
        3.29877         36.7351         2.70425 
        3.31446         36.2101         2.67188 
        3.33014         35.9962         2.64006 
        3.34585         35.7789         2.60872 
        3.36158          35.387         2.57783 
        3.37727         34.9177         2.54754 
        3.39294         34.6235         2.51776 
        3.40867         34.1733         2.48835 
        3.42439         33.8151         2.45942 
        3.44008         33.4714           2.431 
        3.45578         33.0898         2.40302 
        3.47153         32.8557         2.37541 
        3.48724         32.5247         2.34828 
        3.50292         32.2076         2.32163 
        3.51859         31.7922         2.29541 
        3.53431          31.488         2.26951 
        3.55007         31.1737         2.24395 
        3.56577         30.8515         2.21888 
        3.58146         30.6142          2.1942 
        3.59719         30.2562         2.16984 
        3.61292          30.006         2.14586 
        3.62859         29.6747         2.12232 
        3.64429         29.4256          2.0991 
        3.66003         29.0807         2.07615 
        3.67578         28.7323         2.05354 
        3.69146         28.6054         2.03136 
        3.70712         28.2542         2.00955 
        3.72284         28.0069         1.98797 
        3.73853          27.793         1.96675 
        3.75422         27.4604         1.94583 
        3.76993         27.2268         1.92519 
        3.78564         26.9607         1.90486 
        3.80137         26.6272         1.88479 
        3.81707         26.4152         1.86505 
        3.83279         26.1959         1.84557 
        3.84853         25.9848         1.82634 
        3.86424          25.711         1.80742 
        3.87992         25.4974          1.7888 
        3.89561          25.268         1.77043 
        3.91134          25.001         1.75229 
        3.92704         24.7908         1.73442 
        3.94273         24.4898         1.71681 
        3.95845          24.295         1.69942 
        3.97418         24.0924         1.68226 
        3.98988         23.8271         1.66536 
        4.00554         23.5791         1.64874 
        4.02125         23.4367          1.6323 
        4.03698         23.2323         1.61605 
        4.05268         23.0671         1.60006 
        4.06839         22.8452         1.58428 
         4.0841         22.5823         1.56871 
        4.09983         22.3316         1.55333 
        4.11555          22.148         1.53816 
        4.13124         21.9562         1.52324 
        4.14693          21.819         1.50849 
        4.16266          21.578         1.49391 
        4.17839         21.3566         1.47953 
        4.19408         21.1039         1.46537 
        4.20977         20.9795         1.45139 
        4.22551          20.826         1.43756 
        4.24123         20.6167         1.42392 
        4.25691         20.4517         1.41049 
        4.27259         20.3189         1.39724 
        4.28831         20.0587         1.38412 
        4.30404         19.9173         1.37116 
        4.31974         19.7475          1.3584 
        4.33543         19.5312          1.3458 
        4.35116         19.4224         1.33333 
        4.36688          19.249         1.32103 
        4.38255         19.0717         1.30892 
        4.39825         18.9023         1.29694 
        4.41398         18.6676         1.28508 
         4.4297         18.5206         1.27339 
        4.44541          18.416         1.26184 
        4.46111         18.2639         1.25045 
        4.47683         18.0803         1.23918 
        4.49251          17.983         1.22808 
        4.50819          17.747         1.21711 
         4.5239         17.6493         1.20626 
        4.53962         17.4793         1.19553 
        4.55535         17.3824         1.18493 
        4.57106         17.1575         1.17447 
        4.58678         17.0428         1.16413 
         4.6025          16.873         1.15391 
        4.61821         16.7938         1.14382 
        4.63391         16.6014         1.13386 
         4.6496         16.4614         1.12403 
        4.66532         16.3565         1.11429 
        4.68103         16.2146         1.10467 
        4.69673         16.0333         1.09518 
        4.71241         15.9025          1.0858 
        4.72811         15.7688         1.07652 
        4.74384         15.6713         1.06734 
        4.75955         15.5584         1.05827 
        4.77525          15.396         1.04932 
        4.79096         15.3148         1.04046 
        4.80669         15.1478         1.03169 
         4.8224         15.0252         1.02304 
        4.83809         14.8962          1.0145 
        4.85379         14.7772         1.00604 
         4.8695         14.6851        0.997678 
        4.88521         14.5716        0.989411 
        4.90093          14.442        0.981237 
        4.91663         14.3119        0.973162 
        4.93234          14.204        0.965169 
        4.94807         14.0829         0.95726 
        4.96377         13.9697        0.949454 
        4.97943         13.8842        0.941751 
        4.99514         13.7424        0.934114 
        5.01086         13.6269        0.926555 
        5.02654         13.5262        0.919098 
        5.04227         13.4348        0.911701 
          5.058         13.3524        0.904382 
        5.07371          13.208        0.897157 
        5.08942         13.1139         0.89001 
        5.10513         13.0225         0.88294 
        5.12084         12.9304        0.875942 
        5.13656         12.8122        0.869022 
        5.15225         12.7194        0.862187 
        5.16796         12.6095        0.855415 
        5.18369         12.5238        0.848709 
         5.1994         12.4059        0.842087 
        5.21509         12.3316        0.835541 
        5.23079         12.2209        0.829056 
        5.24649         12.1652        0.822646 
        5.26217         12.0519        0.816307 
        5.27788          11.947        0.810026 
        5.29359         11.8608        0.803809 
        5.30933         11.7719        0.797649 
        5.32504         11.6612        0.791562 
        5.34073         11.5993        0.785546 
        5.35646         11.5275        0.779581 
        5.37218         11.4124        0.773675 
        5.38789         11.3352         0.76784 
        5.40357         11.2403        0.762072 
        5.41929          11.162         0.75635 
        5.43502         11.0461        0.750686 
         5.4507         10.9811        0.745093 
        5.46639         10.9052        0.739555 
        5.48212         10.8193        0.734062 
        5.49786         10.7703        0.728617 
        5.51353          10.669        0.723254 
        5.52921         10.6018        0.717939 
        5.54495         10.5147        0.712662 
        5.56066         10.4152        0.707443 
        5.57637          10.334        0.702278 
        5.59207         10.2928        0.697168 
        5.60778         10.2026        0.692107 
        5.62346         10.1488        0.687103 
        5.63916         10.0572        0.682143 
        5.65487         9.98242         0.67723 
         5.6706         9.89664        0.672359 
        5.68633         9.83012        0.667534 
        5.70203         9.77844        0.662766 
        5.71773         9.69818        0.658045 
        5.73344         9.62024        0.653367 
        5.74916         9.56744        0.648731 
        5.76486         9.48961        0.644145 
        5.78054         9.42089        0.639611 
        5.79626         9.33835        0.635108 
          5.812         9.30525        0.630643 
         5.8277          9.2388        0.626234 
        5.84339         9.14461        0.621867 
        5.85911         9.09049        0.617533 
        5.87484         9.02348         0.61324 
        5.89053         8.95732        0.608997 
        5.90623          8.8944        0.604792 
        5.92195         8.83297         0.60062 
        5.93767         8.77709        0.596489 
        5.95336         8.72986        0.592403 
        5.96905          8.6562        0.588357 
        5.98476         8.60058        0.584342 
        6.00048         8.53094        0.580364 
        6.01617         8.47164        0.576428 
        6.03185         8.42295        0.572533 
        6.04756         8.34399        0.568665 
        6.06331         8.29126        0.564824 
        6.07903           8.239        0.561026 
        6.09473         8.16738        0.557267 
        6.11044         8.12609        0.553538 
        6.12616         8.06796        0.549844 
        6.14186           8.011        0.546188 
        6.15755         7.95556        0.542564 
        6.17326         7.90903        0.538971 
        6.18898         7.85825        0.535408 
        6.20467         7.79987        0.531884 
        6.22036         7.74271        0.528391 
         6.2361           7.692        0.524921 
         6.2518         7.64066        0.521487 
        6.26748         7.59077        0.518091 
        6.28319         7.52443        0.514716 
        6.29893         7.49408        0.511368 
        6.31463         7.43043        0.508055 
        6.33033         7.39811        0.504773 
        6.34604         7.33902        0.501517 
        6.36177         7.29751        0.498286 
        6.37747         7.24708         0.49509 
