# k  (h/Mpc)    Pcb(k)  (Mpc/h)^3    Pcb_linear(k) (Mpc/h)^3   ShotnoiseSubtracted = true
      0.0200456         34468.1           35164 
      0.0350414         25865.2         24939.2 
      0.0492313         17144.8         17704.4 
      0.0637834         13659.4         14527.6 
      0.0800726         10672.4         11539.4 
       0.096163         8730.64         8314.48 
       0.111083         7001.09         6505.12 
       0.126058         5763.22         5718.63 
       0.142273         5119.12         4892.16 
       0.158546          4174.1         3857.77 
        0.17375         3793.53         3191.95 
       0.188953         3670.84         2867.98 
       0.204907         3154.47         2560.69 
       0.220756         2888.59         2172.23 
        0.23588         2574.34         1866.19 
         0.2514          2360.6         1679.89 
       0.267535         2252.68         1527.25 
       0.283568         2047.79         1352.37 
       0.299022         1935.88         1196.39 
       0.314451         2017.94         1084.95 
       0.330372         1850.78         996.113 
       0.346141         1715.49         906.913 
       0.361624         1632.15         821.779 
       0.377134         1595.02         751.938 
       0.392932         1485.64         694.656 
       0.408854         1450.83         641.253 
       0.424564         1415.78         590.461 
       0.440253         1350.49         545.468 
       0.455999         1285.11         507.163 
       0.471626          1280.9         472.959 
        0.48727         1222.37         440.673 
       0.502856         1210.91         411.185 
       0.518488         1150.24          384.86 
       0.534347         1121.24         360.843 
       0.550082         1088.01         338.757 
       0.565732         1053.32         318.396 
       0.581496         1031.23         299.667 
       0.597222         1021.29          282.64 
       0.612804         985.468         267.037 
       0.628434         955.609         252.492 
       0.644267         936.391         238.837 
       0.660051         915.663         226.279 
       0.675724         903.784         214.729 
       0.691403         865.143         203.974 
       0.707174         848.946          193.89 
       0.722871         849.464         184.523 
        0.73838         811.457          175.87 
       0.754018         810.913         167.704 
       0.769845         785.728         159.964 
        0.78569         768.383         152.704 
       0.801365         752.903         145.963 
       0.817031         738.207         139.633 
       0.832809         725.079         133.639 
       0.848511         697.453         128.024 
       0.864097         694.087         122.771 
       0.879701         687.921         117.807 
       0.895507           673.6          113.06 
       0.911279         664.482         108.585 
        0.92691         651.607          104.39 
       0.942635         635.049         100.393 
       0.958396         631.873         96.5971 
       0.974128         613.348         93.0046 
       0.989692          607.99         89.6303 
        1.00528          590.61         86.4186 
        1.02113         578.828          83.314 
        1.03692         570.962         80.3734 
        1.05264         562.357         77.5882 
        1.06832         554.948         74.9393 
        1.08405         544.827          72.407 
        1.09979          533.52         69.9902 
        1.11537         520.244         67.7076 
        1.13105          513.61         65.5132 
        1.14679         506.992         63.4075 
        1.16256         498.747         61.3903 
        1.17828         492.206         59.4674 
        1.19395         483.414         57.6333 
         1.2097         472.392         55.8672 
        1.22537         464.675         54.1836 
          1.241          456.36         52.5744 
        1.25666         445.676         51.0266 
        1.27241         442.788         49.5337 
        1.28819         435.744         48.0981 
        1.30392         429.436         46.7235 
        1.31957         419.512         45.4087 
        1.33529          415.19         44.1396 
        1.35108         412.353          42.914 
        1.36674         402.964         41.7436 
         1.3824         398.395         40.6179 
        1.39811         390.913           39.53 
        1.41389         387.279         38.4777 
        1.42964         375.895         37.4655 
        1.44531         374.523         36.4945 
        1.46101         365.787         35.5559 
        1.47667         360.677          34.653 
        1.49229         358.025         33.7839 
        1.50793         347.047         32.9436 
        1.52367         345.929         32.1264 
        1.53953         338.915         31.3314 
        1.55526         331.736         30.5696 
        1.57092         328.186         29.8362 
        1.58662         324.107         29.1251 
        1.60235         319.247         28.4358 
        1.61809         312.467         27.7684 
        1.63369         308.298         27.1283 
        1.64941         305.827         26.5038 
        1.66519         300.198         25.8967 
        1.68085         293.549         25.3128 
        1.69652         290.232         24.7468 
        1.71228         286.986         24.1948 
        1.72806          281.24         23.6592 
        1.74368         277.787         23.1451 
        1.75933         274.798         22.6453 
        1.77505         270.387         22.1578 
        1.79081         267.441         21.6839 
         1.8065         263.476         21.2257 
        1.82218         258.299         20.7812 
        1.83797         255.137         20.3464 
        1.85367         251.487         19.9263 
        1.86928         247.878         19.5206 
        1.88497         245.703          19.124 
        1.90073         240.733         18.7369 
        1.91647         237.561         18.3609 
        1.93218          234.43         17.9959 
        1.94787         232.062         17.6414 
        1.96363         228.939          17.295 
        1.97935         222.686         16.9586 
        1.99499         221.225          16.633 
        2.01064         217.894         16.3155 
         2.0264         214.947         16.0042 
        2.04216         212.429         15.7012 
        2.05781         208.522          15.408 
        2.07353          206.78         15.1211 
        2.08928          203.47          14.841 
        2.10499         201.753         14.5686 
        2.12065         198.023         14.3039 
        2.13633         195.477         14.0455 
        2.15211         193.439         13.7918 
        2.16785         190.845         13.5451 
        2.18349         187.905          13.306 
        2.19916         185.658         13.0721 
        2.21489         183.496          12.843 
        2.23063         180.301         12.6192 
         2.2463         178.108         12.4018 
        2.26194         175.282           12.19 
        2.27765         172.938         11.9821 
        2.29341         171.847         11.7785 
        2.30914         169.076           11.58 
        2.32486         167.677         11.3861 
        2.34061         164.153         11.1964 
        2.35635         162.691         11.0112 
        2.37203         161.486         10.8307 
        2.38768         158.782         10.6547 
        2.40339         156.643          10.482 
        2.41914         155.286         10.3126 
        2.43483         152.738         10.1476 
         2.4505         150.693         9.98648 
        2.46622         149.459         9.82828 
        2.48195         147.649         9.67348 
        2.49759         145.578         9.52283 
        2.51328          143.44         9.37499 
        2.52906         142.274         9.22935 
        2.54479          140.26         9.08733 
        2.56049         138.151         8.94856 
        2.57618         137.063         8.81281 
        2.59189         135.718         8.67965 
        2.60758         134.012         8.54945 
        2.62325         132.303         8.42207 
        2.63898         130.558         8.29683 
        2.65468         128.507         8.17439 
        2.67044         127.562         8.05389 
        2.68618         126.271         7.93609 
        2.70184         124.702         7.82111 
        2.71755         122.929         7.70811 
        2.73329         122.103         7.59716 
        2.74897          120.47         7.48875 
        2.76462         119.421         7.38269 
        2.78034         117.643         7.27824 
        2.79607         116.767         7.17569 
        2.81179          114.26         7.07523 
        2.82749         113.695          6.9768 
        2.84321         112.087         6.88012 
        2.85893         110.692          6.7853 
        2.87462         109.488         6.69242 
        2.89033         108.479         6.60119 
        2.90605         106.965         6.51158 
        2.92176         106.088         6.42366 
        2.93747         104.937         6.33741 
        2.95318         103.586         6.25272 
        2.96891         102.537         6.16954 
        2.98456         101.689         6.08823 
        3.00023         100.384         6.00826 
        3.01596         99.2096         5.92947 
        3.03164         98.0572         5.85232 
        3.04738         97.2402          5.7763 
         3.0631         95.9337         5.70166 
        3.07883         95.2868         5.62833 
        3.09456         94.3231          5.5563 
        3.11026         93.2803         5.48563 
        3.12596         91.7644          5.4162 
        3.14163         90.9977         5.34812 
        3.15734          89.923         5.28105 
        3.17308         89.0619         5.21496 
        3.18879         87.6624         5.15019 
        3.20447         86.9751          5.0866 
         3.2202         86.1494         5.02388 
         3.2359         85.2315         4.96233 
        3.25157         84.4187         4.90195 
        3.26729         83.4639         4.84239 
        3.28304         82.8672         4.78371 
        3.29877         81.8016         4.72606 
        3.31446         80.7889         4.66949 
        3.33014         80.4108         4.61389 
        3.34585         79.4256         4.55911 
        3.36158         78.3597         4.50513 
        3.37727         77.6412         4.45219 
        3.39294         76.8824         4.40014 
        3.40867         76.0961         4.34874 
        3.42439          75.277         4.29819 
        3.44008          74.558         4.24853 
        3.45578         73.7523         4.19962 
        3.47153         72.9692         4.15136 
        3.48724         72.2402         4.10395 
        3.50292         71.7456         4.05739 
        3.51859          70.948         4.01156 
        3.53431         70.1544          3.9663 
        3.55007         69.5254         3.92163 
        3.56577          68.785         3.87781 
        3.58146         68.0253         3.83468 
        3.59719         67.6165         3.79211 
        3.61292         66.7642         3.75019 
        3.62859          66.206         3.70906 
        3.64429         65.6678         3.66847 
        3.66003         64.9617         3.62836 
        3.67578         64.0392         3.58886 
        3.69146         63.5697          3.5501 
        3.70712         63.0793         3.51197 
        3.72284         62.6038         3.47427 
        3.73853         61.7023         3.43718 
        3.75422         61.4826         3.40061 
        3.76993         60.5919         3.36455 
        3.78564         60.0435         3.32901 
        3.80137         59.4603         3.29394 
        3.81707         58.9043         3.25944 
        3.83279         58.5037          3.2254 
        3.84853         57.8222         3.19179 
        3.86424         57.3799         3.15873 
        3.87992          56.795         3.12618 
        3.89561         56.2706         3.09408 
        3.91134         55.6523         3.06237 
        3.92704          55.293         3.03114 
        3.94273           54.76         3.00037 
        3.95845         54.1178         2.96997 
        3.97418         53.6791         2.93999 
        3.98988         53.1859         2.91046 
        4.00554         52.6431         2.88141 
        4.02125         52.1192         2.85267 
        4.03698         51.4678         2.82428 
        4.05268         51.1898         2.79634 
        4.06839         50.7338         2.76876 
         4.0841         50.3924         2.74155 
        4.09983         49.9073         2.71467 
        4.11555          49.546         2.68816 
        4.13124         49.0818         2.66207 
        4.14693         48.7524         2.63631 
        4.16266         48.1039         2.61083 
        4.17839         47.8246          2.5857 
        4.19408         47.4088         2.56095 
        4.20977         46.8875         2.53652 
        4.22551         46.3762         2.51234 
        4.24123         45.9645         2.48851 
        4.25691         45.5311         2.46504 
        4.27259         45.4488         2.44187 
        4.28831         44.8716         2.41895 
        4.30404         44.4924          2.3963 
        4.31974         44.0144         2.37399 
        4.33543         43.7159         2.35198 
        4.35116         43.2789         2.33019 
        4.36688         42.9691         2.30868 
        4.38255           42.53         2.28753 
        4.39825          42.279         2.26659 
        4.41398         41.8371         2.24587 
         4.4297         41.5801         2.22543 
        4.44541         41.1596         2.20525 
        4.46111         40.8083         2.18533 
        4.47683         40.4949         2.16565 
        4.49251         40.0472         2.14624 
        4.50819         39.7529         2.12708 
         4.5239         39.4358         2.10812 
        4.53962         39.1291         2.08937 
        4.55535         38.8115         2.07084 
        4.57106         38.4488         2.05255 
        4.58678         38.1569         2.03449 
         4.6025            37.8         2.01663 
        4.61821         37.4809         1.99899 
        4.63391         37.1062         1.98159 
         4.6496         36.7921          1.9644 
        4.66532         36.5421         1.94738 
        4.68103         36.1246         1.93057 
        4.69673         35.9883         1.91398 
        4.71241         35.6671          1.8976 
        4.72811         35.3912         1.88138 
        4.74384         35.0353         1.86533 
        4.75955         34.8636         1.84949 
        4.77525         34.4848         1.83384 
        4.79096         34.1469         1.81835 
        4.80669         33.8859         1.80303 
         4.8224         33.5386         1.78791 
        4.83809         33.4128         1.77298 
        4.85379         33.0202          1.7582 
         4.8695         32.8388         1.74358 
        4.88521         32.5617         1.72914 
        4.90093         32.3571         1.71485 
        4.91663         32.0571         1.70074 
        4.93234         31.7764         1.68677 
        4.94807         31.4764         1.67295 
        4.96377         31.2549         1.65931 
        4.97943         30.9916         1.64585 
        4.99514         30.8403          1.6325 
        5.01086         30.5152         1.61929 
        5.02654         30.2705         1.60626 
        5.04227          30.099         1.59333 
          5.058         29.7796         1.58054 
        5.07371         29.5548         1.56791 
        5.08942         29.3508         1.55542 
        5.10513         29.0765         1.54306 
        5.12084         28.8407         1.53083 
        5.13656         28.6943         1.51874 
        5.15225         28.4608          1.5068 
        5.16796         28.2066         1.49496 
        5.18369         27.9796         1.48324 
         5.1994         27.6798         1.47167 
        5.21509         27.5164         1.46023 
        5.23079         27.2988          1.4489 
        5.24649         27.0678         1.43769 
        5.26217         26.9194         1.42661 
        5.27788         26.7445         1.41564 
        5.29359         26.5153         1.40477 
        5.30933         26.2964         1.39401 
        5.32504         26.0869         1.38337 
        5.34073         25.8445         1.37286 
        5.35646          25.654         1.36243 
        5.37218         25.4758         1.35211 
        5.38789         25.2634         1.34191 
        5.40357         25.1076         1.33183 
        5.41929         24.9268         1.32183 
        5.43502         24.7635         1.31193 
         5.4507         24.5377         1.30216 
        5.46639         24.2905         1.29248 
        5.48212         24.2099         1.28288 
        5.49786         24.0107         1.27336 
        5.51353         23.8015         1.26399 
        5.52921         23.6009          1.2547 
        5.54495         23.4688         1.24548 
        5.56066         23.2877         1.23636 
        5.57637          23.111         1.22733 
        5.59207         22.9454          1.2184 
        5.60778         22.7564         1.20956 
        5.62346          22.617         1.20081 
        5.63916         22.4074         1.19214 
        5.65487         22.2755         1.18356 
         5.6706         22.1217         1.17504 
        5.68633         21.9269         1.16661 
        5.70203         21.7946         1.15828 
        5.71773         21.6595         1.15003 
        5.73344         21.4662         1.14185 
        5.74916          21.311         1.13375 
        5.76486          21.192         1.12574 
        5.78054         21.0232         1.11781 
        5.79626         20.8701         1.10994 
          5.812         20.7282         1.10214 
         5.8277          20.576         1.09443 
        5.84339         20.4082          1.0868 
        5.85911         20.2557         1.07923 
        5.87484         20.1388         1.07173 
        5.89053         20.0326         1.06431 
        5.90623         19.8286         1.05696 
        5.92195         19.6676         1.04967 
        5.93767         19.5671         1.04245 
        5.95336         19.4051         1.03531 
        5.96905         19.2552         1.02824 
        5.98476         19.1317         1.02122 
        6.00048         18.9921         1.01427 
        6.01617           18.85         1.00739 
        6.03185         18.7782         1.00058 
        6.04756         18.5905        0.993823 
        6.06331         18.4625        0.987111 
        6.07903         18.3354        0.980474 
        6.09473         18.2141        0.973904 
        6.11044         18.1029        0.967388 
        6.12616         17.9481        0.960932 
        6.14186         17.8567        0.954541 
        6.15755         17.7105        0.948209 
        6.17326         17.5847        0.941929 
        6.18898         17.4722        0.935703 
        6.20467         17.3747        0.929543 
        6.22036         17.2166         0.92344 
         6.2361         17.0822        0.917374 
         6.2518          17.023        0.911373 
        6.26748         16.8593        0.905438 
        6.28319         16.7542         0.89954 
        6.29893         16.6349        0.893689 
        6.31463         16.5308        0.887899 
        6.33033         16.4192        0.882163 
        6.34604         16.2928        0.876473 
        6.36177         16.1918        0.870827 
        6.37747          16.099        0.865241 
