# k  (h/Mpc)    Pcb(k)  (Mpc/h)^3    Pcb_linear(k) (Mpc/h)^3   ShotnoiseSubtracted = true
      0.0200456         10402.1         10554.9 
      0.0350414         6981.35         6761.28 
      0.0492313          4512.9         4519.32 
      0.0637834         3656.04         3755.81 
      0.0800726         2884.53         2995.05 
       0.096163         2140.43         2044.97 
       0.111083         1665.17         1560.16 
       0.126058         1414.14         1413.24 
       0.142273         1229.37         1220.07 
       0.158546         980.003          928.85 
        0.17375         830.767         756.066 
       0.188953         769.411         692.747 
       0.204907         660.371         626.129 
       0.220756         585.472         521.893 
        0.23588         511.059         442.045 
         0.2514         455.148         401.322 
       0.267535         440.189         368.874 
       0.283568          382.09         324.462 
       0.299022         359.842         284.418 
       0.314451         355.414         258.489 
       0.330372         305.514         238.909 
       0.346141         282.153         217.337 
       0.361624         266.654         196.011 
       0.377134         245.685         179.241 
       0.392932          237.81         166.152 
       0.408854         225.603         153.541 
       0.424564         215.693         141.128 
       0.440253         194.478         130.282 
       0.455999         182.977         121.289 
       0.471626         180.662         113.247 
        0.48727         172.001         105.496 
       0.502856         156.728         98.3969 
       0.518488          155.96         92.1569 
       0.534347         144.955         86.4808 
       0.550082         141.208         81.2239 
       0.565732          139.15         76.3453 
       0.581496         128.264         71.8849 
       0.597222         125.288         67.8417 
       0.612804         120.544         64.1336 
       0.628434         117.471         60.6627 
       0.644267         111.151         57.4036 
       0.660051          108.35          54.415 
       0.675724         106.103         51.6651 
       0.691403         103.777         49.1022 
       0.707174         99.7166          46.698 
       0.722871          97.874         44.4636 
        0.73838         95.7419         42.3989 
       0.754018         89.8067         40.4495 
       0.769845         89.4698         38.6013 
        0.78569         86.8565          36.867 
       0.801365         83.6474         35.2565 
       0.817031         81.2011         33.7438 
       0.832809         79.7005         32.3109 
       0.848511         77.7762         30.9684 
       0.864097         76.3285         29.7121 
       0.879701          74.871         28.5249 
       0.895507         72.1557         27.3891 
       0.911279         70.5558          26.318 
        0.92691         69.0767         25.3135 
       0.942635         67.1607         24.3563 
       0.958396          67.106          23.447 
       0.974128         65.4824          22.586 
       0.989692         63.7762         21.7771 
        1.00528         62.6027         21.0069 
        1.02113           61.03         20.2621 
        1.03692         60.9267         19.5564 
        1.05264         59.8001         18.8877 
        1.06832         57.8966         18.2515 
        1.08405          57.145         17.6431 
        1.09979         56.5229         17.0622 
        1.11537         55.1012         16.5134 
        1.13105          53.929         15.9855 
        1.14679         53.3447         15.4789 
        1.16256         52.3644         14.9933 
        1.17828         51.8913         14.5303 
        1.19395         50.5344         14.0885 
         1.2097         50.4033          13.663 
        1.22537         49.0964         13.2571 
          1.241         48.9991         12.8691 
        1.25666         47.1948         12.4957 
        1.27241         47.1347         12.1355 
        1.28819         46.5272          11.789 
        1.30392          45.511         11.4571 
        1.31957         45.3153         11.1395 
        1.33529         44.5743         10.8328 
        1.35108         44.0066         10.5366 
        1.36674         43.0848         10.2536 
         1.3824         42.5055         9.98127 
        1.39811         41.8062         9.71802 
        1.41389         41.2767         9.46331 
        1.42964         40.9235         9.21821 
        1.44531         40.2528         8.98303 
        1.46101         39.8595          8.7556 
        1.47667         39.2784         8.53676 
        1.49229         38.5978         8.32602 
        1.50793         38.2682          8.1222 
        1.52367         37.8979         7.92392 
        1.53953         37.4695         7.73096 
        1.55526         36.6987         7.54599 
        1.57092         36.5491         7.36788 
        1.58662         36.0238         7.19511 
        1.60235         35.4924         7.02758 
        1.61809         35.0338         6.86532 
        1.63369         34.4923         6.70964 
        1.64941         34.1586         6.55771 
        1.66519         33.6864         6.40995 
        1.68085         33.2353         6.26782 
        1.69652         32.8267         6.12997 
        1.71228         32.5973          5.9955 
        1.72806         32.2338         5.86498 
        1.74368         31.6204         5.73967 
        1.75933         31.5958         5.61779 
        1.77505         31.1107         5.49889 
        1.79081         30.8008         5.38324 
         1.8065         30.4743         5.27142 
        1.82218          29.821         5.16289 
        1.83797         29.6392         5.05669 
        1.85367         29.3305         4.95407 
        1.86928         29.2105         4.85493 
        1.88497         28.6787         4.75797 
        1.90073         28.5143         4.66331 
        1.91647         28.3092         4.57133 
        1.93218         28.0148         4.48202 
        1.94787         27.6213         4.39525 
        1.96363          27.213         4.31044 
        1.97935         27.0428         4.22805 
        1.99499         26.7922         4.14829 
        2.01064         26.3236         4.07048 
         2.0264         26.2119         3.99418 
        2.04216         26.0301         3.91988 
        2.05781          25.737         3.84795 
        2.07353         25.3598         3.77758 
        2.08928         25.2286         3.70882 
        2.10499         24.9109         3.64196 
        2.12065         24.5897         3.57695 
        2.13633         24.4735         3.51348 
        2.15211         24.0861         3.45115 
        2.16785         23.8623         3.39051 
        2.18349         23.6751         3.33172 
        2.19916         23.4485         3.27419 
        2.21489         23.2486         3.21785 
        2.23063         23.0021         3.16279 
         2.2463         22.8459         3.10927 
        2.26194         22.5026         3.05713 
        2.27765         22.3314         3.00593 
        2.29341          22.019         2.95576 
        2.30914         21.8346         2.90685 
        2.32486         21.7038         2.85908 
        2.34061         21.4602          2.8123 
        2.35635         21.1937         2.76662 
        2.37203         21.0998         2.72211 
        2.38768         20.8383         2.67868 
        2.40339         20.6615         2.63604 
        2.41914         20.5179         2.59423 
        2.43483         20.3997         2.55348 
         2.4505         20.0561         2.51367 
        2.46622         19.8579         2.47458 
        2.48195         19.7146         2.43633 
        2.49759         19.4717         2.39908 
        2.51328         19.2834         2.36252 
        2.52906         19.1327          2.3265 
        2.54479         19.0326         2.29136 
        2.56049         18.8556         2.25702 
        2.57618         18.6752         2.22341 
        2.59189         18.4492         2.19044 
        2.60758         18.2804          2.1582 
        2.62325         18.0678         2.12664 
        2.63898          18.026          2.0956 
        2.65468         17.8478         2.06525 
        2.67044         17.6638         2.03538 
        2.68618         17.3975         2.00617 
        2.70184          17.281         1.97764 
        2.71755         17.0744         1.94961 
        2.73329         16.9466         1.92207 
        2.74897         16.8701         1.89516 
        2.76462         16.7189         1.86883 
        2.78034         16.4711         1.84288 
        2.79607         16.3783         1.81741 
        2.81179         16.2317         1.79244 
        2.82749         16.0454         1.76798 
        2.84321         15.9518         1.74395 
        2.85893          15.809         1.72037 
        2.87462         15.6377         1.69726 
        2.89033         15.5378         1.67457 
        2.90605         15.3517         1.65227 
        2.92176         15.1821         1.63038 
        2.93747         15.1447         1.60891 
        2.95318         15.0074         1.58782 
        2.96891         14.7898          1.5671 
        2.98456         14.7305         1.54684 
        3.00023         14.6069         1.52691 
        3.01596         14.4134         1.50727 
        3.03164         14.3505         1.48804 
        3.04738         14.2521         1.46908 
         3.0631         14.1034         1.45046 
        3.07883         13.9682         1.43217 
        3.09456         13.8412         1.41419 
        3.11026         13.7465         1.39655 
        3.12596         13.5883         1.37921 
        3.14163         13.4821         1.36221 
        3.15734         13.4044         1.34546 
        3.17308         13.2594         1.32895 
        3.18879         13.1396         1.31276 
        3.20447         13.0683         1.29687 
         3.2202         12.9338         1.28119 
         3.2359         12.8121          1.2658 
        3.25157          12.714          1.2507 
        3.26729         12.6137          1.2358 
        3.28304         12.5329         1.22111 
        3.29877         12.4487         1.20668 
        3.31446         12.3269         1.19252 
        3.33014         12.1981          1.1786 
        3.34585         12.1367         1.16488 
        3.36158          12.031         1.15135 
        3.37727         11.9184         1.13809 
        3.39294         11.8156         1.12505 
        3.40867         11.6988         1.11216 
        3.42439         11.6268         1.09949 
        3.44008          11.517         1.08703 
        3.45578         11.4107         1.07476 
        3.47153         11.3387         1.06266 
        3.48724         11.2554         1.05076 
        3.50292         11.1758         1.03907 
        3.51859          11.038         1.02757 
        3.53431         10.9732         1.01621 
        3.55007         10.8992         1.00499 
        3.56577         10.7756        0.993979 
        3.58146         10.6961        0.983143 
        3.59719         10.6239        0.972443 
        3.61292         10.5439        0.961907 
        3.62859         10.4328        0.951567 
        3.64429         10.3656         0.94136 
        3.66003         10.2503        0.931272 
        3.67578         10.2031        0.921335 
        3.69146          10.117        0.911581 
        3.70712         10.0055        0.901987 
        3.72284          9.9416        0.892495 
        3.73853         9.86674        0.883157 
        3.75422         9.77909        0.873949 
        3.76993         9.69268        0.864865 
        3.78564         9.62956        0.855914 
        3.80137         9.57373        0.847075 
        3.81707         9.47367         0.83838 
        3.83279         9.40183          0.8298 
        3.84853           9.335        0.821327 
        3.86424          9.2348        0.812989 
        3.87992         9.17949        0.804779 
        3.89561         9.09981        0.796683 
        3.91134         9.02685        0.788681 
        3.92704          8.9772        0.780799 
        3.94273         8.90585        0.773033 
        3.95845         8.81392        0.765359 
        3.97418         8.74755        0.757787 
        3.98988         8.69237        0.750328 
        4.00554         8.61336         0.74299 
        4.02125          8.5729         0.73573 
        4.03698         8.48225        0.728555 
        4.05268         8.43432        0.721493 
        4.06839         8.34965        0.714519 
         4.0841         8.29918         0.70764 
        4.09983         8.20711        0.700842 
        4.11555         8.16507        0.694136 
        4.13124         8.08212        0.687536 
        4.14693         8.02944        0.681017 
        4.16266         7.94923        0.674568 
        4.17839         7.89777        0.668206 
        4.19408         7.84733         0.66194 
        4.20977         7.76012        0.655753 
        4.22551           7.726         0.64963 
        4.24123         7.66113        0.643592 
        4.25691         7.59067        0.637647 
        4.27259         7.54039        0.631775 
        4.28831         7.47601        0.625966 
        4.30404         7.42782        0.620224 
        4.31974         7.38575        0.614567 
        4.33543         7.29374        0.608984 
        4.35116         7.25447        0.603457 
        4.36688         7.20069        0.598001 
        4.38255         7.15019        0.592633 
        4.39825         7.07899         0.58732 
        4.41398         7.03465        0.582061 
         4.4297          6.9866        0.576872 
        4.44541         6.92866        0.571747 
        4.46111         6.87173        0.566689 
        4.47683          6.8338        0.561688 
        4.49251         6.80008        0.556758 
        4.50819         6.70318        0.551889 
         4.5239         6.66495        0.547071 
        4.53962         6.63049        0.542305 
        4.55535          6.5821        0.537593 
        4.57106         6.53244        0.532944 
        4.58678         6.48236        0.528349 
         4.6025         6.43452        0.523808 
        4.61821         6.37437        0.519321 
        4.63391          6.3419        0.514892 
         4.6496         6.30422        0.510517 
        4.66532         6.26159        0.506186 
        4.68103         6.20059        0.501907 
        4.69673         6.16562        0.497682 
        4.71241         6.12018         0.49351 
        4.72811         6.06256        0.489378 
        4.74384          6.0272        0.485289 
        4.75955         5.99958        0.481253 
        4.77525         5.95418        0.477266 
        4.79096         5.91402        0.473318 
        4.80669         5.86615        0.469414 
         4.8224         5.83451        0.465558 
        4.83809          5.7763         0.46175 
        4.85379         5.74647        0.457982 
         4.8695         5.70354        0.454253 
        4.88521         5.66667        0.450567 
        4.90093         5.61553        0.446922 
        4.91663         5.56704         0.44332 
        4.93234         5.53539        0.439754 
        4.94807         5.49574        0.436225 
        4.96377         5.44712        0.432742 
        4.97943         5.43278        0.429304 
        4.99514         5.38855        0.425895 
        5.01086          5.3348         0.42252 
        5.02654         5.30944         0.41919 
        5.04227         5.26697        0.415887 
          5.058          5.2234        0.412618 
        5.07371         5.20681         0.40939 
        5.08942         5.15674        0.406196 
        5.10513         5.12478        0.403037 
        5.12084         5.08812        0.399909 
        5.13656         5.04163        0.396815 
        5.15225         5.01225         0.39376 
        5.16796         4.97943        0.390731 
        5.18369         4.94255        0.387732 
         5.1994         4.92336         0.38477 
        5.21509         4.88403        0.381841 
        5.23079         4.84843         0.37894 
        5.24649         4.80222        0.376071 
        5.26217         4.77919        0.373234 
        5.27788         4.74196        0.370422 
        5.29359         4.71915        0.367639 
        5.30933         4.68407         0.36488 
        5.32504         4.66507        0.362154 
        5.34073         4.62439        0.359459 
        5.35646         4.58977        0.356787 
        5.37218         4.56368        0.354141 
        5.38789           4.537        0.351526 
        5.40357         4.50274         0.34894 
        5.41929         4.46654        0.346375 
        5.43502         4.44074        0.343836 
         5.4507         4.40691        0.341328 
        5.46639         4.37778        0.338844 
        5.48212         4.36224         0.33638 
        5.49786         4.33152        0.333937 
        5.51353         4.30617        0.331531 
        5.52921         4.27349        0.329146 
        5.54495         4.24461        0.326778 
        5.56066         4.22279        0.324435 
        5.57637          4.1928        0.322116 
        5.59207         4.15589        0.319822 
        5.60778          4.1374        0.317549 
        5.62346         4.11251        0.315301 
        5.63916         4.08499        0.313073 
        5.65487         4.04913        0.310866 
         5.6706         4.03082        0.308677 
        5.68633         3.99991        0.306509 
        5.70203          3.9867        0.304366 
        5.71773         3.95984        0.302244 
        5.73344         3.92514        0.300141 
        5.74916         3.91199        0.298056 
        5.76486         3.87747        0.295993 
        5.78054         3.85766        0.293954 
        5.79626         3.83647        0.291928 
          5.812         3.80713        0.289919 
         5.8277         3.78221        0.287935 
        5.84339          3.7615        0.285969 
        5.85911         3.73306        0.284019 
        5.87484          3.7136        0.282086 
        5.89053         3.69074        0.280176 
        5.90623         3.67243        0.278282 
        5.92195          3.6525        0.276403 
        5.93767         3.62167        0.274542 
        5.95336          3.6038        0.272702 
        5.96905         3.58423        0.270878 
        5.98476         3.56182         0.26907 
        6.00048         3.53479        0.267277 
        6.01617         3.51199        0.265502 
        6.03185         3.48858        0.263747 
        6.04756         3.46589        0.262002 
        6.06331         3.44812         0.26027 
        6.07903         3.43226        0.258557 
        6.09473          3.4088        0.256862 
        6.11044          3.3864         0.25518 
        6.12616         3.37208        0.253513 
        6.14186         3.34856        0.251863 
        6.15755         3.32622        0.250228 
        6.17326         3.30975        0.248606 
        6.18898         3.27869        0.246997 
        6.20467         3.26944        0.245406 
        6.22036         3.25232        0.243829 
         6.2361         3.22257        0.242262 
         6.2518         3.21455         0.24071 
        6.26748         3.19205        0.239176 
        6.28319         3.16516        0.237652 
        6.29893          3.1563        0.236139 
        6.31463         3.13881        0.234642 
        6.33033         3.11845        0.233158 
        6.34604         3.10252        0.231686 
        6.36177         3.07885        0.230226 
        6.37747         3.06837         0.22878 
