# k  (h/Mpc)    Pcb(k)  (Mpc/h)^3    Pcb_linear(k) (Mpc/h)^3   ShotnoiseSubtracted = true
      0.0200456         21289.1         21653.5 
      0.0350414         14431.3         13870.8 
      0.0492313         9175.25         9271.43 
      0.0637834         7406.13         7705.08 
      0.0800726         5820.32         6144.38 
       0.096163         4458.34         4195.28 
       0.111083         3490.99         3200.68 
       0.126058         2922.82         2899.27 
       0.142273         2575.24         2502.98 
       0.158546         2065.06         1905.55 
        0.17375         1798.03         1551.08 
       0.188953         1700.36         1421.18 
       0.204907         1459.68         1284.51 
       0.220756         1311.61         1070.67 
        0.23588         1157.89         906.861 
         0.2514         1037.82         823.316 
       0.267535         1005.94         756.749 
       0.283568         886.428         665.637 
       0.299022         841.155         583.487 
       0.314451          870.84         530.293 
       0.330372         753.099         490.125 
       0.346141         691.954         445.869 
       0.361624          661.88         402.118 
       0.377134         630.931         367.714 
       0.392932         600.691         340.863 
       0.408854         575.609         314.991 
       0.424564         559.299         289.525 
       0.440253         511.801         267.274 
       0.455999         488.227         248.825 
       0.471626         497.805         232.328 
        0.48727         467.161         216.426 
       0.502856         442.182         201.862 
       0.518488          432.55         189.061 
       0.534347         411.319         177.416 
       0.550082         391.737         166.632 
       0.565732         387.899         156.623 
       0.581496         376.881         147.473 
       0.597222         366.708         139.178 
       0.612804         356.273         131.571 
       0.628434         343.182          124.45 
       0.644267         330.695         117.764 
       0.660051         327.036         111.633 
       0.675724          318.84         105.991 
       0.691403         312.979         100.734 
       0.707174         301.054         95.8014 
       0.722871         297.122         91.2176 
        0.73838         290.834         86.9818 
       0.754018         281.302         82.9826 
       0.769845         280.516         79.1909 
        0.78569         272.519         75.6329 
       0.801365         263.743          72.329 
       0.817031         262.653         69.2257 
       0.832809         256.446         66.2862 
       0.848511         251.564          63.532 
       0.864097         243.735         60.9547 
       0.879701         243.594         58.5191 
       0.895507          236.58          56.189 
       0.911279         231.274         53.9917 
        0.92691         228.652          51.931 
       0.942635         225.766         49.9673 
       0.958396         219.969         48.1017 
       0.974128         217.856         46.3355 
       0.989692         209.943          44.676 
        1.00528         209.505         43.0959 
        1.02113         206.842         41.5679 
        1.03692         202.316         40.1201 
        1.05264         198.392         38.7483 
        1.06832         197.307         37.4431 
        1.08405         192.874         36.1949 
        1.09979         190.292         35.0033 
        1.11537          188.22         33.8773 
        1.13105         183.905         32.7945 
        1.14679         182.699         31.7551 
        1.16256         179.432          30.759 
        1.17828         177.489         29.8091 
        1.19395         173.237         28.9028 
         1.2097         172.603         28.0297 
        1.22537         170.743         27.1972 
          1.241         165.262         26.4011 
        1.25666         164.899         25.6352 
        1.27241         161.802         24.8962 
        1.28819          159.91         24.1852 
        1.30392         158.191         23.5043 
        1.31957         154.524         22.8527 
        1.33529         151.774         22.2236 
        1.35108         151.305         21.6159 
        1.36674         147.662         21.0353 
         1.3824         146.833         20.4767 
        1.39811         145.322         19.9366 
        1.41389         141.857         19.4141 
        1.42964         139.725         18.9113 
        1.44531         139.117         18.4288 
        1.46101         136.305         17.9622 
        1.47667         135.712         17.5132 
        1.49229         133.955         17.0809 
        1.50793         131.129         16.6628 
        1.52367         129.484          16.256 
        1.53953         127.348         15.8601 
        1.55526         126.487         15.4807 
        1.57092         125.383         15.1153 
        1.58662         122.806         14.7608 
        1.60235         121.563         14.4171 
        1.61809         119.972         14.0843 
        1.63369           117.9         13.7649 
        1.64941         117.407         13.4532 
        1.66519         115.336         13.1501 
        1.68085         113.546         12.8585 
        1.69652         112.546         12.5757 
        1.71228         110.821         12.2998 
        1.72806         110.437         12.0321 
        1.74368         109.097          11.775 
        1.75933         107.673          11.525 
        1.77505         106.306          11.281 
        1.79081         104.482         11.0438 
         1.8065         102.842         10.8144 
        1.82218          101.74         10.5917 
        1.83797         101.231         10.3739 
        1.85367         99.7536         10.1633 
        1.86928         99.1016         9.95994 
        1.88497         97.0903         9.76103 
        1.90073         96.5165         9.56684 
        1.91647         94.9165         9.37812 
        1.93218         93.9377         9.19492 
        1.94787         92.3787          9.0169 
        1.96363          91.777         8.84291 
        1.97935         90.8186         8.67389 
        1.99499         90.0064         8.51025 
        2.01064         88.3768         8.35062 
         2.0264         87.3847          8.1941 
        2.04216         86.2436         8.04168 
        2.05781         85.1063         7.89411 
        2.07353         84.5045         7.74974 
        2.08928         83.4035         7.60868 
        2.10499         82.5408         7.47151 
        2.12065         81.5049         7.33816 
        2.13633         80.5376         7.20795 
        2.15211          79.285         7.08008 
        2.16785         78.2658         6.95567 
        2.18349         77.1734         6.83505 
        2.19916         76.6959         6.71704 
        2.21489         75.8605         6.60144 
        2.23063         74.5437          6.4885 
         2.2463         73.7918         6.37871 
        2.26194         73.4263         6.27174 
        2.27765         71.9643         6.16669 
        2.29341         71.3483         6.06378 
        2.30914         70.4297         5.96343 
        2.32486         69.7298         5.86543 
        2.34061         68.6529         5.76946 
        2.35635         68.1618         5.67574 
        2.37203         67.0047         5.58443 
        2.38768         66.6632         5.49533 
        2.40339         65.7397         5.40785 
        2.41914         64.8069         5.32209 
        2.43483         64.3887         5.23849 
         2.4505         63.5882         5.15683 
        2.46622         63.0105         5.07663 
        2.48195         62.2984         4.99815 
        2.49759         61.5448         4.92174 
        2.51328         60.6462         4.84674 
        2.52906         60.1539         4.77284 
        2.54479         59.6133         4.70075 
        2.56049         58.6929          4.6303 
        2.57618         58.1881         4.56135 
        2.59189         57.4815         4.49372 
        2.60758         56.7397         4.42756 
        2.62325         56.2663         4.36282 
        2.63898         55.7643         4.29915 
        2.65468         55.1363         4.23689 
        2.67044         54.6213          4.1756 
        2.68618         54.2305         4.11567 
        2.70184         53.4329         4.05716 
        2.71755         52.8495         3.99964 
        2.73329         52.0352         3.94315 
        2.74897         51.6397         3.88794 
        2.76462          51.144         3.83392 
        2.78034         50.6698          3.7807 
        2.79607         50.2534         3.72843 
        2.81179         49.6169         3.67722 
        2.82749         49.1027         3.62703 
        2.84321         48.5869         3.57772 
        2.85893         47.9829         3.52935 
        2.87462         47.6771         3.48195 
        2.89033         46.8682         3.43539 
        2.90605         46.4107         3.38964 
        2.92176         46.1726         3.34475 
        2.93747         45.6771         3.30069 
        2.95318         45.1147         3.25743 
        2.96891         44.6083         3.21492 
        2.98456         44.1826         3.17336 
        3.00023         43.6839         3.13247 
        3.01596         43.0299         3.09218 
        3.03164         42.6802         3.05272 
        3.04738         42.3063         3.01383 
         3.0631         41.9919         2.97564 
        3.07883         41.4941          2.9381 
        3.09456         41.0742         2.90122 
        3.11026          40.779         2.86504 
        3.12596         40.3255         2.82947 
        3.14163         39.8509          2.7946 
        3.15734         39.4789         2.76023 
        3.17308         39.1658         2.72635 
        3.18879         38.7884         2.69315 
        3.20447         38.2976         2.66054 
         3.2202         38.0278         2.62837 
         3.2359         37.6749          2.5968 
        3.25157         37.2882         2.56581 
        3.26729         36.8767         2.53525 
        3.28304          36.516         2.50512 
        3.29877         36.0741         2.47552 
        3.31446         35.7831         2.44647 
        3.33014         35.4179          2.4179 
        3.34585         35.0352         2.38976 
        3.36158         34.7799         2.36202 
        3.37727         34.3524          2.3348 
        3.39294         34.0728         2.30805 
        3.40867         33.7372         2.28161 
        3.42439         33.4314         2.25561 
        3.44008         33.1197         2.23006 
        3.45578         32.8095         2.20489 
        3.47153         32.4612         2.18006 
        3.48724         32.1756         2.15565 
        3.50292         31.9452         2.13167 
        3.51859         31.5807         2.10807 
        3.53431         31.3324         2.08476 
        3.55007         30.9955         2.06174 
        3.56577         30.7144         2.03916 
        3.58146         30.4234         2.01693 
        3.59719         30.1719         1.99498 
        3.61292         29.8784         1.97336 
        3.62859         29.5462         1.95215 
        3.64429         29.3035         1.93121 
        3.66003         29.1138         1.91051 
        3.67578          28.753         1.89013 
        3.69146         28.4971         1.87012 
        3.70712         28.1809         1.85044 
        3.72284         28.0059         1.83096 
        3.73853         27.8127         1.81181 
        3.75422         27.4788         1.79292 
        3.76993         27.2589         1.77428 
        3.78564         27.0575         1.75592 
        3.80137         26.8268         1.73778 
        3.81707         26.5208         1.71995 
        3.83279          26.314         1.70234 
        3.84853         25.9621         1.68496 
        3.86424         25.8541         1.66786 
        3.87992         25.6168         1.65101 
        3.89561         25.3135          1.6344 
        3.91134         25.0295         1.61799 
        3.92704         24.8507         1.60182 
        3.94273         24.6715         1.58589 
        3.95845          24.465         1.57014 
        3.97418         24.2112         1.55461 
        3.98988         23.9051         1.53931 
        4.00554         23.7584         1.52425 
        4.02125         23.5826         1.50936 
        4.03698         23.3243         1.49464 
        4.05268         23.1768         1.48015 
        4.06839         22.9272         1.46584 
         4.0841         22.7141         1.45173 
        4.09983         22.5009         1.43778 
        4.11555         22.3424         1.42403 
        4.13124         22.2239         1.41049 
        4.14693         21.9835         1.39711 
        4.16266         21.7495         1.38388 
        4.17839          21.662         1.37083 
        4.19408         21.4319         1.35798 
        4.20977         21.2458         1.34528 
        4.22551         21.0682         1.33272 
        4.24123         20.9154         1.32034 
        4.25691         20.6954         1.30814 
        4.27259         20.5462         1.29609 
        4.28831         20.4029         1.28418 
        4.30404         20.2245          1.2724 
        4.31974         20.0551         1.26079 
        4.33543         19.8433         1.24934 
        4.35116         19.7362           1.238 
        4.36688         19.5286         1.22681 
        4.38255         19.3344         1.21579 
        4.39825         19.2083         1.20489 
        4.41398          19.086          1.1941 
         4.4297         18.8481         1.18346 
        4.44541         18.7857         1.17295 
        4.46111          18.551         1.16257 
        4.47683         18.4476         1.15231 
        4.49251         18.3176          1.1422 
        4.50819         18.1306         1.13221 
         4.5239         17.9903         1.12232 
        4.53962         17.8374         1.11254 
        4.55535         17.7063         1.10288 
        4.57106         17.5722         1.09334 
        4.58678         17.3671         1.08391 
         4.6025         17.2587          1.0746 
        4.61821         17.1401         1.06539 
        4.63391         17.0026         1.05631 
         4.6496         16.8326         1.04733 
        4.66532         16.6955         1.03845 
        4.68103          16.611         1.02967 
        4.69673         16.4341           1.021 
        4.71241           16.32         1.01244 
        4.72811         16.1916         1.00396 
        4.74384         16.0445        0.995576 
        4.75955         15.9307        0.987297 
        4.77525         15.8258        0.979116 
        4.79096         15.6696        0.971018 
        4.80669         15.5541        0.963008 
         4.8224         15.4296        0.955097 
        4.83809         15.2988        0.947284 
        4.85379         15.1771        0.939554 
         4.8695         15.0567        0.931904 
        4.88521         14.9463        0.924343 
        4.90093         14.8881        0.916864 
        4.91663         14.7149        0.909475 
        4.93234         14.6125         0.90216 
        4.94807         14.5139        0.894921 
        4.96377         14.3882        0.887775 
        4.97943         14.2685        0.880722 
        4.99514         14.1573        0.873727 
        5.01086         14.0762        0.866804 
        5.02654         13.9593        0.859973 
        5.04227         13.8344        0.853196 
          5.058         13.7413        0.846489 
        5.07371         13.6439        0.839868 
        5.08942         13.5449        0.833316 
        5.10513         13.4423        0.826834 
        5.12084         13.3458        0.820418 
        5.13656         13.2236        0.814071 
        5.15225         13.1129        0.807802 
        5.16796         13.0424        0.801589 
        5.18369         12.9309        0.795436 
         5.1994         12.8304         0.78936 
        5.21509         12.7287        0.783352 
        5.23079         12.6488        0.777399 
        5.24649         12.5466        0.771514 
        5.26217         12.4423        0.765693 
        5.27788          12.372        0.759925 
        5.29359         12.2538        0.754215 
        5.30933         12.1971        0.748555 
        5.32504         12.1265        0.742963 
        5.34073         12.0114        0.737435 
        5.35646           11.92        0.731952 
        5.37218         11.8251        0.726523 
        5.38789         11.7685        0.721159 
        5.40357         11.6698        0.715855 
        5.41929         11.5713        0.710592 
        5.43502         11.5044        0.705383 
         5.4507         11.4193        0.700237 
        5.46639         11.3281        0.695143 
        5.48212         11.2372        0.690087 
        5.49786         11.1625        0.685076 
        5.51353         11.1015         0.68014 
        5.52921         11.0033        0.675247 
        5.54495         10.9273        0.670388 
        5.56066         10.8494        0.665583 
        5.57637         10.7619        0.660825 
        5.59207         10.7122        0.656118 
        5.60778         10.6265        0.651455 
        5.62346         10.5653        0.646844 
        5.63916         10.4733        0.642274 
        5.65487         10.4126        0.637745 
         5.6706         10.3238        0.633255 
        5.68633         10.2576        0.628806 
        5.70203         10.1823        0.624409 
        5.71773         10.1135        0.620056 
        5.73344         10.0501        0.615741 
        5.74916         9.96404        0.611464 
        5.76486         9.92714        0.607233 
        5.78054         9.82752        0.603049 
        5.79626         9.75652        0.598893 
          5.812         9.68715        0.594772 
         5.8277         9.61133        0.590701 
        5.84339         9.57103        0.586669 
        5.85911         9.48588        0.582667 
        5.87484         9.44825        0.578703 
        5.89053         9.38265        0.574784 
        5.90623          9.3058        0.570899 
        5.92195         9.21695        0.567044 
        5.93767         9.18673        0.563226 
        5.95336         9.11816         0.55945 
        5.96905         9.05745         0.55571 
        5.98476         9.00031        0.551999 
        6.00048         8.93723        0.548321 
        6.01617         8.88331        0.544681 
        6.03185         8.80939        0.541079 
        6.04756          8.7478          0.5375 
        6.06331         8.68379        0.533947 
        6.07903         8.64146        0.530433 
        6.09473         8.58627        0.526954 
        6.11044         8.52615        0.523504 
        6.12616          8.4669        0.520085 
        6.14186         8.41223        0.516699 
        6.15755         8.36564        0.513345 
        6.17326         8.29544        0.510017 
        6.18898         8.25754        0.506717 
        6.20467         8.18871        0.503453 
        6.22036         8.13796        0.500218 
         6.2361         8.07705        0.497002 
         6.2518         8.04647         0.49382 
        6.26748         7.97559        0.490673 
        6.28319          7.9376        0.487545 
        6.29893         7.87406        0.484441 
        6.31463         7.82282         0.48137 
        6.33033         7.78326        0.478326 
        6.34604         7.72298        0.475306 
        6.36177         7.67633         0.47231 
        6.37747         7.61984        0.469345 
