# k  (h/Mpc)    Pcb(k)  (Mpc/h)^3    Pcb_linear(k) (Mpc/h)^3   ShotnoiseSubtracted = true
      0.0200456         620.934         629.074 
      0.0350414         408.987         402.974 
      0.0492313         271.072         269.352 
      0.0637834         222.547         223.847 
      0.0800726         176.355         178.506 
       0.096163           123.8         121.881 
       0.111083         94.9046         92.9857 
       0.126058         83.8332         84.2291 
       0.142273         71.9934         72.7162 
       0.158546         55.6936         55.3597 
        0.17375         45.8051         45.0617 
       0.188953         41.5295         41.2879 
       0.204907         36.7062         37.3174 
       0.220756         31.2625          31.105 
        0.23588          26.566          26.346 
         0.2514         24.0744         23.9189 
       0.267535         22.1484          21.985 
       0.283568         19.4835          19.338 
       0.299022         17.1941         16.9514 
       0.314451         15.8464          15.406 
       0.330372         14.4552          14.239 
       0.346141         13.1544         12.9533 
       0.361624         11.8647         11.6823 
       0.377134         10.8185         10.6828 
       0.392932         10.2664         9.90269 
       0.408854          9.3047         9.15108 
       0.424564          8.7328         8.41126 
       0.440253         7.97001         7.76482 
       0.455999         7.32599         7.22885 
       0.471626         6.85173         6.74956 
        0.48727         6.51303         6.28757 
       0.502856         6.09472         5.86448 
       0.518488         5.60475         5.49257 
       0.534347           5.231         5.15427 
       0.550082         4.99477         4.84096 
       0.565732         4.75415         4.55019 
       0.581496         4.44342         4.28436 
       0.597222         4.18616         4.04338 
       0.612804         3.93939         3.82238 
       0.628434         3.75964         3.61551 
       0.644267         3.56906         3.42127 
       0.660051         3.37855         3.24314 
       0.675724         3.18456         3.07925 
       0.691403         3.04501          2.9265 
       0.707174         2.89136         2.78321 
       0.722871         2.81177         2.65004 
        0.73838          2.6224         2.52699 
       0.754018         2.50111          2.4108 
       0.769845         2.36803         2.30065 
        0.78569         2.29865         2.19728 
       0.801365         2.19894         2.10129 
       0.817031         2.11262         2.01114 
       0.832809         2.00342         1.92574 
       0.848511         1.93312         1.84572 
       0.864097          1.8625         1.77085 
       0.879701         1.80248         1.70009 
       0.895507         1.70982          1.6324 
       0.911279         1.65406         1.56856 
        0.92691         1.60511         1.50869 
       0.942635         1.52107         1.45164 
       0.958396         1.47359         1.39744 
       0.974128         1.42444         1.34613 
       0.989692         1.36741         1.29792 
        1.00528         1.31804         1.25202 
        1.02113         1.28296         1.20763 
        1.03692         1.24752         1.16556 
        1.05264         1.18915         1.12571 
        1.06832         1.15576         1.08779 
        1.08405         1.10951         1.05153 
        1.09979         1.08221         1.01691 
        1.11537         1.04222          0.9842 
        1.13105         1.00214        0.952742 
        1.14679        0.978963        0.922545 
        1.16256        0.948263        0.893606 
        1.17828        0.925307         0.86601 
        1.19395        0.893707         0.83968 
         1.2097         0.86416        0.814316 
        1.22537        0.835127        0.790129 
          1.241        0.814758        0.767002 
        1.25666        0.797809        0.744749 
        1.27241        0.771521         0.72328 
        1.28819        0.744003        0.702626 
        1.30392        0.726535        0.682843 
        1.31957        0.707951        0.663914 
        1.33529        0.683318        0.645638 
        1.35108        0.667137        0.627981 
        1.36674        0.648044        0.611114 
         1.3824        0.636874        0.594886 
        1.39811        0.616432        0.579196 
        1.41389        0.600549        0.564016 
        1.42964        0.584947        0.549407 
        1.44531         0.56995        0.535391 
        1.46101        0.552927        0.521836 
        1.47667        0.542089        0.508793 
        1.49229        0.525031        0.496233 
        1.50793        0.514261        0.484085 
        1.52367        0.499694        0.472267 
        1.53953        0.486684        0.460767 
        1.55526         0.47797        0.449743 
        1.57092        0.470165        0.439127 
        1.58662        0.459746         0.42883 
        1.60235         0.44626        0.418845 
        1.61809        0.434338        0.409174 
        1.63369        0.422041        0.399896 
        1.64941        0.415506        0.390841 
        1.66519        0.407692        0.382034 
        1.68085        0.395744        0.373563 
        1.69652        0.387582        0.365347 
        1.71228        0.378234        0.357333 
        1.72806        0.371096        0.349554 
        1.74368        0.362602        0.342086 
        1.75933         0.35577        0.334822 
        1.77505        0.349161        0.327735 
        1.79081        0.338096        0.320842 
         1.8065          0.3345        0.314178 
        1.82218        0.324873         0.30771 
        1.83797         0.31561         0.30138 
        1.85367        0.313213        0.295264 
        1.86928        0.305527        0.289355 
        1.88497        0.297709        0.283576 
        1.90073        0.293873        0.277934 
        1.91647        0.286927        0.272452 
        1.93218        0.282261         0.26713 
        1.94787          0.2759        0.261958 
        1.96363        0.270683        0.256903 
        1.97935        0.264902        0.251993 
        1.99499        0.259909        0.247239 
        2.01064        0.255366        0.242601 
         2.0264        0.249415        0.238054 
        2.04216        0.244141        0.233626 
        2.05781        0.240458        0.229339 
        2.07353        0.235772        0.225144 
        2.08928        0.232401        0.221046 
        2.10499        0.226962        0.217061 
        2.12065        0.223068        0.213187 
        2.13633        0.219114        0.209404 
        2.15211        0.215116         0.20569 
        2.16785        0.211477        0.202075 
        2.18349        0.207634        0.198571 
        2.19916        0.202979        0.195143 
        2.21489        0.199099        0.191784 
        2.23063        0.196041        0.188503 
         2.2463        0.192751        0.185313 
        2.26194        0.189657        0.182206 
        2.27765        0.185914        0.179154 
        2.29341        0.182846        0.176164 
        2.30914        0.178944        0.173249 
        2.32486        0.176365        0.170402 
        2.34061        0.173052        0.167614 
        2.35635        0.170584        0.164891 
        2.37203        0.168523        0.162238 
        2.38768        0.165377         0.15965 
        2.40339        0.162029        0.157108 
        2.41914        0.159942        0.154617 
        2.43483        0.156854        0.152188 
         2.4505        0.154257        0.149815 
        2.46622        0.151893        0.147486 
        2.48195        0.149064        0.145206 
        2.49759        0.147728        0.142986 
        2.51328        0.143994        0.140807 
        2.52906        0.142002         0.13866 
        2.54479        0.139925        0.136566 
        2.56049        0.137202        0.134519 
        2.57618        0.136037        0.132516 
        2.59189        0.133092        0.130551 
        2.60758        0.131858        0.128629 
        2.62325        0.129471        0.126748 
        2.63898        0.127939        0.124898 
        2.65468        0.125016         0.12309 
        2.67044        0.123516        0.121309 
        2.68618        0.121497        0.119568 
        2.70184        0.120112        0.117868 
        2.71755        0.117917        0.116197 
        2.73329         0.11668        0.114556 
        2.74897        0.114284        0.112952 
        2.76462        0.112981        0.111382 
        2.78034        0.111145        0.109836 
        2.79607         0.10989        0.108318 
        2.81179        0.107368         0.10683 
        2.82749        0.106456        0.105372 
        2.84321        0.105185         0.10394 
        2.85893        0.103272        0.102534 
        2.87462        0.102069        0.101157 
        2.89033        0.100345       0.0998045 
        2.90605       0.0992425       0.0984754 
        2.92176       0.0979969       0.0971712 
        2.93747       0.0963336       0.0958914 
        2.95318       0.0952581       0.0946344 
        2.96891        0.094048       0.0933994 
        2.98456       0.0930364        0.092192 
        3.00023       0.0913322       0.0910042 
        3.01596       0.0900635       0.0898338 
        3.03164       0.0887427       0.0886873 
        3.04738       0.0879042       0.0875575 
         3.0631       0.0865527       0.0864478 
        3.07883       0.0853415       0.0853574 
        3.09456       0.0844307        0.084286 
        3.11026       0.0830245       0.0832347 
        3.12596        0.082207       0.0822015 
        3.14163       0.0812268       0.0811882 
        3.15734        0.080393       0.0801898 
        3.17308       0.0792272       0.0792057 
        3.18879        0.078246       0.0782409 
        3.20447       0.0771363       0.0772936 
         3.2202       0.0764032       0.0763591 
         3.2359       0.0753379       0.0754418 
        3.25157       0.0743023       0.0745417 
        3.26729       0.0736088       0.0736537 
        3.28304       0.0728653       0.0727784 
        3.29877       0.0716289       0.0719185 
        3.31446       0.0710594       0.0710744 
        3.33014        0.070332       0.0702446 
        3.34585       0.0691371       0.0694269 
        3.36158       0.0684516        0.068621 
        3.37727       0.0677356       0.0678304 
        3.39294       0.0671202       0.0670531 
        3.40867       0.0662645       0.0662851 
        3.42439       0.0655956       0.0655296 
        3.44008       0.0650222       0.0647875 
        3.45578       0.0644169       0.0640562 
        3.47153       0.0636864       0.0633347 
        3.48724        0.062917       0.0626256 
        3.50292        0.062434        0.061929 
        3.51859       0.0616949       0.0612434 
        3.53431       0.0610196       0.0605661 
        3.55007       0.0604684       0.0598973 
        3.56577        0.060012       0.0592414 
        3.58146       0.0592417       0.0585955 
        3.59719       0.0585446       0.0579578 
        3.61292       0.0579499       0.0573299 
        3.62859       0.0575657       0.0567136 
        3.64429        0.056786       0.0561053 
        3.66003       0.0566135        0.055504 
        3.67578       0.0559495       0.0549118 
        3.69146       0.0554795       0.0543304 
        3.70712       0.0549056       0.0537586 
        3.72284        0.054308       0.0531929 
        3.73853       0.0540354       0.0526363 
        3.75422       0.0534132       0.0520875 
        3.76993       0.0529478       0.0515461 
        3.78564       0.0526237       0.0510126 
        3.80137       0.0522412       0.0504859 
        3.81707       0.0514478       0.0499676 
        3.83279       0.0511673       0.0494563 
        3.84853       0.0507537       0.0489513 
        3.86424        0.050329       0.0484543 
        3.87992       0.0498882        0.047965 
        3.89561       0.0493745       0.0474825 
        3.91134        0.048964       0.0470056 
        3.92704       0.0484735       0.0465358 
        3.94273       0.0480075       0.0460729 
        3.95845       0.0476063       0.0456155 
        3.97418       0.0473014       0.0451643 
        3.98988       0.0465107       0.0447197 
        4.00554       0.0462643       0.0442824 
        4.02125       0.0458692       0.0438496 
        4.03698       0.0451432        0.043422 
        4.05268       0.0447097       0.0430011 
        4.06839       0.0440506       0.0425855 
         4.0841       0.0433278       0.0421755 
        4.09983       0.0427973       0.0417703 
        4.11555       0.0422181       0.0413706 
        4.13124       0.0416393       0.0409773 
        4.14693       0.0410808       0.0405888 
        4.16266       0.0405412       0.0402044 
        4.17839        0.040064       0.0398252 
        4.19408       0.0395347       0.0394518 
        4.20977       0.0391671        0.039083 
        4.22551       0.0386385       0.0387181 
        4.24123       0.0381698       0.0383582 
        4.25691       0.0378331       0.0380039 
        4.27259       0.0374487       0.0376539 
        4.28831        0.037153       0.0373077 
        4.30404       0.0366303       0.0369655 
        4.31974       0.0363298       0.0366284 
        4.33543       0.0360396       0.0362956 
        4.35116       0.0357845       0.0359662 
        4.36688       0.0353957        0.035641 
        4.38255       0.0350836       0.0353211 
        4.39825        0.034945       0.0350044 
        4.41398       0.0345364       0.0346909 
         4.4297       0.0343791       0.0343817 
        4.44541       0.0341729       0.0340763 
        4.46111       0.0339696       0.0337748 
        4.47683       0.0338081       0.0334767 
        4.49251       0.0336219       0.0331829 
        4.50819        0.033465       0.0328927 
         4.5239       0.0332929       0.0326056 
        4.53962       0.0332479       0.0323215 
        4.55535       0.0331813       0.0320407 
        4.57106       0.0330029       0.0317636 
        4.58678       0.0329525       0.0314897 
         4.6025       0.0328029       0.0312191 
        4.61821       0.0329147       0.0309516 
        4.63391       0.0327767       0.0306877 
         4.6496       0.0326618       0.0304269 
        4.66532       0.0327502       0.0301688 
        4.68103       0.0327906       0.0299138 
        4.69673       0.0327386       0.0296619 
        4.71241       0.0327945       0.0294133 
        4.72811       0.0327276       0.0291671 
        4.74384        0.032838       0.0289234 
        4.75955       0.0329551       0.0286828 
        4.77525       0.0330207       0.0284451 
        4.79096       0.0331472       0.0282099 
        4.80669        0.033256       0.0279772 
         4.8224       0.0333784       0.0277474 
        4.83809       0.0334607       0.0275204 
        4.85379       0.0336747       0.0272958 
         4.8695        0.033939       0.0270736 
        4.88521       0.0340749       0.0268539 
        4.90093       0.0342903       0.0266366 
        4.91663       0.0345322        0.026422 
        4.93234       0.0346328       0.0262094 
        4.94807       0.0349156       0.0259991 
        4.96377       0.0351855       0.0257915 
        4.97943       0.0355431       0.0255866 
        4.99514       0.0357495       0.0253834 
        5.01086       0.0360969       0.0251823 
        5.02654       0.0364755       0.0249838 
        5.04227       0.0368254       0.0247869 
          5.058       0.0371499       0.0245921 
        5.07371       0.0375172       0.0243997 
        5.08942       0.0379741       0.0242094 
        5.10513       0.0382857       0.0240211 
        5.12084       0.0387645       0.0238347 
        5.13656       0.0392216       0.0236503 
        5.15225       0.0397564       0.0234682 
        5.16796       0.0401898       0.0232877 
        5.18369       0.0407642       0.0231089 
         5.1994       0.0411693       0.0229324 
        5.21509       0.0418214       0.0227578 
        5.23079       0.0423053       0.0225849 
        5.24649       0.0430005       0.0224139 
        5.26217       0.0435059       0.0222448 
        5.27788       0.0443648       0.0220772 
        5.29359       0.0450432       0.0219113 
        5.30933       0.0455156       0.0217469 
        5.32504        0.046348       0.0215845 
        5.34073       0.0467463       0.0214239 
        5.35646        0.047644       0.0212646 
        5.37218        0.048426       0.0211069 
        5.38789       0.0493195        0.020951 
        5.40357        0.050216       0.0207969 
        5.41929       0.0511123        0.020644 
        5.43502       0.0521648       0.0204927 
         5.4507       0.0526619       0.0203432 
        5.46639       0.0536101       0.0201952 
        5.48212       0.0545995       0.0200483 
        5.49786       0.0557406       0.0199027 
        5.51353       0.0569299       0.0197593 
        5.52921       0.0576817       0.0196172 
        5.54495       0.0588136        0.019476 
        5.56066       0.0600003       0.0193364 
        5.57637       0.0612769       0.0191982 
        5.59207       0.0620592       0.0190615 
        5.60778       0.0632015        0.018926 
        5.62346       0.0645894        0.018792 
        5.63916       0.0659464       0.0186592 
        5.65487       0.0677697       0.0185277 
         5.6706       0.0680222       0.0183972 
        5.68633       0.0699357        0.018268 
        5.70203       0.0713334       0.0181403 
        5.71773       0.0732819       0.0180138 
        5.73344       0.0748231       0.0178884 
        5.74916       0.0764528       0.0177642 
        5.76486       0.0779515       0.0176413 
        5.78054       0.0798689       0.0175197 
        5.79626        0.081161        0.017399 
          5.812        0.083129       0.0172792 
         5.8277       0.0848928        0.017161 
        5.84339       0.0866103       0.0170438 
        5.85911       0.0883723       0.0169276 
        5.87484       0.0901763       0.0168124 
        5.89053       0.0927271       0.0166985 
        5.90623       0.0950278       0.0165857 
        5.92195       0.0968528       0.0164737 
        5.93767        0.098841       0.0163628 
        5.95336        0.100952       0.0162531 
        5.96905        0.104129       0.0161444 
        5.98476        0.105409       0.0160366 
        6.00048        0.108001       0.0159297 
        6.01617        0.110756        0.015824 
        6.03185        0.112995       0.0157193 
        6.04756        0.114743       0.0156154 
        6.06331        0.118478       0.0155122 
        6.07903        0.120947       0.0154101 
        6.09473        0.123267        0.015309 
        6.11044        0.126997       0.0152088 
        6.12616        0.129389       0.0151094 
        6.14186        0.132696       0.0150111 
        6.15755        0.135253       0.0149136 
        6.17326        0.139022       0.0148169 
        6.18898        0.142194       0.0147211 
        6.20467        0.145329       0.0146263 
        6.22036        0.149156       0.0145323 
         6.2361        0.150999       0.0144388 
         6.2518        0.156497       0.0143464 
        6.26748        0.159296        0.014255 
        6.28319        0.162587       0.0141641 
        6.29893        0.167698       0.0140739 
        6.31463        0.171037       0.0139847 
        6.33033         0.17423       0.0138963 
        6.34604        0.179025       0.0138085 
        6.36177        0.182199       0.0137215 
        6.37747        0.186319       0.0136354 
