# k  (h/Mpc)    Pcb(k)  (Mpc/h)^3    Pcb_linear(k) (Mpc/h)^3   ShotnoiseSubtracted = true
      0.0200456         3298.06         3347.42 
      0.0350414         2126.93          2144.3 
      0.0492313         1440.21         1433.27 
      0.0637834         1210.28         1191.13 
      0.0800726         960.488         949.862 
       0.096163         645.695         648.549 
       0.111083         492.292         494.793 
       0.126058         453.261         448.198 
       0.142273         394.419         386.936 
       0.158546         306.364         294.579 
        0.17375          243.35         239.781 
       0.188953         228.497           219.7 
       0.204907          213.64         198.573 
       0.220756         175.974         165.515 
        0.23588         150.302         140.192 
         0.2514         133.649         127.277 
       0.267535         124.887         116.986 
       0.283568         111.498         102.901 
       0.299022         100.224         90.2014 
       0.314451         89.4056         81.9782 
       0.330372         83.4157         75.7686 
       0.346141         75.4032         68.9269 
       0.361624         69.8205         62.1636 
       0.377134          65.264         56.8451 
       0.392932         57.9738          52.694 
       0.408854         55.7884         48.6945 
       0.424564         52.4314         44.7578 
       0.440253         48.3115          41.318 
       0.455999         45.2659          38.466 
       0.471626         42.3536         35.9156 
        0.48727         40.2544         33.4573 
       0.502856         37.7802         31.2059 
       0.518488         35.9993          29.227 
       0.534347         34.5701         27.4268 
       0.550082         31.4968         25.7596 
       0.565732         29.3829         24.2124 
       0.581496         28.6748         22.7978 
       0.597222         27.6477         21.5155 
       0.612804         25.7868         20.3396 
       0.628434         24.8392         19.2388 
       0.644267          24.097         18.2052 
       0.660051         22.8317         17.2574 
       0.675724         21.6179         16.3852 
       0.691403         20.9212         15.5724 
       0.707174         20.1173           14.81 
       0.722871         19.3295         14.1014 
        0.73838         18.5385         13.4465 
       0.754018         17.8311         12.8283 
       0.769845         17.2153         12.2421 
        0.78569         16.6298         11.6921 
       0.801365         15.9716         11.1814 
       0.817031         15.5075         10.7016 
       0.832809         15.1628         10.2472 
       0.848511         14.2176         9.82144 
       0.864097         13.9396           9.423 
       0.879701         13.5328         9.04648 
       0.895507              13         8.68627 
       0.911279         12.6927         8.34659 
        0.92691         12.3322         8.02802 
       0.942635         11.7907         7.72445 
       0.958396         11.5154         7.43606 
       0.974128         11.1735         7.16302 
       0.989692         11.0229         6.90647 
        1.00528         10.7041          6.6622 
        1.02113         10.2428         6.42599 
        1.03692         9.99071         6.20218 
        1.05264         9.80754         5.99011 
        1.06832         9.52398         5.78834 
        1.08405         9.21157         5.59539 
        1.09979         9.00299         5.41116 
        1.11537         8.85143         5.23711 
        1.13105         8.61672         5.06971 
        1.14679         8.46142         4.90903 
        1.16256         8.14475         4.75504 
        1.17828          8.0914          4.6082 
        1.19395         7.76559         4.46809 
         1.2097         7.65419         4.33312 
        1.22537         7.44017         4.20442 
          1.241         7.31579         4.08136 
        1.25666         7.17402         3.96295 
        1.27241         6.97088          3.8487 
        1.28819         6.81929          3.7388 
        1.30392         6.74029         3.63353 
        1.31957         6.59136         3.53281 
        1.33529         6.45471         3.43556 
        1.35108          6.2935          3.3416 
        1.36674         6.24866         3.25185 
         1.3824         6.03224          3.1655 
        1.39811          5.9424         3.08201 
        1.41389         5.84076         3.00123 
        1.42964         5.74609          2.9235 
        1.44531         5.64192         2.84891 
        1.46101          5.5082         2.77678 
        1.47667         5.42694         2.70738 
        1.49229         5.35737         2.64054 
        1.50793         5.22396          2.5759 
        1.52367         5.14906         2.51302 
        1.53953         5.04497         2.45182 
        1.55526         4.97488         2.39316 
        1.57092         4.89317         2.33667 
        1.58662          4.8036         2.28188 
        1.60235         4.73039         2.22875 
        1.61809         4.64755         2.17729 
        1.63369         4.56905         2.12792 
        1.64941         4.49348         2.07974 
        1.66519         4.44622         2.03287 
        1.68085         4.35653          1.9878 
        1.69652         4.27671         1.94408 
        1.71228         4.22135         1.90144 
        1.72806         4.15742         1.86004 
        1.74368         4.08115          1.8203 
        1.75933         4.03957         1.78165 
        1.77505         3.97797         1.74394 
        1.79081         3.89984         1.70726 
         1.8065         3.86713          1.6718 
        1.82218         3.81229         1.63738 
        1.83797         3.77365          1.6037 
        1.85367         3.68929         1.57115 
        1.86928         3.66501         1.53971 
        1.88497         3.59694         1.50896 
        1.90073         3.53497         1.47894 
        1.91647         3.49722         1.44977 
        1.93218         3.46046         1.42145 
        1.94787         3.42117         1.39393 
        1.96363         3.36526         1.36703 
        1.97935         3.31547          1.3409 
        1.99499         3.27006          1.3156 
        2.01064         3.23497         1.29093 
         2.0264         3.18532         1.26673 
        2.04216         3.15839         1.24317 
        2.05781         3.10701         1.22035 
        2.07353         3.08559         1.19803 
        2.08928         3.04809         1.17623 
        2.10499         3.00236         1.15502 
        2.12065         2.97569         1.13441 
        2.13633         2.93087         1.11428 
        2.15211         2.89896         1.09451 
        2.16785         2.86821         1.07528 
        2.18349         2.82714         1.05663 
        2.19916         2.78505         1.03839 
        2.21489         2.77327         1.02052 
        2.23063           2.723         1.00306 
         2.2463         2.70183        0.986086 
        2.26194         2.66494         0.96955 
        2.27765         2.65192         0.95331 
        2.29341         2.61426        0.937401 
        2.30914         2.57843        0.921889 
        2.32486         2.56091        0.906738 
        2.34061         2.53084        0.891903 
        2.35635         2.50219        0.877415 
        2.37203         2.48664        0.863299 
        2.38768         2.45232        0.849525 
        2.40339         2.42047        0.836002 
        2.41914         2.39401        0.822743 
        2.43483         2.38251        0.809819 
         2.4505         2.34897        0.797195 
        2.46622         2.33258        0.784798 
        2.48195         2.29891        0.772665 
        2.49759         2.28038        0.760854 
        2.51328          2.2566        0.749259 
        2.52906          2.2473        0.737834 
        2.54479         2.21082         0.72669 
        2.56049         2.19391        0.715799 
        2.57618         2.17205        0.705141 
        2.59189         2.16184        0.694685 
        2.60758         2.13664        0.684458 
        2.62325         2.11033        0.674449 
        2.63898         2.08744        0.664607 
        2.65468         2.07286        0.654982 
        2.67044         2.05495        0.645508 
        2.68618         2.03371        0.636243 
        2.70184          2.0163        0.627197 
        2.71755         1.99884        0.618305 
        2.73329         1.97741        0.609573 
        2.74897         1.96755        0.601038 
        2.76462         1.94824        0.592686 
        2.78034         1.92409        0.584459 
        2.79607         1.91025        0.576379 
        2.81179         1.90168        0.568462 
        2.82749         1.86922        0.560703 
        2.84321         1.86847        0.553081 
        2.85893         1.84945        0.545603 
        2.87462         1.82951        0.538276 
        2.89033         1.81706        0.531078 
        2.90605         1.80013        0.524005 
        2.92176         1.78257        0.517066 
        2.93747         1.76396        0.510255 
        2.95318          1.7524        0.503567 
        2.96891         1.74664        0.496995 
        2.98456         1.72881         0.49057 
        3.00023         1.71347         0.48425 
        3.01596         1.70119        0.478022 
        3.03164         1.69191        0.471921 
        3.04738         1.66968        0.465909 
         3.0631         1.66108        0.460005 
        3.07883         1.64786        0.454202 
        3.09456         1.63352        0.448501 
        3.11026         1.62611        0.442907 
        3.12596         1.60719        0.437409 
        3.14163         1.59941        0.432017 
        3.15734         1.58652        0.426704 
        3.17308         1.57259        0.421468 
        3.18879         1.56667        0.416334 
        3.20447         1.55696        0.411293 
         3.2202         1.53529        0.406321 
         3.2359         1.52897        0.401439 
        3.25157         1.52054         0.39665 
        3.26729         1.50272        0.391924 
        3.28304         1.50157        0.387267 
        3.29877         1.48167        0.382691 
        3.31446         1.47334          0.3782 
        3.33014         1.46835        0.373784 
        3.34585         1.45739        0.369433 
        3.36158         1.44626        0.365145 
        3.37727         1.43164        0.360938 
        3.39294         1.42469        0.356801 
        3.40867         1.40904        0.352715 
        3.42439         1.40569        0.348695 
        3.44008         1.39676        0.344746 
        3.45578         1.38616        0.340855 
        3.47153         1.37712        0.337016 
        3.48724         1.36712        0.333242 
        3.50292         1.36018        0.329536 
        3.51859          1.3509        0.325887 
        3.53431         1.33991        0.322283 
        3.55007         1.33202        0.318725 
        3.56577         1.32321        0.315234 
        3.58146          1.3166        0.311797 
        3.59719         1.30887        0.308404 
        3.61292         1.30021        0.305063 
        3.62859         1.29199        0.301783 
        3.64429         1.27778        0.298546 
        3.66003         1.27353        0.295347 
        3.67578         1.26803        0.292195 
        3.69146         1.25892        0.289102 
        3.70712         1.24867        0.286059 
        3.72284         1.24072        0.283049 
        3.73853         1.23434        0.280087 
        3.75422         1.22947        0.277167 
        3.76993         1.21754        0.274286 
        3.78564         1.21434        0.271447 
        3.80137          1.2085        0.268644 
        3.81707         1.19646        0.265887 
        3.83279         1.18823        0.263166 
        3.84853         1.18334        0.260479 
        3.86424         1.17406        0.257834 
        3.87992         1.17081        0.255231 
        3.89561         1.16135        0.252663 
        3.91134         1.15778        0.250125 
        3.92704         1.14998        0.247625 
        3.94273          1.1425        0.245162 
        3.95845         1.13467        0.242729 
        3.97418         1.12827        0.240327 
        3.98988         1.12008        0.237962 
        4.00554         1.11241        0.235635 
        4.02125         1.10578        0.233332 
        4.03698         1.09993        0.231057 
        4.05268         1.09168        0.228817 
        4.06839         1.08455        0.226605 
         4.0841         1.07538        0.224423 
        4.09983         1.06826        0.222267 
        4.11555         1.06249        0.220141 
        4.13124         1.05345        0.218048 
        4.14693         1.04621         0.21598 
        4.16266         1.03845        0.213935 
        4.17839         1.03208        0.211917 
        4.19408          1.0289         0.20993 
        4.20977         1.01711        0.207968 
        4.22551         1.01352        0.206026 
        4.24123          1.0074        0.204111 
        4.25691        0.997154        0.202226 
        4.27259        0.996221        0.200363 
        4.28831        0.987949        0.198521 
        4.30404        0.981478          0.1967 
        4.31974        0.978362        0.194906 
        4.33543        0.969974        0.193135 
        4.35116        0.965743        0.191383 
        4.36688        0.958701        0.189652 
        4.38255        0.952748         0.18795 
        4.39825        0.947671        0.186265 
        4.41398        0.944494        0.184597 
         4.4297        0.938422        0.182951 
        4.44541        0.935251        0.181326 
        4.46111        0.931111        0.179722 
        4.47683         0.92651        0.178136 
        4.49251        0.921186        0.176572 
        4.50819         0.91676        0.175028 
         4.5239        0.912258          0.1735 
        4.53962         0.90808        0.171988 
        4.55535        0.902356        0.170494 
        4.57106        0.897041         0.16902 
        4.58678        0.894415        0.167563 
         4.6025        0.892431        0.166122 
        4.61821        0.886826        0.164699 
        4.63391        0.881633        0.163295 
         4.6496        0.876867        0.161907 
        4.66532        0.877583        0.160534 
        4.68103        0.871387        0.159177 
        4.69673        0.868939        0.157837 
        4.71241        0.865012        0.156513 
        4.72811        0.859947        0.155203 
        4.74384        0.857357        0.153906 
        4.75955        0.853604        0.152626 
        4.77525         0.85045        0.151362 
        4.79096        0.846609         0.15011 
        4.80669        0.843814        0.148872 
         4.8224        0.841455        0.147649 
        4.83809        0.837705        0.146441 
        4.85379        0.833837        0.145246 
         4.8695        0.831568        0.144063 
        4.88521         0.82691        0.142894 
        4.90093        0.827136        0.141738 
        4.91663        0.824281        0.140596 
        4.93234        0.818571        0.139465 
        4.94807         0.81779        0.138346 
        4.96377        0.813825        0.137241 
        4.97943        0.813573        0.136151 
        4.99514        0.809022         0.13507 
        5.01086        0.807499        0.133999 
        5.02654        0.806238        0.132944 
        5.04227        0.801484        0.131896 
          5.058        0.800685        0.130859 
        5.07371        0.798849        0.129835 
        5.08942        0.794889        0.128823 
        5.10513        0.793789         0.12782 
        5.12084        0.791068        0.126829 
        5.13656        0.791014        0.125847 
        5.15225         0.78672        0.124878 
        5.16796        0.786718        0.123918 
        5.18369        0.782853        0.122967 
         5.1994        0.782088        0.122027 
        5.21509        0.781102        0.121099 
        5.23079        0.779039        0.120178 
        5.24649         0.77682        0.119269 
        5.26217        0.774395        0.118369 
        5.27788        0.774042        0.117477 
        5.29359        0.769778        0.116594 
        5.30933         0.77028        0.115719 
        5.32504        0.768532        0.114855 
        5.34073        0.767665           0.114 
        5.35646        0.765416        0.113153 
        5.37218        0.763907        0.112313 
        5.38789        0.764441        0.111484 
        5.40357        0.761866        0.110664 
        5.41929        0.759079        0.109851 
        5.43502        0.757899        0.109045 
         5.4507        0.757827         0.10825 
        5.46639        0.754723        0.107462 
        5.48212        0.754975        0.106681 
        5.49786        0.753169        0.105906 
        5.51353        0.752952        0.105143 
        5.52921         0.74803        0.104387 
        5.54495        0.749743        0.103635 
        5.56066        0.751907        0.102893 
        5.57637        0.748615        0.102157 
        5.59207        0.745326        0.101429 
        5.60778        0.746092        0.100709 
        5.62346        0.744416       0.0999958 
        5.63916        0.744518       0.0992892 
        5.65487        0.743936       0.0985891 
         5.6706        0.743326        0.097895 
        5.68633        0.742907       0.0972073 
        5.70203        0.740639       0.0965276 
        5.71773        0.740847       0.0958546 
        5.73344        0.740456       0.0951876 
        5.74916        0.739306       0.0945264 
        5.76486        0.736988       0.0938724 
        5.78054        0.735991       0.0932256 
        5.79626         0.73589        0.092583 
          5.812        0.733621       0.0919459 
         5.8277        0.733833       0.0913167 
        5.84339         0.73344       0.0906934 
        5.85911        0.731606       0.0900747 
        5.87484         0.73254       0.0894619 
        5.89053        0.731377        0.088856 
        5.90623        0.731141       0.0882555 
        5.92195        0.730191       0.0876594 
        5.93767        0.729917       0.0870693 
        5.95336        0.728075       0.0864855 
        5.96905        0.727426       0.0859074 
        5.98476        0.725826       0.0853337 
        6.00048         0.72511        0.084765 
        6.01617        0.726046       0.0842024 
        6.03185        0.723858       0.0836455 
        6.04756        0.725613       0.0830923 
        6.06331        0.722973        0.082543 
        6.07903        0.723408       0.0819998 
        6.09473        0.721261        0.081462 
        6.11044        0.723398       0.0809286 
        6.12616        0.721143          0.0804 
        6.14186        0.721122       0.0798767 
        6.15755        0.719724       0.0793581 
        6.17326         0.71899       0.0788437 
        6.18898        0.719214       0.0783336 
        6.20467        0.717764       0.0778289 
        6.22036        0.717427       0.0773288 
         6.2361        0.717672       0.0768317 
         6.2518        0.715853       0.0763398 
        6.26748        0.713971       0.0758533 
        6.28319        0.715386       0.0753697 
        6.29893        0.714435       0.0748899 
        6.31463        0.715127       0.0744151 
        6.33033        0.713691       0.0739445 
        6.34604        0.712411       0.0734778 
        6.36177        0.713007       0.0730146 
        6.37747        0.711781       0.0725562 
