# k  (h/Mpc)    Pcb(k)  (Mpc/h)^3    Pcb_linear(k) (Mpc/h)^3   ShotnoiseSubtracted = true
      0.0200456         24838.5         25283.7 
      0.0350414         16880.9         16196.3 
      0.0492313           10683         10825.8 
      0.0637834         8619.32         8996.83 
      0.0800726         6765.89         7174.49 
       0.096163         5225.91         4898.62 
       0.111083         4097.05         3737.27 
       0.126058         3422.25         3385.33 
       0.142273         3025.98          2922.6 
       0.158546         2426.84         2225.01 
        0.17375         2131.39         1811.12 
       0.188953         2027.31         1659.44 
       0.204907         1740.57         1499.86 
       0.220756         1570.65         1250.17 
        0.23588          1388.4          1058.9 
         0.2514         1250.99         961.345 
       0.267535         1208.15         883.618 
       0.283568          1071.9         777.232 
       0.299022         1015.24         681.308 
       0.314451         1058.95         619.197 
       0.330372         925.887         572.295 
       0.346141         848.916         520.618 
       0.361624         812.934         469.534 
       0.377134         779.826         429.362 
       0.392932         738.085         398.008 
       0.408854         709.836         367.799 
       0.424564         691.732         338.064 
       0.440253         637.841         312.083 
       0.455999         607.929         290.541 
       0.471626         621.207         271.278 
        0.48727         582.466          252.71 
       0.502856         559.756         235.705 
       0.518488         540.678         220.757 
       0.534347         520.388          207.16 
       0.550082         494.622         194.567 
       0.565732         487.453         182.881 
       0.581496         476.353         172.196 
       0.597222         465.297         162.511 
       0.612804         452.396         153.629 
       0.628434         434.586         145.314 
       0.644267         421.161         137.507 
       0.660051         416.874         130.348 
       0.675724         406.348         123.761 
       0.691403         397.147         117.622 
       0.707174         383.968         111.862 
       0.722871         381.352          106.51 
        0.73838         370.436         101.564 
       0.754018         360.415         96.8946 
       0.769845          358.19         92.4673 
        0.78569         349.253         88.3128 
       0.801365         337.367          84.455 
       0.817031         335.738         80.8315 
       0.832809         329.284         77.3991 
       0.848511         324.675         74.1832 
       0.864097         314.032         71.1738 
       0.879701         314.587         68.3298 
       0.895507         303.265         65.6091 
       0.911279         297.698         63.0434 
        0.92691         295.485         60.6372 
       0.942635         290.753         58.3443 
       0.958396         282.453          56.166 
       0.974128         279.354         54.1036 
       0.989692           271.3         52.1659 
        1.00528         268.596         50.3209 
        1.02113         265.957         48.5368 
        1.03692         261.334         46.8462 
        1.05264         257.195         45.2444 
        1.06832         252.386         43.7205 
        1.08405         250.068          42.263 
        1.09979         244.787         40.8716 
        1.11537         240.967         39.5569 
        1.13105         236.785         38.2925 
        1.14679         234.194         37.0788 
        1.16256         232.188         35.9157 
        1.17828         228.495         34.8066 
        1.19395         223.166         33.7483 
         1.2097          222.79         32.7289 
        1.22537         219.386         31.7568 
          1.241         212.691         30.8273 
        1.25666          212.23         29.9329 
        1.27241         209.274           29.07 
        1.28819         205.368         28.2399 
        1.30392         204.906         27.4448 
        1.31957         199.199          26.684 
        1.33529          195.55         25.9494 
        1.35108         195.706         25.2398 
        1.36674         189.768         24.5619 
         1.3824         188.611         23.9096 
        1.39811         187.365          23.279 
        1.41389         183.347         22.6689 
        1.42964         179.898         22.0817 
        1.44531          179.48         21.5184 
        1.46101         175.843         20.9736 
        1.47667         174.304         20.4493 
        1.49229         172.405         19.9445 
        1.50793         169.472         19.4563 
        1.52367         166.632         18.9813 
        1.53953         164.513         18.5191 
        1.55526         162.599          18.076 
        1.57092         161.524         17.6494 
        1.58662         158.431         17.2355 
        1.60235         156.737         16.8342 
        1.61809         154.205         16.4455 
        1.63369         151.615         16.0726 
        1.64941         150.582         15.7086 
        1.66519         147.925         15.3547 
        1.68085         146.063         15.0142 
        1.69652         145.011          14.684 
        1.71228         142.399         14.3619 
        1.72806         141.393         14.0493 
        1.74368         139.485         13.7491 
        1.75933         138.177         13.4571 
        1.77505         136.543         13.1723 
        1.79081         134.198         12.8953 
         1.8065         132.596         12.6274 
        1.82218         129.948         12.3674 
        1.83797         129.214          12.113 
        1.85367         127.498         11.8672 
        1.86928         126.415         11.6297 
        1.88497          125.22         11.3975 
        1.90073         124.048         11.1707 
        1.91647         121.861         10.9504 
        1.93218         120.139         10.7365 
        1.94787         118.387         10.5286 
        1.96363         117.847         10.3254 
        1.97935         116.628         10.1281 
        1.99499         114.851           9.937 
        2.01064         113.109         9.75061 
         2.0264         111.959         9.56784 
        2.04216         110.345         9.38987 
        2.05781         109.028         9.21756 
        2.07353         108.336         9.04899 
        2.08928         106.568         8.88427 
        2.10499         106.052         8.72411 
        2.12065         104.387          8.5684 
        2.13633         103.601         8.41637 
        2.15211         101.877         8.26705 
        2.16785         100.866         8.12179 
        2.18349         99.2973         7.98095 
        2.19916         99.1848         7.84316 
        2.21489         97.4776         7.70818 
        2.23063         96.0376         7.57629 
         2.2463         95.3381          7.4481 
        2.26194         94.2026          7.3232 
        2.27765         93.1507         7.20053 
        2.29341         91.9738         7.08037 
        2.30914         90.6863          6.9632 
        2.32486         89.7467         6.84877 
        2.34061         88.4788         6.73672 
        2.35635         87.8929         6.62728 
        2.37203         86.5098         6.52067 
        2.38768         85.6074         6.41662 
        2.40339          84.554         6.31448 
        2.41914         83.7536         6.21433 
        2.43483         82.9022         6.11672 
         2.4505         81.7731         6.02137 
        2.46622         80.9398         5.92773 
        2.48195         80.3743         5.83609 
        2.49759         79.0319         5.74687 
        2.51328         78.2793          5.6593 
        2.52906         77.2618           5.573 
        2.54479         76.3579         5.48883 
        2.56049         75.2789         5.40657 
        2.57618         74.7392         5.32607 
        2.59189         73.5481         5.24709 
        2.60758         72.7487         5.16984 
        2.62325         71.9685         5.09425 
        2.63898         71.6686         5.01991 
        2.65468         70.7687         4.94721 
        2.67044         69.8753         4.87564 
        2.68618          69.167         4.80566 
        2.70184         68.5281         4.73734 
        2.71755         67.6201         4.67018 
        2.73329          66.767         4.60422 
        2.74897         66.3432         4.53976 
        2.76462         65.5243         4.47667 
        2.78034         64.5655         4.41453 
        2.79607         64.0256          4.3535 
        2.81179         63.4497         4.29371 
        2.82749         63.0804          4.2351 
        2.84321         62.0589         4.17753 
        2.85893         61.4274         4.12104 
        2.87462         61.0021         4.06571 
        2.89033         60.1277         4.01133 
        2.90605         59.6115         3.95791 
        2.92176         59.0284          3.9055 
        2.93747         58.6774         3.85406 
        2.95318         57.8346         3.80354 
        2.96891         57.1477          3.7539 
        2.98456          56.511         3.70537 
        3.00023         56.1443         3.65763 
        3.01596         55.4399         3.61059 
        3.03164         54.7486         3.56451 
        3.04738         54.4325          3.5191 
         3.0631         53.7281          3.4745 
        3.07883         53.0791         3.43068 
        3.09456         52.4924         3.38762 
        3.11026         52.0595         3.34536 
        3.12596         51.4733         3.30383 
        3.14163         50.9203         3.26311 
        3.15734         50.3022         3.22298 
        3.17308         49.8086         3.18343 
        3.18879         49.5042         3.14465 
        3.20447          49.091         3.10658 
         3.2202         48.4693         3.06902 
         3.2359         47.9473         3.03215 
        3.25157         47.5466         2.99597 
        3.26729         47.1041         2.96028 
        3.28304         46.5947          2.9251 
        3.29877         46.1852         2.89054 
        3.31446         45.6335         2.85662 
        3.33014         45.2644         2.82327 
        3.34585         44.7245          2.7904 
        3.36158         44.3883         2.75801 
        3.37727         43.8093         2.72623 
        3.39294         43.4943         2.69499 
        3.40867         43.0819         2.66413 
        3.42439         42.7565         2.63376 
        3.44008         42.2901         2.60393 
        3.45578         41.8242         2.57454 
        3.47153         41.3293         2.54554 
        3.48724         41.0899         2.51704 
        3.50292         40.6217         2.48905 
        3.51859         40.2534         2.46149 
        3.53431         39.7788         2.43427 
        3.55007         39.5431         2.40739 
        3.56577         39.2428         2.38102 
        3.58146         38.7831         2.35507 
        3.59719         38.4959         2.32944 
        3.61292         38.0104          2.3042 
        3.62859         37.6861         2.27943 
        3.64429         37.3184         2.25498 
        3.66003         37.0668         2.23081 
        3.67578         36.7442         2.20701 
        3.69146         36.3209         2.18364 
        3.70712         36.0812         2.16066 
        3.72284         35.7343         2.13792 
        3.73853         35.4024         2.11555 
        3.75422         34.9864          2.0935 
        3.76993         34.8154         2.07174 
        3.78564         34.4382          2.0503 
        3.80137         34.2369         2.02912 
        3.81707         33.7013         2.00829 
        3.83279         33.6138         1.98774 
        3.84853         33.2699         1.96744 
        3.86424         32.9079         1.94747 
        3.87992         32.6864         1.92781 
        3.89561          32.307         1.90841 
        3.91134         32.0938         1.88924 
        3.92704         31.7711         1.87036 
        3.94273         31.5381         1.85176 
        3.95845         31.1932         1.83338 
        3.97418         30.9375         1.81524 
        3.98988         30.6319         1.79737 
        4.00554          30.369         1.77979 
        4.02125         30.1325          1.7624 
        4.03698         29.8127         1.74521 
        4.05268         29.6148          1.7283 
        4.06839         29.3454         1.71159 
         4.0841         29.0271         1.69511 
        4.09983         28.7684         1.67883 
        4.11555          28.427         1.66277 
        4.13124         28.3308         1.64696 
        4.14693         28.0361         1.63134 
        4.16266         27.8077         1.61589 
        4.17839         27.5474         1.60065 
        4.19408          27.369         1.58564 
        4.20977         27.1279         1.57082 
        4.22551         26.8535         1.55615 
        4.24123         26.6681         1.54169 
        4.25691         26.4242         1.52745 
        4.27259         26.2599         1.51338 
        4.28831         26.0076         1.49947 
        4.30404         25.7339         1.48571 
        4.31974         25.6398         1.47216 
        4.33543         25.3291         1.45879 
        4.35116         25.1603         1.44555 
        4.36688         24.9398         1.43248 
        4.38255         24.7093         1.41962 
        4.39825         24.5051         1.40689 
        4.41398           24.34          1.3943 
         4.4297         24.1671         1.38187 
        4.44541         23.9114         1.36959 
        4.46111         23.7382         1.35747 
        4.47683         23.5582         1.34549 
        4.49251         23.3083         1.33369 
        4.50819         23.1501         1.32202 
         4.5239         22.9054         1.31048 
        4.53962         22.7736         1.29906 
        4.55535         22.5978         1.28778 
        4.57106         22.4006         1.27664 
        4.58678         22.1755         1.26563 
         4.6025         22.0566         1.25475 
        4.61821         21.7945         1.24401 
        4.63391         21.6634          1.2334 
         4.6496         21.5419         1.22292 
        4.66532          21.338         1.21254 
        4.68103         21.2054         1.20229 
        4.69673         20.9672         1.19217 
        4.71241         20.8374         1.18218 
        4.72811         20.6222         1.17228 
        4.74384          20.492         1.16248 
        4.75955         20.2852         1.15282 
        4.77525         20.1404         1.14326 
        4.79096         20.0127         1.13381 
        4.80669         19.8787         1.12446 
         4.8224         19.7159         1.11522 
        4.83809         19.5284          1.1061 
        4.85379         19.3887         1.09707 
         4.8695         19.2986         1.08814 
        4.88521         19.0531         1.07931 
        4.90093         18.9183         1.07058 
        4.91663         18.7937         1.06195 
        4.93234         18.6316         1.05341 
        4.94807          18.519         1.04495 
        4.96377         18.3068         1.03661 
        4.97943         18.2149         1.02837 
        4.99514          18.105         1.02021 
        5.01086         17.9061         1.01212 
        5.02654         17.8293         1.00415 
        5.04227         17.6917        0.996235 
          5.058         17.5173        0.988403 
        5.07371         17.3814        0.980672 
        5.08942         17.3035        0.973022 
        5.10513          17.156        0.965453 
        5.12084         17.0227        0.957961 
        5.13656         16.8918         0.95055 
        5.15225         16.8004         0.94323 
        5.16796         16.6375        0.935976 
        5.18369         16.5177        0.928792 
         5.1994         16.3817        0.921696 
        5.21509         16.2768        0.914681 
        5.23079         16.1625        0.907731 
        5.24649         16.0038        0.900858 
        5.26217         15.8934        0.894062 
        5.27788         15.7395        0.887326 
        5.29359         15.6673        0.880659 
        5.30933         15.5798         0.87405 
        5.32504         15.4819        0.867521 
        5.34073           15.33        0.861066 
        5.35646         15.2133        0.854663 
        5.37218          15.102        0.848325 
        5.38789         15.0313        0.842061 
        5.40357         14.9244        0.835868 
        5.41929          14.801        0.829723 
        5.43502         14.6884         0.82364 
         5.4507         14.5514        0.817632 
        5.46639         14.4931        0.811684 
        5.48212         14.3824        0.805781 
        5.49786         14.2256        0.799929 
        5.51353         14.1967        0.794165 
        5.52921         14.0841        0.788452 
        5.54495         13.9687        0.782779 
        5.56066         13.8376        0.777168 
        5.57637         13.7635        0.771612 
        5.59207         13.6722        0.766116 
        5.60778         13.5476        0.760672 
        5.62346         13.4747        0.755288 
        5.63916         13.3795        0.749951 
        5.65487         13.2732        0.744663 
         5.6706         13.1596         0.73942 
        5.68633          13.115        0.734226 
        5.70203         13.0213        0.729092 
        5.71773          12.924        0.724008 
        5.73344         12.8102        0.718971 
        5.74916         12.7417        0.713976 
        5.76486         12.6614        0.709036 
        5.78054         12.5448        0.704151 
        5.79626         12.4836        0.699298 
          5.812         12.3903        0.694485 
         5.8277          12.331        0.689733 
        5.84339         12.2339        0.685025 
        5.85911         12.1306        0.680352 
        5.87484         12.0358        0.675723 
        5.89053         11.9608        0.671147 
        5.90623         11.8964        0.666611 
        5.92195         11.7935        0.662109 
        5.93767         11.7084        0.657651 
        5.95336          11.643        0.653242 
        5.96905         11.5504        0.648875 
        5.98476         11.4897        0.644542 
        6.00048         11.3883        0.640247 
        6.01617         11.3413        0.635997 
        6.03185         11.2478        0.631791 
        6.04756         11.2011        0.627613 
        6.06331         11.1091        0.623463 
        6.07903         11.0314        0.619361 
        6.09473         10.9674        0.615298 
        6.11044         10.8841        0.611269 
        6.12616          10.812        0.607277 
        6.14186         10.7333        0.603324 
        6.15755         10.6563        0.599407 
        6.17326         10.6047        0.595521 
        6.18898         10.5391        0.591669 
        6.20467         10.4487        0.587857 
        6.22036         10.3726        0.584079 
         6.2361          10.308        0.580325 
         6.2518         10.2601        0.576609 
        6.26748         10.1726        0.572934 
        6.28319         10.1155        0.569282 
        6.29893         10.0363        0.565658 
        6.31463         9.98324        0.562071 
        6.33033          9.9274        0.558517 
        6.34604         9.85741        0.554992 
        6.36177          9.7863        0.551493 
        6.37747         9.72167        0.548031 
