# k  (h/Mpc)    Pcb(k)  (Mpc/h)^3    Pcb_linear(k) (Mpc/h)^3   ShotnoiseSubtracted = true
      0.0200456          843.12         854.174 
      0.0350414         555.907         547.168 
      0.0492313         368.004         365.734 
      0.0637834         301.843         303.945 
      0.0800726         239.156          242.38 
       0.096163         168.348         165.493 
       0.111083         129.144         126.258 
       0.126058         113.813         114.369 
       0.142273         97.7363          98.736 
       0.158546         75.7257         75.1688 
        0.17375         62.3722          61.186 
       0.188953         56.5479         56.0618 
       0.204907         49.8355         50.6706 
       0.220756         42.5687         42.2351 
        0.23588         36.1986         35.7733 
         0.2514         32.7913         32.4777 
       0.267535         30.2181         29.8518 
       0.283568         26.5674         26.2577 
       0.299022         23.5027          23.017 
       0.314451         21.7109         20.9187 
       0.330372          19.762         19.3342 
       0.346141         17.9897         17.5884 
       0.361624         16.2402         15.8625 
       0.377134         14.8051         14.5054 
       0.392932          14.094         13.4461 
       0.408854         12.7641         12.4256 
       0.424564         12.0171          11.421 
       0.440253         10.9519         10.5433 
       0.455999         10.0457         9.81552 
       0.471626         9.40839         9.16474 
        0.48727         8.97435         8.53744 
       0.502856         8.39992         7.96295 
       0.518488         7.71942         7.45796 
       0.534347         7.20689         6.99861 
       0.550082         6.88977         6.57319 
       0.565732         6.56557         6.17838 
       0.581496         6.14351         5.81741 
       0.597222         5.78579         5.49021 
       0.612804          5.4419         5.19013 
       0.628434         5.21697         4.90923 
       0.644267         4.94867         4.64549 
       0.660051         4.68128         4.40363 
       0.675724         4.41448         4.18109 
       0.691403         4.23345         3.97368 
       0.707174         4.01864         3.77912 
       0.722871         3.91255          3.5983 
        0.73838         3.64833         3.43121 
       0.754018         3.47792         3.27345 
       0.769845         3.29762         3.12388 
        0.78569         3.20683         2.98352 
       0.801365         3.06457         2.85319 
       0.817031         2.94774         2.73078 
       0.832809         2.79488         2.61482 
       0.848511         2.70244         2.50617 
       0.864097         2.60295          2.4045 
       0.879701         2.52285         2.30843 
       0.895507         2.39855         2.21651 
       0.911279         2.31689         2.12983 
        0.92691         2.24885         2.04854 
       0.942635         2.13472         1.97108 
       0.958396         2.06906         1.89749 
       0.974128         2.00357         1.82782 
       0.989692         1.91862         1.76235 
        1.00528         1.85774         1.70002 
        1.02113         1.80533         1.63975 
        1.03692         1.75794         1.58263 
        1.05264         1.67576         1.52852 
        1.06832         1.63044         1.47703 
        1.08405         1.56818          1.4278 
        1.09979         1.53042         1.38079 
        1.11537         1.47613         1.33637 
        1.13105         1.42034         1.29366 
        1.14679          1.3861         1.25266 
        1.16256         1.34153         1.21336 
        1.17828         1.31436         1.17589 
        1.19395         1.26661         1.14014 
         1.2097         1.22659          1.1057 
        1.22537         1.18548         1.07286 
          1.241         1.15856         1.04146 
        1.25666         1.13579         1.01124 
        1.27241         1.10088        0.982089 
        1.28819         1.05891        0.954044 
        1.30392          1.0339        0.927183 
        1.31957         1.01174        0.901481 
        1.33529        0.971881        0.876665 
        1.35108        0.952172         0.85269 
        1.36674        0.924932        0.829788 
         1.3824        0.910931        0.807752 
        1.39811        0.883246        0.786448 
        1.41389        0.858942        0.765835 
        1.42964        0.836826           0.746 
        1.44531        0.818229        0.726968 
        1.46101        0.793957        0.708562 
        1.47667         0.77899        0.690852 
        1.49229        0.753434        0.673798 
        1.50793        0.736427        0.657303 
        1.52367        0.718264        0.641257 
        1.53953        0.699091        0.625641 
        1.55526        0.689502        0.610673 
        1.57092        0.677193        0.596259 
        1.58662        0.664883        0.582277 
        1.60235        0.642611        0.568719 
        1.61809        0.627858        0.555588 
        1.63369        0.609169         0.54299 
        1.64941        0.600623        0.530694 
        1.66519        0.589824        0.518737 
        1.68085        0.573118        0.507234 
        1.69652        0.561274        0.496079 
        1.71228        0.548154        0.485197 
        1.72806        0.537665        0.474634 
        1.74368        0.525929        0.464493 
        1.75933        0.516709         0.45463 
        1.77505        0.507436        0.445008 
        1.79081        0.490789        0.435648 
         1.8065        0.486454        0.426599 
        1.82218        0.472598        0.417816 
        1.83797        0.459945        0.409222 
        1.85367        0.456396        0.400917 
        1.86928        0.445968        0.392894 
        1.88497        0.434362        0.385047 
        1.90073        0.430072        0.377387 
        1.91647         0.41824        0.369943 
        1.93218        0.411732        0.362716 
        1.94787         0.40383        0.355693 
        1.96363        0.396568         0.34883 
        1.97935        0.388027        0.342162 
        1.99499        0.381277        0.335708 
        2.01064        0.374588         0.32941 
         2.0264        0.364886        0.323236 
        2.04216        0.359018        0.317223 
        2.05781        0.353451        0.311402 
        2.07353        0.346148        0.305707 
        2.08928        0.341524        0.300143 
        2.10499        0.334302        0.294732 
        2.12065        0.328239        0.289471 
        2.13633        0.322998        0.284335 
        2.15211         0.31613        0.279291 
        2.16785         0.31211        0.274383 
        2.18349        0.306411        0.269625 
        2.19916        0.300254         0.26497 
        2.21489        0.294561         0.26041 
        2.23063        0.289622        0.255954 
         2.2463        0.285044        0.251623 
        2.26194        0.280895        0.247404 
        2.27765         0.27575         0.24326 
        2.29341         0.27104          0.2392 
        2.30914        0.265221        0.235242 
        2.32486        0.261844        0.231376 
        2.34061        0.256376         0.22759 
        2.35635        0.253142        0.223893 
        2.37203        0.250215        0.220292 
        2.38768        0.245835        0.216777 
        2.40339        0.241144        0.213326 
        2.41914        0.237967        0.209942 
        2.43483        0.233554        0.206645 
         2.4505         0.22999        0.203423 
        2.46622         0.22664         0.20026 
        2.48195        0.222111        0.197164 
        2.49759         0.22076         0.19415 
        2.51328        0.215477        0.191191 
        2.52906        0.212156        0.188276 
        2.54479        0.209018        0.185432 
        2.56049        0.205349        0.182653 
        2.57618        0.203724        0.179934 
        2.59189        0.199322        0.177265 
        2.60758        0.197691        0.174656 
        2.62325        0.194447        0.172102 
        2.63898         0.19212         0.16959 
        2.65468        0.187565        0.167134 
        2.67044        0.185545        0.164717 
        2.68618        0.182881        0.162353 
        2.70184        0.180405        0.160044 
        2.71755        0.177393        0.157775 
        2.73329         0.17589        0.155547 
        2.74897        0.171991        0.153369 
        2.76462        0.170632        0.151238 
        2.78034         0.16741        0.149139 
        2.79607        0.165778        0.147077 
        2.81179        0.162162        0.145057 
        2.82749        0.160841        0.143077 
        2.84321        0.158764        0.141132 
        2.85893        0.156505        0.139224 
        2.87462        0.154016        0.137354 
        2.89033        0.152216        0.135517 
        2.90605        0.150163        0.133713 
        2.92176        0.148769        0.131942 
        2.93747        0.146145        0.130204 
        2.95318         0.14441        0.128497 
        2.96891        0.142811         0.12682 
        2.98456        0.141282        0.125181 
        3.00023        0.138762        0.123568 
        3.01596        0.136959        0.121979 
        3.03164        0.135122        0.120422 
        3.04738        0.133979        0.118888 
         3.0631        0.132027        0.117381 
        3.07883        0.130165        0.115901 
        3.09456        0.128872        0.114446 
        3.11026        0.126903        0.113018 
        3.12596        0.125167        0.111615 
        3.14163        0.123951         0.11024 
        3.15734        0.122865        0.108884 
        3.17308        0.121179        0.107548 
        3.18879        0.119567        0.106238 
        3.20447        0.118004        0.104951 
         3.2202        0.117077        0.103682 
         3.2359        0.115371        0.102437 
        3.25157        0.113586        0.101215 
        3.26729        0.112906        0.100009 
        3.28304        0.111713       0.0988204 
        3.29877        0.109844       0.0976529 
        3.31446        0.109337       0.0965067 
        3.33014        0.107852       0.0953801 
        3.34585        0.106192       0.0942697 
        3.36158        0.105273       0.0931754 
        3.37727        0.104391       0.0921019 
        3.39294        0.103342       0.0910464 
        3.40867        0.101905       0.0900037 
        3.42439         0.10109       0.0889779 
        3.44008          0.1001       0.0879701 
        3.45578       0.0990447       0.0869773 
        3.47153       0.0981655       0.0859976 
        3.48724       0.0970794       0.0850347 
        3.50292       0.0964062       0.0840889 
        3.51859       0.0951705       0.0831579 
        3.53431       0.0941137       0.0822382 
        3.55007       0.0932575       0.0813302 
        3.56577       0.0927442       0.0804395 
        3.58146       0.0915501       0.0795626 
        3.59719       0.0906179       0.0786967 
        3.61292       0.0897384       0.0778441 
        3.62859        0.089263       0.0770073 
        3.64429        0.087804       0.0761812 
        3.66003       0.0874747       0.0753648 
        3.67578       0.0865196       0.0745607 
        3.69146       0.0858712       0.0737713 
        3.70712        0.085022       0.0729949 
        3.72284       0.0842835       0.0722267 
        3.73853       0.0836826        0.071471 
        3.75422       0.0828447       0.0707259 
        3.76993       0.0821163       0.0699907 
        3.78564       0.0814923       0.0692663 
        3.80137       0.0810141       0.0685511 
        3.81707       0.0799198       0.0678474 
        3.83279       0.0794397       0.0671531 
        3.84853       0.0787951       0.0664673 
        3.86424       0.0779426       0.0657926 
        3.87992       0.0774379       0.0651282 
        3.89561       0.0768034        0.064473 
        3.91134       0.0759818       0.0638254 
        3.92704       0.0753404       0.0631876 
        3.94273       0.0746808       0.0625591 
        3.95845        0.073999        0.061938 
        3.97418       0.0735132       0.0613252 
        3.98988       0.0725105       0.0607216 
        4.00554       0.0719264       0.0601278 
        4.02125       0.0712409       0.0595402 
        4.03698       0.0702771       0.0589596 
        4.05268       0.0695723       0.0583881 
        4.06839       0.0685513       0.0578237 
         4.0841       0.0676521        0.057267 
        4.09983       0.0668438       0.0567168 
        4.11555       0.0659377       0.0561742 
        4.13124       0.0650325       0.0556401 
        4.14693       0.0643189       0.0551125 
        4.16266       0.0635377       0.0545906 
        4.17839       0.0627986       0.0540757 
        4.19408       0.0619558       0.0535687 
        4.20977        0.061376        0.053068 
        4.22551       0.0607218       0.0525725 
        4.24123       0.0599414       0.0520838 
        4.25691       0.0594713       0.0516027 
        4.27259       0.0587928       0.0511275 
        4.28831       0.0584004       0.0506574 
        4.30404       0.0575873       0.0501928 
        4.31974       0.0571242        0.049735 
        4.33543       0.0567853       0.0492831 
        4.35116       0.0563133       0.0488359 
        4.36688         0.05574       0.0483943 
        4.38255       0.0553128       0.0479599 
        4.39825       0.0550608       0.0475299 
        4.41398       0.0545158       0.0471043 
         4.4297       0.0542713       0.0466844 
        4.44541       0.0538833       0.0462697 
        4.46111       0.0534429       0.0458603 
        4.47683       0.0532128       0.0454556 
        4.49251       0.0529538       0.0450567 
        4.50819       0.0528176       0.0446626 
         4.5239       0.0524496       0.0442727 
        4.53962       0.0522422        0.043887 
        4.55535       0.0521455       0.0435057 
        4.57106       0.0519257       0.0431295 
        4.58678       0.0517612       0.0427576 
         4.6025       0.0517551       0.0423901 
        4.61821        0.051686        0.042027 
        4.63391       0.0516051       0.0416685 
         4.6496       0.0514419       0.0413145 
        4.66532       0.0514107        0.040964 
        4.68103       0.0513305       0.0406177 
        4.69673       0.0513588       0.0402758 
        4.71241       0.0514783       0.0399381 
        4.72811       0.0514335       0.0396038 
        4.74384       0.0513546       0.0392729 
        4.75955       0.0514454       0.0389463 
        4.77525       0.0515932       0.0386236 
        4.79096       0.0517666       0.0383041 
        4.80669       0.0517148       0.0379882 
         4.8224       0.0519693       0.0376761 
        4.83809       0.0521093       0.0373679 
        4.85379       0.0523272        0.037063 
         4.8695       0.0525715       0.0367612 
        4.88521        0.052727       0.0364629 
        4.90093        0.053192       0.0361679 
        4.91663       0.0533258       0.0358764 
        4.93234       0.0535043       0.0355879 
        4.94807       0.0538747       0.0353023 
        4.96377       0.0541324       0.0350204 
        4.97943       0.0548629       0.0347422 
        4.99514       0.0549125       0.0344663 
        5.01086       0.0552623       0.0341932 
        5.02654       0.0559765       0.0339237 
        5.04227       0.0562562       0.0336564 
          5.058       0.0565491       0.0333918 
        5.07371       0.0572489       0.0331306 
        5.08942        0.057894       0.0328722 
        5.10513       0.0583153       0.0326165 
        5.12084        0.058791       0.0323634 
        5.13656        0.059271        0.032113 
        5.15225       0.0601447       0.0318657 
        5.16796       0.0606906       0.0316206 
        5.18369       0.0613629       0.0313779 
         5.1994       0.0620462       0.0311382 
        5.21509       0.0628652       0.0309012 
        5.23079       0.0636092       0.0306664 
        5.24649       0.0644067       0.0304342 
        5.26217       0.0652611       0.0302046 
        5.27788       0.0660672       0.0299771 
        5.29359       0.0669863       0.0297518 
        5.30933       0.0678209       0.0295286 
        5.32504       0.0687204        0.029308 
        5.34073       0.0694549       0.0290899 
        5.35646       0.0706341       0.0288736 
        5.37218        0.071655       0.0286595 
        5.38789       0.0727135       0.0284478 
        5.40357       0.0736561       0.0282386 
        5.41929       0.0747457        0.028031 
        5.43502       0.0763553       0.0278255 
         5.4507       0.0772718       0.0276226 
        5.46639       0.0784901       0.0274216 
        5.48212       0.0795925       0.0272222 
        5.49786       0.0810031       0.0270245 
        5.51353       0.0829456       0.0268298 
        5.52921       0.0835225       0.0266367 
        5.54495       0.0854776       0.0264451 
        5.56066       0.0867905       0.0262555 
        5.57637       0.0881932       0.0260678 
        5.59207       0.0892368       0.0258822 
        5.60778       0.0911501       0.0256982 
        5.62346       0.0928097       0.0255163 
        5.63916       0.0942712        0.025336 
        5.65487       0.0967975       0.0251574 
         5.6706       0.0974241       0.0249803 
        5.68633       0.0996543       0.0248048 
        5.70203        0.101666       0.0246313 
        5.71773        0.103562       0.0244596 
        5.73344        0.105816       0.0242894 
        5.74916        0.107764       0.0241207 
        5.76486        0.109721       0.0239538 
        5.78054        0.111639       0.0237887 
        5.79626        0.113918       0.0236248 
          5.812        0.116205       0.0234622 
         5.8277        0.118112       0.0233016 
        5.84339        0.120575       0.0231426 
        5.85911        0.122478       0.0229847 
        5.87484         0.12511       0.0228283 
        5.89053        0.127978       0.0226737 
        5.90623        0.131042       0.0225205 
        5.92195        0.132637       0.0223684 
        5.93767        0.135558       0.0222178 
        5.95336         0.13869       0.0220689 
        5.96905        0.141162       0.0219213 
        5.98476        0.143233       0.0217749 
        6.00048        0.146535       0.0216298 
        6.01617        0.149506       0.0214863 
        6.03185        0.152499       0.0213442 
        6.04756        0.155183        0.021203 
        6.06331        0.159131       0.0210628 
        6.07903        0.162491       0.0209242 
        6.09473        0.164655        0.020787 
        6.11044        0.170209       0.0206509 
        6.12616        0.170571        0.020516 
        6.14186        0.175355       0.0203825 
        6.15755        0.179103       0.0202501 
        6.17326        0.182681       0.0201189 
        6.18898        0.185654       0.0199887 
        6.20467        0.189641       0.0198599 
        6.22036        0.193044       0.0197323 
         6.2361        0.195287       0.0196054 
         6.2518        0.200719       0.0194799 
        6.26748        0.205625       0.0193558 
        6.28319        0.210279       0.0192324 
        6.29893         0.21349       0.0191099 
        6.31463          0.2182       0.0189888 
        6.33033        0.220601       0.0188687 
        6.34604        0.225911       0.0187496 
        6.36177        0.230367       0.0186314 
        6.37747         0.23376       0.0185145 
