# k  (h/Mpc)    Pcb(k)  (Mpc/h)^3    Pcb_linear(k) (Mpc/h)^3   ShotnoiseSubtracted = true
      0.0200456         7105.83         7222.23 
      0.0350414         4550.05         4626.43 
      0.0492313         3098.48         3092.36 
      0.0637834         2626.64         2569.92 
      0.0800726         2083.84         2049.38 
       0.096163         1388.92         1399.28 
       0.111083         1061.68         1067.54 
       0.126058         985.616         967.011 
       0.142273         861.983         834.835 
       0.158546         682.649         635.569 
        0.17375         536.893         517.341 
       0.188953         513.156         474.015 
       0.204907         483.477         428.431 
       0.220756          401.14         357.107 
        0.23588         345.444         302.471 
         0.2514         303.619         274.606 
       0.267535         289.102         252.403 
       0.283568         260.423         222.014 
       0.299022         237.619         194.614 
       0.314451         216.015         176.872 
       0.330372         200.452         163.475 
       0.346141         179.561         148.713 
       0.361624         170.416         134.121 
       0.377134         158.944         122.646 
       0.392932         144.354          113.69 
       0.408854         138.339         105.061 
       0.424564         132.021         96.5673 
       0.440253         123.895         89.1458 
       0.455999         115.838         82.9924 
       0.471626         107.421         77.4899 
        0.48727         103.364         72.1859 
       0.502856         98.6994         67.3285 
       0.518488         95.3226         63.0587 
       0.534347         91.2658         59.1748 
       0.550082         83.9241         55.5777 
       0.565732         80.1331         52.2395 
       0.581496         77.2247         49.1875 
       0.597222         74.4454         46.4209 
       0.612804         70.6073         43.8837 
       0.628434         68.7848         41.5086 
       0.644267         66.3894         39.2787 
       0.660051         64.3956         37.2337 
       0.675724         61.6282          35.352 
       0.691403         59.7073         33.5984 
       0.707174         57.5666         31.9533 
       0.722871         56.0212         30.4244 
        0.73838         54.6185         29.0116 
       0.754018         51.7869         27.6777 
       0.769845          50.654         26.4131 
        0.78569         49.3124         25.2264 
       0.801365         47.4972         24.1244 
       0.817031         46.1663         23.0893 
       0.832809         45.4723         22.1089 
       0.848511          43.146         21.1903 
       0.864097         42.2966         20.3306 
       0.879701         41.4332         19.5183 
       0.895507         40.7953         18.7411 
       0.911279         39.5725         18.0082 
        0.92691         38.7171         17.3209 
       0.942635          37.155         16.6659 
       0.958396         36.9729         16.0437 
       0.974128         35.8898         15.4546 
       0.989692         35.2964         14.9011 
        1.00528         34.4502         14.3741 
        1.02113         33.4444         13.8644 
        1.03692         32.5843         13.3815 
        1.05264         32.4027          12.924 
        1.06832         31.2643         12.4886 
        1.08405         30.8542         12.0723 
        1.09979         30.3533         11.6749 
        1.11537         29.3165         11.2993 
        1.13105         29.3665         10.9382 
        1.14679         28.7742         10.5915 
        1.16256         27.9654         10.2592 
        1.17828         27.4265         9.94243 
        1.19395         26.9641         9.64013 
         1.2097         26.6313         9.34894 
        1.22537         26.3415         9.07125 
          1.241         25.6159         8.80574 
        1.25666          25.043         8.55026 
        1.27241         24.7057         8.30378 
        1.28819         24.0663         8.06666 
        1.30392          23.834         7.83954 
        1.31957          23.632         7.62222 
        1.33529         23.3666         7.41239 
        1.35108         22.8642         7.20968 
        1.36674         22.4655         7.01604 
         1.3824         21.9397         6.82972 
        1.39811         21.8446         6.64959 
        1.41389         21.5546         6.47531 
        1.42964         21.0722          6.3076 
        1.44531         20.9779         6.14667 
        1.46101         20.4442         5.99105 
        1.47667         20.2494         5.84131 
        1.49229         20.0336         5.69711 
        1.50793         19.7584         5.55764 
        1.52367         19.5065         5.42197 
        1.53953         19.3309         5.28994 
        1.55526         18.9364         5.16338 
        1.57092          18.647          5.0415 
        1.58662         18.4655         4.92328 
        1.60235         18.2218         4.80865 
        1.61809          17.991         4.69762 
        1.63369         17.7853          4.5911 
        1.64941         17.4702         4.48714 
        1.66519         17.3405         4.38603 
        1.68085         17.0772         4.28878 
        1.69652         16.8566         4.19445 
        1.71228         16.7431         4.10245 
        1.72806         16.4663         4.01314 
        1.74368         16.2385         3.92739 
        1.75933         16.0853         3.84399 
        1.77505         15.9545         3.76264 
        1.79081         15.6997          3.6835 
         1.8065         15.5973         3.60699 
        1.82218         15.3665         3.53273 
        1.83797         15.0973         3.46006 
        1.85367         14.9778         3.38984 
        1.86928         14.8364           3.322 
        1.88497         14.6141         3.25566 
        1.90073         14.6145         3.19089 
        1.91647         14.3421         3.12795 
        1.93218         14.2085         3.06684 
        1.94787         14.0726         3.00747 
        1.96363         13.9851         2.94943 
        1.97935         13.8154         2.89306 
        1.99499         13.5966         2.83848 
        2.01064         13.5275         2.78524 
         2.0264         13.3152         2.73303 
        2.04216         13.1981         2.68219 
        2.05781         12.9923         2.63298 
        2.07353          12.913         2.58482 
        2.08928         12.8027         2.53777 
        2.10499          12.655         2.49202 
        2.12065         12.4596         2.44754 
        2.13633         12.4345         2.40412 
        2.15211         12.2403         2.36146 
        2.16785         12.1672         2.31997 
        2.18349         12.0694         2.27974 
        2.19916         11.9535         2.24038 
        2.21489         11.8129         2.20182 
        2.23063         11.6983         2.16415 
         2.2463         11.5727         2.12753 
        2.26194         11.4828         2.09186 
        2.27765         11.3933         2.05682 
        2.29341          11.262         2.02249 
        2.30914         11.1342         1.98902 
        2.32486         11.0861         1.95633 
        2.34061         10.9683         1.92433 
        2.35635          10.826         1.89307 
        2.37203         10.7683         1.86261 
        2.38768         10.6297         1.83289 
        2.40339         10.5062         1.80372 
        2.41914         10.4276         1.77511 
        2.43483           10.39         1.74723 
         2.4505         10.2367         1.71999 
        2.46622         10.1582         1.69324 
        2.48195         10.1053         1.66706 
        2.49759         9.99265         1.64158 
        2.51328         9.87609         1.61657 
        2.52906         9.82043         1.59192 
        2.54479           9.707         1.56787 
        2.56049         9.68791         1.54437 
        2.57618         9.59529         1.52138 
        2.59189         9.45549         1.49882 
        2.60758         9.41967         1.47675 
        2.62325         9.36913         1.45516 
        2.63898         9.23253         1.43392 
        2.65468         9.15407         1.41316 
        2.67044         9.06028         1.39272 
        2.68618         8.98594         1.37273 
        2.70184         8.92706         1.35321 
        2.71755         8.83659         1.33403 
        2.73329         8.74907         1.31519 
        2.74897         8.69836         1.29677 
        2.76462         8.65729         1.27875 
        2.78034         8.50876           1.261 
        2.79607         8.48037         1.24357 
        2.81179         8.39253         1.22649 
        2.82749         8.35868         1.20975 
        2.84321         8.26873          1.1933 
        2.85893         8.20878         1.17717 
        2.87462         8.15589         1.16136 
        2.89033         8.06939         1.14583 
        2.90605         7.96708         1.13057 
        2.92176         7.95565          1.1156 
        2.93747         7.90343          1.1009 
        2.95318         7.80349         1.08647 
        2.96891         7.75604         1.07229 
        2.98456         7.67986         1.05843 
        3.00023         7.64171         1.04479 
        3.01596         7.56932         1.03136 
        3.03164         7.53749         1.01819 
        3.04738         7.47018         1.00522 
         3.0631         7.40178        0.992484 
        3.07883         7.33553        0.979965 
        3.09456         7.29645        0.967665 
        3.11026         7.22506        0.955595 
        3.12596         7.18131        0.943733 
        3.14163         7.10938          0.9321 
        3.15734         7.06264        0.920637 
        3.17308         7.00241        0.909339 
        3.18879         6.96976        0.898262 
        3.20447         6.89339        0.887387 
         3.2202         6.85762        0.876658 
         3.2359         6.80462        0.866126 
        3.25157         6.75293        0.855793 
        3.26729         6.72066        0.845597 
        3.28304         6.63281        0.835549 
        3.29877         6.58924        0.825676 
        3.31446         6.53775        0.815986 
        3.33014         6.49747         0.80646 
        3.34585         6.47007        0.797071 
        3.36158         6.42698        0.787819 
        3.37727         6.35945        0.778742 
        3.39294           6.331        0.769818 
        3.40867         6.25786        0.761001 
        3.42439          6.2158        0.752328 
        3.44008          6.1843        0.743807 
        3.45578         6.13224        0.735412 
        3.47153         6.09389        0.727129 
        3.48724         6.04677        0.718987 
        3.50292         6.00669         0.71099 
        3.51859         5.96635        0.703119 
        3.53431         5.92305        0.695342 
        3.55007          5.8698        0.687665 
        3.56577          5.8365        0.680134 
        3.58146          5.7944        0.672719 
        3.59719         5.75509        0.665398 
        3.61292         5.72493        0.658189 
        3.62859         5.67943        0.651114 
        3.64429         5.63351        0.644129 
        3.66003         5.57968        0.637226 
        3.67578         5.55072        0.630427 
        3.69146         5.50944        0.623753 
        3.70712         5.48914        0.617188 
        3.72284         5.43332        0.610693 
        3.73853         5.39684        0.604303 
        3.75422         5.36217        0.598003 
        3.76993         5.33568        0.591787 
        3.78564         5.27929        0.585662 
        3.80137         5.25808        0.579614 
        3.81707         5.22226        0.573665 
        3.83279         5.18794        0.567794 
        3.84853         5.14869        0.561996 
        3.86424         5.10887        0.556291 
        3.87992         5.06847        0.550673 
        3.89561         5.03052        0.545133 
        3.91134         4.99025        0.539658 
        3.92704         4.96994        0.534265 
        3.94273         4.93123        0.528951 
        3.95845         4.89706        0.523699 
        3.97418         4.86658        0.518518 
        3.98988          4.8405        0.513415 
        4.00554         4.80643        0.508394 
        4.02125         4.76325        0.503426 
        4.03698         4.72411        0.498517 
        4.05268         4.71102        0.493684 
        4.06839         4.68124        0.488912 
         4.0841         4.63972        0.484205 
        4.09983         4.60463        0.479553 
        4.11555          4.5729        0.474965 
        4.13124         4.56214        0.470449 
        4.14693         4.49864        0.465988 
        4.16266         4.47029        0.461575 
        4.17839         4.43753        0.457222 
        4.19408         4.40321        0.452935 
        4.20977         4.37704        0.448702 
        4.22551         4.35481        0.444512 
        4.24123         4.31852         0.44038 
        4.25691         4.28427        0.436312 
        4.27259         4.27079        0.432295 
        4.28831         4.24022         0.42832 
        4.30404          4.1974        0.424391 
        4.31974         4.17849         0.42052 
        4.33543         4.15271          0.4167 
        4.35116          4.1123        0.412918 
        4.36688         4.08862        0.409185 
        4.38255         4.05991        0.405512 
        4.39825         4.03721        0.401876 
        4.41398         4.01434        0.398277 
         4.4297         3.97746        0.394727 
        4.44541         3.96535         0.39122 
        4.46111         3.94167        0.387759 
        4.47683         3.90385        0.384337 
        4.49251         3.87407        0.380964 
        4.50819         3.84985        0.377632 
         4.5239         3.83198        0.374336 
        4.53962         3.81183        0.371074 
        4.55535         3.77986         0.36785 
        4.57106         3.75838        0.364669 
        4.58678         3.74711        0.361525 
         4.6025          3.7102        0.358418 
        4.61821         3.69151        0.355347 
        4.63391         3.66718        0.352317 
         4.6496         3.64184        0.349323 
        4.66532         3.61961        0.346359 
        4.68103         3.59772        0.343432 
        4.69673         3.57037        0.340541 
        4.71241         3.54698        0.337686 
        4.72811         3.53172        0.334859 
        4.74384         3.50911        0.332061 
        4.75955         3.48566          0.3293 
        4.77525         3.45766        0.326571 
        4.79096          3.4313         0.32387 
        4.80669         3.42018        0.321198 
         4.8224         3.39809         0.31856 
        4.83809         3.37481        0.315954 
        4.85379         3.35975        0.313376 
         4.8695         3.33297        0.310824 
        4.88521         3.32076        0.308302 
        4.90093         3.29619        0.305808 
        4.91663         3.27744        0.303343 
        4.93234         3.25704        0.300903 
        4.94807         3.23913        0.298489 
        4.96377         3.21496        0.296105 
        4.97943          3.1931        0.293753 
        4.99514          3.1784         0.29142 
        5.01086         3.15452        0.289111 
        5.02654         3.13975        0.286833 
        5.04227         3.11917        0.284572 
          5.058         3.10086        0.282335 
        5.07371         3.08075        0.280127 
        5.08942         3.06606        0.277941 
        5.10513         3.04727        0.275779 
        5.12084         3.02823        0.273639 
        5.13656         3.01096        0.271522 
        5.15225         2.99373        0.269432 
        5.16796         2.97751        0.267359 
        5.18369         2.96179        0.265307 
         5.1994         2.94111         0.26328 
        5.21509         2.92756        0.261276 
        5.23079         2.90778        0.259291 
        5.24649         2.89296        0.257328 
        5.26217         2.87056        0.255387 
        5.27788         2.85428        0.253463 
        5.29359         2.84043        0.251558 
        5.30933         2.82312         0.24967 
        5.32504         2.80983        0.247805 
        5.34073         2.79106        0.245961 
        5.35646         2.77395        0.244133 
        5.37218         2.75793        0.242322 
        5.38789         2.74118        0.240533 
        5.40357         2.72729        0.238764 
        5.41929         2.71152        0.237009 
        5.43502         2.69995        0.235271 
         5.4507         2.68569        0.233555 
        5.46639         2.66548        0.231856 
        5.48212         2.64896        0.230169 
        5.49786          2.6349        0.228498 
        5.51353         2.62514        0.226851 
        5.52921          2.6053         0.22522 
        5.54495         2.59153        0.223599 
        5.56066          2.5821        0.221996 
        5.57637         2.56675        0.220409 
        5.59207          2.5553        0.218839 
        5.60778         2.53909        0.217284 
        5.62346         2.52377        0.215746 
        5.63916         2.51072        0.214222 
        5.65487         2.49422        0.212711 
         5.6706         2.48293        0.211214 
        5.68633         2.46488         0.20973 
        5.70203         2.45037        0.208263 
        5.71773         2.44132        0.206811 
        5.73344         2.43095        0.205372 
        5.74916         2.41264        0.203946 
        5.76486         2.39852        0.202535 
        5.78054         2.38861        0.201139 
        5.79626         2.37367        0.199753 
          5.812         2.36692        0.198378 
         5.8277         2.35196        0.197021 
        5.84339         2.33918        0.195676 
        5.85911          2.3286        0.194341 
        5.87484         2.31708        0.193019 
        5.89053          2.3013        0.191711 
        5.90623         2.29447        0.190416 
        5.92195          2.2766         0.18913 
        5.93767         2.26793        0.187857 
        5.95336         2.25569        0.186597 
        5.96905         2.24297         0.18535 
        5.98476           2.231        0.184112 
        6.00048         2.22385        0.182885 
        6.01617         2.20458        0.181671 
        6.03185         2.19287         0.18047 
        6.04756         2.18832        0.179276 
        6.06331         2.17031        0.178091 
        6.07903         2.16181        0.176919 
        6.09473         2.15019        0.175759 
        6.11044         2.14155        0.174608 
        6.12616         2.12473        0.173467 
        6.14186         2.12091        0.172338 
        6.15755         2.11174        0.171219 
        6.17326          2.0978        0.170109 
        6.18898         2.08788        0.169009 
        6.20467         2.07892         0.16792 
        6.22036         2.06305        0.166841 
         6.2361         2.06098        0.165768 
         6.2518          2.0432        0.164707 
        6.26748         2.03735        0.163657 
        6.28319          2.0268        0.162614 
        6.29893         2.01381        0.161579 
        6.31463         2.00623        0.160554 
        6.33033         1.99726        0.159539 
        6.34604         1.98719        0.158532 
        6.36177         1.97765        0.157533 
        6.37747          1.9656        0.156544 
