# k  (h/Mpc)    Pcb(k)  (Mpc/h)^3    Pcb_linear(k) (Mpc/h)^3   ShotnoiseSubtracted = true
      0.0200456         8374.19         8515.18 
      0.0350414         5351.81         5454.67 
      0.0492313         3649.53         3645.97 
      0.0637834         3101.07            3030 
      0.0800726         2459.75         2416.26 
       0.096163         1636.48         1649.78 
       0.111083         1252.31         1258.66 
       0.126058         1164.31         1140.13 
       0.142273         1019.29          984.29 
       0.158546         812.465         749.351 
        0.17375         637.664         609.957 
       0.188953         612.103         558.875 
       0.204907         577.258          505.13 
       0.220756         480.441         421.038 
        0.23588         414.852         356.621 
         0.2514         363.509         323.767 
       0.267535         348.036          297.59 
       0.283568         313.995          261.76 
       0.299022         287.717         229.455 
       0.314451         263.336         208.537 
       0.330372         243.885         192.741 
       0.346141         218.236         175.337 
       0.361624         208.351         158.132 
       0.377134          193.88         144.603 
       0.392932         177.684         134.043 
       0.408854         170.097         123.869 
       0.424564         162.384         113.855 
       0.440253          153.44         105.105 
       0.455999         143.491         97.8501 
       0.471626         133.101         91.3624 
        0.48727         128.144         85.1089 
       0.502856         122.829         79.3819 
       0.518488         119.306         74.3477 
       0.534347         113.812         69.7685 
       0.550082         105.033         65.5275 
       0.565732         100.919         61.5917 
       0.581496         96.8998         57.9933 
       0.597222          93.481         54.7314 
       0.612804         89.0911         51.7399 
       0.628434         86.8018         48.9397 
       0.644267           83.69         46.3105 
       0.660051         81.7095         43.8994 
       0.675724           78.57         41.6809 
       0.691403          76.089         39.6133 
       0.707174         73.1851         37.6737 
       0.722871         71.6706         35.8711 
        0.73838         70.0716         34.2054 
       0.754018         66.4986         32.6327 
       0.769845         65.1148         31.1417 
        0.78569          63.438         29.7425 
       0.801365         61.2751         28.4432 
       0.817031         59.2506         27.2229 
       0.832809         58.5589         26.0669 
       0.848511         55.8892         24.9838 
       0.864097         54.7121         23.9703 
       0.879701         53.6589         23.0125 
       0.895507         52.7646         22.0962 
       0.911279         51.4707         21.2321 
        0.92691         50.3568         20.4217 
       0.942635         48.4409         19.6495 
       0.958396         48.2692         18.9159 
       0.974128         46.9222         18.2213 
       0.989692          46.056         17.5687 
        1.00528         44.9687         16.9474 
        1.02113         43.9292         16.3465 
        1.03692         42.6536         15.7771 
        1.05264         42.5732         15.2377 
        1.06832         41.0844         14.7244 
        1.08405         40.6253         14.2336 
        1.09979         40.1706          13.765 
        1.11537         38.6027         13.3222 
        1.13105         38.8914         12.8964 
        1.14679         37.9412         12.4876 
        1.16256         37.1448         12.0959 
        1.17828         36.3064         11.7224 
        1.19395          35.783         11.3659 
         1.2097         35.1852         11.0226 
        1.22537         35.0643         10.6952 
          1.241         34.0258         10.3822 
        1.25666         33.3427          10.081 
        1.27241         32.9204         9.79036 
        1.28819         32.1175         9.51078 
        1.30392         31.7466           9.243 
        1.31957         31.4644         8.98678 
        1.33529         31.0423         8.73939 
        1.35108         30.6088         8.50039 
        1.36674         30.0951         8.27208 
         1.3824         29.3066         8.05241 
        1.39811         29.2367         7.84003 
        1.41389         28.8098         7.63455 
        1.42964         28.2373         7.43681 
        1.44531         27.9522         7.24708 
        1.46101         27.3105          7.0636 
        1.47667         27.1962         6.88704 
        1.49229         26.8857         6.71703 
        1.50793         26.4769          6.5526 
        1.52367         26.1182         6.39263 
        1.53953         25.9736         6.23696 
        1.55526         25.4429         6.08775 
        1.57092         25.1132         5.94405 
        1.58662          24.794         5.80467 
        1.60235         24.4985         5.66951 
        1.61809         24.1485         5.53861 
        1.63369         23.8984         5.41302 
        1.64941         23.5405         5.29044 
        1.66519         23.2693         5.17124 
        1.68085         23.0199         5.05657 
        1.69652         22.7328         4.94536 
        1.71228         22.5889         4.83688 
        1.72806         22.1778         4.73158 
        1.74368         21.8311         4.63049 
        1.75933         21.6002         4.53216 
        1.77505          21.557         4.43624 
        1.79081          21.182         4.34294 
         1.8065         20.9629         4.25273 
        1.82218         20.7736         4.16517 
        1.83797         20.4309         4.07949 
        1.85367         20.2306         3.99671 
        1.86928         20.0313         3.91672 
        1.88497          19.753          3.8385 
        1.90073         19.6902         3.76214 
        1.91647         19.3654         3.68793 
        1.93218         19.2266         3.61588 
        1.94787         18.9684         3.54588 
        1.96363         18.8988         3.47745 
        1.97935         18.6399         3.41099 
        1.99499         18.4182         3.34664 
        2.01064         18.3252         3.28386 
         2.0264         17.9706         3.22231 
        2.04216         17.8456         3.16237 
        2.05781         17.5788         3.10434 
        2.07353         17.4776         3.04757 
        2.08928         17.3959         2.99209 
        2.10499         17.2057         2.93816 
        2.12065         16.8979         2.88571 
        2.13633         16.8186         2.83451 
        2.15211         16.5788         2.78422 
        2.16785         16.4444          2.7353 
        2.18349         16.2806         2.68787 
        2.19916         16.1614         2.64146 
        2.21489         15.9743           2.596 
        2.23063         15.8279         2.55159 
         2.2463         15.6913         2.50841 
        2.26194         15.5909         2.46635 
        2.27765         15.3665         2.42504 
        2.29341         15.1914         2.38457 
        2.30914         15.1146         2.34511 
        2.32486         14.9905         2.30657 
        2.34061         14.8399         2.26883 
        2.35635         14.6453         2.23197 
        2.37203         14.5123         2.19607 
        2.38768         14.4101         2.16103 
        2.40339         14.2539         2.12663 
        2.41914         14.1469          2.0929 
        2.43483         14.0284         2.06002 
         2.4505         13.8391         2.02791 
        2.46622         13.7262         1.99637 
        2.48195          13.622         1.96551 
        2.49759         13.4498         1.93546 
        2.51328          13.352         1.90597 
        2.52906          13.275         1.87691 
        2.54479         13.1447         1.84856 
        2.56049         13.0438         1.82085 
        2.57618         12.9334         1.79374 
        2.59189         12.8151         1.76714 
        2.60758         12.7067         1.74113 
        2.62325         12.6119         1.71567 
        2.63898         12.4824         1.69063 
        2.65468         12.3818         1.66615 
        2.67044         12.2394         1.64205 
        2.68618         12.1548         1.61848 
        2.70184         12.0525         1.59547 
        2.71755         11.9191         1.57285 
        2.73329         11.8481         1.55064 
        2.74897         11.7009         1.52892 
        2.76462         11.6871         1.50768 
        2.78034         11.4961         1.48675 
        2.79607         11.4235          1.4662 
        2.81179         11.2972         1.44606 
        2.82749          11.214         1.42632 
        2.84321         11.1245         1.40693 
        2.85893         11.0474         1.38791 
        2.87462         10.9397         1.36927 
        2.89033         10.8275         1.35096 
        2.90605         10.7654         1.33297 
        2.92176         10.6496         1.31531 
        2.93747         10.6123         1.29799 
        2.95318         10.4718         1.28098 
        2.96891          10.391         1.26426 
        2.98456         10.3243         1.24792 
        3.00023         10.2253         1.23184 
        3.01596         10.1674         1.21599 
        3.03164         10.0862         1.20048 
        3.04738         9.95984         1.18518 
         3.0631         9.91892         1.17016 
        3.07883         9.79865          1.1554 
        3.09456         9.73598          1.1409 
        3.11026         9.65533         1.12667 
        3.12596         9.58925         1.11268 
        3.14163         9.50051         1.09897 
        3.15734         9.40953         1.08545 
        3.17308         9.33993         1.07213 
        3.18879         9.31052         1.05907 
        3.20447         9.18191         1.04625 
         3.2202         9.13996          1.0336 
         3.2359         9.08144         1.02118 
        3.25157         9.00436           1.009 
        3.26729         8.92749         0.99698 
        3.28304         8.85453        0.985132 
        3.29877         8.77309        0.973493 
        3.31446         8.69844        0.962067 
        3.33014         8.63784        0.950835 
        3.34585         8.59893        0.939766 
        3.36158         8.53424        0.928857 
        3.37727         8.41675        0.918156 
        3.39294         8.38249        0.907634 
        3.40867         8.29422        0.897239 
        3.42439          8.2331        0.887013 
        3.44008         8.19995        0.876966 
        3.45578          8.1244        0.867069 
        3.47153         8.07972        0.857302 
        3.48724         8.01544        0.847704 
        3.50292         7.93775        0.838275 
        3.51859         7.89514        0.828994 
        3.53431         7.82896        0.819826 
        3.55007         7.76491        0.810774 
        3.56577         7.71668        0.801894 
        3.58146            7.66        0.793152 
        3.59719         7.59704         0.78452 
        3.61292         7.52288         0.77602 
        3.62859         7.47793        0.767679 
        3.64429         7.44761        0.759444 
        3.66003         7.35453        0.751305 
        3.67578          7.2881        0.743289 
        3.69146         7.24383         0.73542 
        3.70712         7.18975        0.727679 
        3.72284         7.14979        0.720022 
        3.73853         7.07333        0.712488 
        3.75422          7.0656         0.70506 
        3.76993         6.97851        0.697731 
        3.78564         6.93221         0.69051 
        3.80137         6.87028        0.683379 
        3.81707         6.83388        0.676365 
        3.83279         6.78444        0.669443 
        3.84853         6.73111        0.662607 
        3.86424         6.68493         0.65588 
        3.87992          6.6232        0.649257 
        3.89561         6.57969        0.642725 
        3.91134         6.52943         0.63627 
        3.92704         6.47389        0.629911 
        3.94273         6.44962        0.623646 
        3.95845         6.39964        0.617454 
        3.97418         6.32792        0.611346 
        3.98988         6.29354        0.605328 
        4.00554         6.26103        0.599409 
        4.02125           6.205        0.593551 
        4.03698         6.15281        0.587763 
        4.05268          6.1219        0.582065 
        4.06839         6.06888        0.576439 
         4.0841         6.02132         0.57089 
        4.09983         5.98734        0.565405 
        4.11555         5.94655        0.559995 
        4.13124         5.91236        0.554671 
        4.14693         5.85794        0.549412 
        4.16266         5.81487        0.544209 
        4.17839         5.76155        0.539076 
        4.19408         5.72305        0.534022 
        4.20977         5.67428         0.52903 
        4.22551         5.63716         0.52409 
        4.24123         5.59992        0.519219 
        4.25691         5.53934        0.514423 
        4.27259          5.5229        0.509686 
        4.28831         5.47705        0.504999 
        4.30404         5.44716        0.500367 
        4.31974         5.39016        0.495803 
        4.33543         5.36029        0.491299 
        4.35116         5.30844         0.48684 
        4.36688         5.27223        0.482439 
        4.38255         5.24769        0.478108 
        4.39825         5.18867        0.473821 
        4.41398         5.18001        0.469578 
         4.4297         5.12448        0.465392 
        4.44541          5.0869        0.461258 
        4.46111          5.0771        0.457177 
        4.47683         5.02843        0.453143 
        4.49251         4.99598        0.449166 
        4.50819         4.94535        0.445237 
         4.5239         4.92327        0.441351 
        4.53962         4.88883        0.437505 
        4.55535         4.86015        0.433704 
        4.57106         4.81871        0.429954 
        4.58678         4.79472        0.426247 
         4.6025         4.74901        0.422583 
        4.61821         4.72525        0.418963 
        4.63391         4.69309         0.41539 
         4.6496         4.66083         0.41186 
        4.66532         4.64435        0.408366 
        4.68103         4.59284        0.404914 
        4.69673         4.57532        0.401506 
        4.71241         4.54542         0.39814 
        4.72811         4.50073        0.394807 
        4.74384         4.46966        0.391508 
        4.75955         4.43521        0.388252 
        4.77525         4.40733        0.385035 
        4.79096         4.38482         0.38185 
        4.80669         4.35717        0.378701 
         4.8224         4.33494         0.37559 
        4.83809         4.28961        0.372517 
        4.85379         4.26365        0.369477 
         4.8695         4.24519        0.366469 
        4.88521         4.21918        0.363496 
        4.90093         4.17516        0.360555 
        4.91663         4.16166        0.357649 
        4.93234         4.13492        0.354772 
        4.94807         4.09265        0.351926 
        4.96377         4.06736        0.349115 
        4.97943         4.04604        0.346342 
        4.99514         4.01801        0.343591 
        5.01086         3.99456        0.340869 
        5.02654         3.97268        0.338183 
        5.04227          3.9361        0.335517 
          5.058         3.91167         0.33288 
        5.07371         3.89391        0.330276 
        5.08942         3.86231          0.3277 
        5.10513         3.84456        0.325151 
        5.12084         3.82321        0.322627 
        5.13656         3.79341        0.320132 
        5.15225         3.77537        0.317666 
        5.16796         3.74352        0.315223 
        5.18369          3.7201        0.312804 
         5.1994          3.7016        0.310414 
        5.21509         3.67044        0.308051 
        5.23079         3.66048        0.305711 
        5.24649         3.62885        0.303396 
        5.26217         3.60182        0.301107 
        5.27788         3.58155        0.298839 
        5.29359         3.55999        0.296593 
        5.30933         3.53669        0.294368 
        5.32504         3.52716        0.292169 
        5.34073         3.49533        0.289995 
        5.35646         3.47031        0.287838 
        5.37218         3.45253        0.285704 
        5.38789         3.42588        0.283594 
        5.40357         3.41043        0.281508 
        5.41929         3.38242        0.279439 
        5.43502         3.36664         0.27739 
         5.4507         3.34975        0.275367 
        5.46639         3.32459        0.273363 
        5.48212          3.3056        0.271375 
        5.49786         3.28753        0.269405 
        5.51353         3.26409        0.267463 
        5.52921         3.24669        0.265539 
        5.54495         3.22346        0.263629 
        5.56066         3.21086        0.261739 
        5.57637         3.18976        0.259868 
        5.59207         3.16575        0.258017 
        5.60778         3.14228        0.256183 
        5.62346         3.12839         0.25437 
        5.63916         3.10961        0.252573 
        5.65487         3.09453        0.250792 
         5.6706           3.071        0.249026 
        5.68633         3.05876        0.247277 
        5.70203         3.03666        0.245548 
        5.71773         3.02038        0.243836 
        5.73344         3.00708        0.242139 
        5.74916         2.98569        0.240457 
        5.76486         2.97394        0.238793 
        5.78054         2.95093        0.237148 
        5.79626         2.93431        0.235513 
          5.812         2.91871        0.233893 
         5.8277         2.90428        0.232292 
        5.84339         2.88631        0.230706 
        5.85911         2.87404        0.229133 
        5.87484         2.85495        0.227574 
        5.89053         2.83182        0.226032 
        5.90623         2.81843        0.224505 
        5.92195         2.80219        0.222989 
        5.93767         2.78929        0.221487 
        5.95336         2.77408        0.220002 
        5.96905         2.75589        0.218532 
        5.98476         2.74196        0.217072 
        6.00048         2.72672        0.215626 
        6.01617         2.71218        0.214195 
        6.03185         2.69057        0.212778 
        6.04756         2.67591        0.211371 
        6.06331         2.66082        0.209973 
        6.07903         2.64786        0.208592 
        6.09473         2.63812        0.207224 
        6.11044         2.61733        0.205867 
        6.12616         2.60531        0.204522 
        6.14186         2.59406        0.203191 
        6.15755         2.57885        0.201872 
        6.17326         2.56352        0.200563 
        6.18898         2.54605        0.199265 
        6.20467         2.53858        0.197982 
        6.22036         2.51951        0.196709 
         6.2361         2.50509        0.195445 
         6.2518         2.49363        0.194194 
        6.26748         2.48407        0.192956 
        6.28319         2.46397        0.191726 
        6.29893         2.45086        0.190505 
        6.31463         2.43765        0.189297 
        6.33033         2.42727        0.188101 
        6.34604         2.41559        0.186913 
        6.36177         2.40279        0.185735 
        6.37747         2.38675        0.184569 
