# k  (h/Mpc)    Pcb(k)  (Mpc/h)^3    Pcb_linear(k) (Mpc/h)^3   ShotnoiseSubtracted = true
      0.0200456         22519.5         22911.3 
      0.0350414         15279.5         14676.5 
      0.0492313         9698.53         9809.97 
      0.0637834         7827.07         8152.63 
      0.0800726         6148.62         6501.28 
       0.096163         4723.76         4438.97 
       0.111083         3700.54         3386.59 
       0.126058         3095.44         3067.67 
       0.142273         2730.81         2648.37 
       0.158546         2190.03         2016.23 
        0.17375         1912.57         1641.17 
       0.188953         1812.37         1503.73 
       0.204907         1555.95         1359.12 
       0.220756         1400.13         1132.86 
        0.23588          1236.7         959.537 
         0.2514          1110.4         871.139 
       0.267535         1075.02         800.706 
       0.283568         949.495         704.302 
       0.299022         900.493         617.379 
       0.314451         935.015         561.096 
       0.330372         811.458         518.595 
       0.346141         744.926         471.767 
       0.361624         712.913         425.476 
       0.377134         681.184         389.074 
       0.392932         647.219         360.662 
       0.408854         620.919         333.288 
       0.424564         603.969         306.343 
       0.440253         554.141         282.799 
       0.455999         528.479         263.279 
       0.471626         539.437         245.823 
        0.48727         506.017         228.997 
       0.502856         481.568         213.588 
       0.518488          468.89         200.043 
       0.534347          447.82         187.722 
       0.550082         426.081         176.311 
       0.565732         421.184         165.721 
       0.581496         410.237         156.039 
       0.597222         399.701         147.262 
       0.612804         388.494         139.213 
       0.628434         373.844         131.679 
       0.644267         361.017         124.605 
       0.660051         357.101         118.117 
       0.675724         348.025         112.148 
       0.691403         341.352         106.585 
       0.707174         328.837         101.366 
       0.722871         325.088         96.5161 
        0.73838         317.446         92.0343 
       0.754018         307.668         87.8027 
       0.769845         306.484         83.7908 
        0.78569         298.139         80.0262 
       0.801365         288.281         76.5304 
       0.817031         287.274         73.2468 
       0.832809         280.767         70.1365 
       0.848511         276.025         67.2224 
       0.864097         267.181         64.4953 
       0.879701         267.152         61.9182 
       0.895507         258.775         59.4528 
       0.911279         253.328         57.1278 
        0.92691         250.984         54.9474 
       0.942635         247.423         52.8697 
       0.958396         240.833         50.8958 
       0.974128         238.635         49.0269 
       0.989692         230.338          47.271 
        1.00528         229.401         45.5991 
        1.02113         226.795         43.9824 
        1.03692         222.161         42.4505 
        1.05264         217.997          40.999 
        1.06832         215.875          39.618 
        1.08405         211.945         38.2974 
        1.09979         208.558         37.0365 
        1.11537         206.088         35.8451 
        1.13105         201.637         34.6994 
        1.14679          200.21         33.5996 
        1.16256         197.206         32.5456 
        1.17828         194.706         31.5406 
        1.19395         190.096         30.5816 
         1.2097         189.655         29.6579 
        1.22537         187.239         28.7769 
          1.241         181.174         27.9347 
        1.25666         180.951         27.1242 
        1.27241         177.895         26.3423 
        1.28819         175.496           25.59 
        1.30392           173.9         24.8695 
        1.31957         169.675         24.1802 
        1.33529          166.64         23.5145 
        1.35108         166.387         22.8714 
        1.36674         161.887         22.2571 
         1.3824         161.045         21.6661 
        1.39811         159.801         21.0947 
        1.41389          156.04         20.5418 
        1.42964         153.416         20.0097 
        1.44531         152.909         19.4992 
        1.46101           149.9         19.0056 
        1.47667         149.007         18.5305 
        1.49229         147.198         18.0731 
        1.50793         144.255         17.6306 
        1.52367         142.334         17.2002 
        1.53953         140.026         16.7814 
        1.55526          138.91         16.3799 
        1.57092         137.846         15.9933 
        1.58662         135.024         15.6182 
        1.60235         133.656         15.2546 
        1.61809         131.622         14.9024 
        1.63369         129.443         14.5645 
        1.64941          128.78         14.2347 
        1.66519         126.515         13.9139 
        1.68085         124.771         13.6054 
        1.69652         123.632         13.3062 
        1.71228         121.566         13.0143 
        1.72806         121.026          12.731 
        1.74368         119.734          12.459 
        1.75933          118.21         12.1944 
        1.77505         116.741         11.9363 
        1.79081         114.702         11.6853 
         1.8065         112.988         11.4425 
        1.82218         111.533          11.207 
        1.83797         110.867         10.9764 
        1.85367         109.514         10.7537 
        1.86928         108.631         10.5385 
        1.88497         106.777          10.328 
        1.90073         106.069         10.1225 
        1.91647         104.243         9.92286 
        1.93218         103.119         9.72902 
        1.94787         101.442         9.54066 
        1.96363         100.898         9.35656 
        1.97935         99.7066         9.17772 
        1.99499         98.6995         9.00458 
        2.01064         97.0873         8.83568 
         2.0264         95.9511         8.67006 
        2.04216            94.8         8.50879 
        2.05781         93.4825         8.35265 
        2.07353         92.9162         8.19989 
        2.08928         91.5747         8.05063 
        2.10499         90.8567          7.9055 
        2.12065         89.4917          7.7644 
        2.13633          88.707         7.62663 
        2.15211         87.2406         7.49133 
        2.16785         86.2085          7.3597 
        2.18349         84.7789         7.23207 
        2.19916          84.462         7.10721 
        2.21489         83.5083          6.9849 
        2.23063         82.0266         6.86539 
         2.2463         81.2068         6.74922 
        2.26194          80.717         6.63604 
        2.27765         79.1426         6.52489 
        2.29341          78.427           6.416 
        2.30914         77.3611         6.30983 
        2.32486         76.4788         6.20613 
        2.34061         75.4879         6.10459 
        2.35635         75.0174         6.00542 
        2.37203         73.7564         5.90881 
        2.38768         73.1705         5.81453 
        2.40339         72.1596         5.72198 
        2.41914         71.3597         5.63122 
        2.43483         70.6752         5.54277 
         2.4505         69.7936         5.45637 
        2.46622         69.0945         5.37152 
        2.48195         68.5932         5.28847 
        2.49759         67.5253         5.20763 
        2.51328         66.5639         5.12827 
        2.52906         65.9525         5.05007 
        2.54479           65.33          4.9738 
        2.56049          64.428         4.89925 
        2.57618         63.8413         4.82631 
        2.59189         63.0624         4.75474 
        2.60758         62.2792         4.68474 
        2.62325         61.6671         4.61624 
        2.63898         61.2331         4.54887 
        2.65468         60.4368           4.483 
        2.67044         59.8335         4.41815 
        2.68618         59.5612         4.35473 
        2.70184          58.563         4.29282 
        2.71755         58.0109         4.23196 
        2.73329         57.1057         4.17219 
        2.74897         56.7077         4.11378 
        2.76462         56.0344         4.05661 
        2.78034         55.4425          4.0003 
        2.79607         55.1515           3.945 
        2.81179         54.4647         3.89081 
        2.82749           54.01         3.83771 
        2.84321         53.3212         3.78554 
        2.85893         52.6517         3.73435 
        2.87462          52.289         3.68421 
        2.89033         51.4928         3.63494 
        2.90605         51.0248         3.58653 
        2.92176         50.5386         3.53903 
        2.93747         50.1951         3.49242 
        2.95318         49.5547         3.44664 
        2.96891           48.91         3.40166 
        2.98456         48.3846         3.35769 
        3.00023         48.0174         3.31443 
        3.01596         47.2972          3.2718 
        3.03164         46.8366         3.23004 
        3.04738         46.3879         3.18889 
         3.0631         45.9606         3.14848 
        3.07883         45.3574         3.10877 
        3.09456         44.9917         3.06975 
        3.11026          44.671         3.03146 
        3.12596         44.1283         2.99383 
        3.14163         43.6296         2.95692 
        3.15734          43.175         2.92056 
        3.17308         42.8974         2.88472 
        3.18879         42.4933         2.84958 
        3.20447         42.0982         2.81508 
         3.2202         41.5784         2.78104 
         3.2359         41.2247         2.74763 
        3.25157         40.9056         2.71485 
        3.26729         40.3393         2.68251 
        3.28304          39.981         2.65063 
        3.29877         39.5361         2.61931 
        3.31446         39.1549         2.58857 
        3.33014         38.8549         2.55835 
        3.34585         38.3504         2.52857 
        3.36158         38.1155         2.49922 
        3.37727         37.5656         2.47042 
        3.39294         37.3358         2.44211 
        3.40867          36.966         2.41414 
        3.42439         36.5972         2.38663 
        3.44008         36.2705          2.3596 
        3.45578         35.8926         2.33297 
        3.47153         35.5267         2.30669 
        3.48724         35.1605         2.28086 
        3.50292          34.906         2.25549 
        3.51859         34.5643         2.23052 
        3.53431         34.2905         2.20585 
        3.55007         33.9227          2.1815 
        3.56577         33.6152         2.15761 
        3.58146         33.2916         2.13408 
        3.59719         32.9761         2.11086 
        3.61292          32.698         2.08799 
        3.62859         32.3609         2.06554 
        3.64429         32.0352         2.04339 
        3.66003         31.9108         2.02149 
        3.67578         31.4764         1.99992 
        3.69146         31.1863         1.97875 
        3.70712         30.8254         1.95792 
        3.72284         30.5963         1.93732 
        3.73853         30.4249         1.91705 
        3.75422         30.0068         1.89706 
        3.76993         29.8216         1.87734 
        3.78564         29.5788         1.85791 
        3.80137         29.3379         1.83872 
        3.81707         28.9349         1.81985 
        3.83279         28.8102         1.80123 
        3.84853         28.3972         1.78283 
        3.86424         28.2769         1.76473 
        3.87992         27.9988         1.74691 
        3.89561         27.6654         1.72934 
        3.91134         27.3974         1.71197 
        3.92704         27.1715         1.69486 
        3.94273         26.9453           1.678 
        3.95845         26.7296         1.66134 
        3.97418         26.4371         1.64491 
        3.98988         26.1656         1.62872 
        4.00554         26.0474         1.61279 
        4.02125         25.7575         1.59703 
        4.03698         25.4901         1.58146 
        4.05268         25.3459         1.56613 
        4.06839          25.058         1.55099 
         4.0841         24.8387         1.53606 
        4.09983         24.5869          1.5213 
        4.11555         24.4011         1.50674 
        4.13124         24.1983         1.49242 
        4.14693         24.0145         1.47827 
        4.16266         23.7313         1.46427 
        4.17839         23.6403         1.45046 
        4.19408         23.4304         1.43686 
        4.20977         23.2062         1.42343 
        4.22551         23.0229         1.41014 
        4.24123         22.7913         1.39703 
        4.25691         22.5418         1.38412 
        4.27259         22.4552         1.37138 
        4.28831         22.2454         1.35877 
        4.30404         22.0818         1.34631 
        4.31974         21.8565         1.33403 
        4.33543         21.6703         1.32191 
        4.35116         21.5047         1.30991 
        4.36688         21.3654         1.29807 
        4.38255           21.09         1.28641 
        4.39825         20.9522         1.27488 
        4.41398         20.7572         1.26346 
         4.4297         20.5775          1.2522 
        4.44541           20.44         1.24108 
        4.46111         20.2457          1.2301 
        4.47683         20.1037         1.21924 
        4.49251         19.9352         1.20854 
        4.50819         19.8219         1.19797 
         4.5239         19.6124         1.18751 
        4.53962         19.4738         1.17717 
        4.55535         19.2889         1.16694 
        4.57106         19.1573         1.15685 
        4.58678         18.9518         1.14687 
         4.6025         18.8354         1.13702 
        4.61821         18.6697         1.12728 
        4.63391         18.5396         1.11766 
         4.6496         18.3774         1.10817 
        4.66532         18.1988         1.09876 
        4.68103         18.1056         1.08948 
        4.69673         17.9181         1.08031 
        4.71241         17.8352         1.07125 
        4.72811         17.6473         1.06228 
        4.74384         17.5081         1.05341 
        4.75955         17.4013         1.04464 
        4.77525         17.2652         1.03599 
        4.79096         17.1171         1.02742 
        4.80669         16.9693         1.01895 
         4.8224         16.8359         1.01058 
        4.83809         16.6867         1.00231 
        4.85379         16.5679        0.994129 
         4.8695         16.4583        0.986035 
        4.88521         16.2926        0.978034 
        4.90093         16.2032        0.970121 
        4.91663         16.0697        0.962303 
        4.93234         15.9387        0.954563 
        4.94807         15.8488        0.946903 
        4.96377         15.7075        0.939342 
        4.97943         15.6017        0.931879 
        4.99514         15.4599        0.924479 
        5.01086         15.3342        0.917153 
        5.02654         15.2383        0.909926 
        5.04227         15.0984        0.902755 
          5.058         14.9789        0.895658 
        5.07371         14.8917        0.888652 
        5.08942          14.783         0.88172 
        5.10513         14.6777        0.874862 
        5.12084         14.5752        0.868072 
        5.13656          14.425        0.861357 
        5.15225         14.3102        0.854724 
        5.16796         14.2099        0.848151 
        5.18369         14.1379         0.84164 
         5.1994         13.9785         0.83521 
        5.21509         13.9068        0.828853 
        5.23079         13.8069        0.822555 
        5.24649         13.6879        0.816328 
        5.26217         13.5857        0.810169 
        5.27788         13.5004        0.804066 
        5.29359         13.3847        0.798024 
        5.30933         13.2867        0.792036 
        5.32504         13.2247        0.786119 
        5.34073         13.1128        0.780269 
        5.35646         13.0103        0.774468 
        5.37218         12.9215        0.768724 
        5.38789         12.8176        0.763048 
        5.40357         12.7122        0.757436 
        5.41929         12.6189        0.751868 
        5.43502         12.5195        0.746355 
         5.4507         12.4423        0.740911 
        5.46639         12.3526        0.735521 
        5.48212         12.2748        0.730172 
        5.49786         12.1588         0.72487 
        5.51353         12.1004        0.719646 
        5.52921         11.9972         0.71447 
        5.54495         11.8854        0.709328 
        5.56066         11.8432        0.704244 
        5.57637          11.745         0.69921 
        5.59207         11.6786        0.694229 
        5.60778         11.5861        0.689296 
        5.62346         11.4867        0.684417 
        5.63916         11.4276        0.679581 
        5.65487         11.3301        0.674789 
         5.6706         11.2653        0.670038 
        5.68633         11.1859        0.665331 
        5.70203         11.1125        0.660679 
        5.71773         11.0281        0.656072 
        5.73344         10.9554        0.651507 
        5.74916         10.8668        0.646982 
        5.76486         10.8237        0.642505 
        5.78054          10.727        0.638078 
        5.79626         10.6251         0.63368 
          5.812         10.5807         0.62932 
         5.8277          10.489        0.625013 
        5.84339         10.4195        0.620747 
        5.85911         10.3576        0.616512 
        5.87484         10.2682        0.612318 
        5.89053         10.1934        0.608171 
        5.90623         10.1532        0.604061 
        5.92195         10.0586        0.599981 
        5.93767         9.99337        0.595942 
        5.95336          9.9405        0.591946 
        5.96905         9.85971        0.587989 
        5.98476         9.81831        0.584062 
        6.00048          9.7431        0.580171 
        6.01617         9.66358        0.576319 
        6.03185         9.60935        0.572508 
        6.04756          9.5475        0.568722 
        6.06331         9.46644        0.564962 
        6.07903         9.42032        0.561244 
        6.09473         9.35855        0.557563 
        6.11044         9.29393        0.553912 
        6.12616         9.19877        0.550294 
        6.14186         9.14176        0.546712 
        6.15755         9.10816        0.543163 
        6.17326          9.0526        0.539642 
        6.18898         9.00031        0.536151 
        6.20467         8.93095        0.532697 
        6.22036         8.85942        0.529273 
         6.2361          8.8165        0.525871 
         6.2518         8.74792        0.522504 
        6.26748         8.68162        0.519174 
        6.28319         8.63993        0.515864 
        6.29893         8.57768         0.51258 
        6.31463         8.52189         0.50933 
        6.33033         8.47342         0.50611 
        6.34604         8.41348        0.502915 
        6.36177          8.3751        0.499745 
        6.37747          8.2993        0.496608 
