# k  (h/Mpc)    Pcb(k)  (Mpc/h)^3    Pcb_linear(k) (Mpc/h)^3   ShotnoiseSubtracted = true
      0.0200456         20014.8         20351.6 
      0.0350414         13554.2         13036.9 
      0.0492313         8632.58            8714 
      0.0637834         6969.69         7241.82 
      0.0800726         5479.67         5774.96 
       0.096163         4184.17         3943.04 
       0.111083         3274.59         3008.24 
       0.126058         2744.57         2724.95 
       0.142273         2414.85         2352.49 
       0.158546         1936.12         1790.98 
        0.17375         1680.52         1457.82 
       0.188953         1585.81         1335.73 
       0.204907         1361.22         1207.28 
       0.220756         1221.33          1006.3 
        0.23588         1077.47         852.336 
         0.2514         964.127         773.814 
       0.267535         935.528          711.25 
       0.283568         822.443         625.617 
       0.299022         780.782         548.405 
       0.314451         805.515          498.41 
       0.330372         694.368         460.657 
       0.346141         638.614         419.061 
       0.361624         610.472         377.941 
       0.377134         580.347         345.606 
       0.392932         553.688         320.368 
       0.408854         529.969         296.052 
       0.424564         514.366         272.118 
       0.440253          469.41         251.205 
       0.455999          447.87         233.865 
       0.471626         455.939         218.359 
        0.48727         428.094         203.413 
       0.502856         402.875         189.726 
       0.518488         396.075         177.694 
       0.534347         374.928         166.749 
       0.550082         357.563         156.613 
       0.565732         354.706         147.206 
       0.581496         343.457         138.606 
       0.597222         333.765          130.81 
       0.612804         324.084          123.66 
       0.628434         312.451         116.968 
       0.644267         300.408         110.684 
       0.660051         297.011         104.921 
       0.675724          289.78         99.6188 
       0.691403         284.443         94.6772 
       0.707174         273.362         90.0414 
       0.722871          269.42         85.7332 
        0.73838         264.331         81.7521 
       0.754018         255.056         77.9933 
       0.769845         254.582         74.4297 
        0.78569          247.01         71.0856 
       0.801365          239.26         67.9803 
       0.817031          237.92         65.0636 
       0.832809         232.224         62.3008 
       0.848511          227.31         59.7122 
       0.864097           220.5         57.2898 
       0.879701         220.279         55.0007 
       0.895507         214.481         52.8107 
       0.911279          209.34         50.7455 
        0.92691         206.459         48.8087 
       0.942635           204.2          46.963 
       0.958396         199.096         45.2096 
       0.974128         196.949         43.5496 
       0.989692         189.722         41.9899 
        1.00528         189.499         40.5048 
        1.02113         186.748         39.0687 
        1.03692         182.494         37.7079 
        1.05264         178.949         36.4186 
        1.06832         178.501         35.1919 
        1.08405         173.916         34.0188 
        1.09979         171.929         32.8987 
        1.11537         170.051         31.8405 
        1.13105         166.128         30.8228 
        1.14679         164.938         29.8459 
        1.16256         161.673         28.9096 
        1.17828         160.128         28.0169 
        1.19395         156.248          27.165 
         1.2097         155.507         26.3445 
        1.22537         154.037          25.562 
          1.241         149.241         24.8138 
        1.25666         148.695         24.0939 
        1.27241         145.578         23.3993 
        1.28819          144.05         22.7311 
        1.30392         142.442         22.0911 
        1.31957         139.206         21.4787 
        1.33529         136.797         20.8875 
        1.35108         136.084         20.3162 
        1.36674         133.192         19.7706 
         1.3824         132.403         19.2455 
        1.39811         130.666          18.738 
        1.41389         127.657         18.2468 
        1.42964         125.895         17.7742 
        1.44531         125.166         17.3208 
        1.46101         122.547         16.8822 
        1.47667         122.187         16.4603 
        1.49229         120.557         16.0539 
        1.50793         118.064         15.6609 
        1.52367         116.574         15.2786 
        1.53953         114.756         14.9066 
        1.55526         114.004         14.5499 
        1.57092         112.923         14.2065 
        1.58662         110.721         13.8734 
        1.60235          109.51         13.5503 
        1.61809         108.374         13.2375 
        1.63369         106.371         12.9373 
        1.64941         106.068         12.6443 
        1.66519         104.203         12.3594 
        1.68085         102.383         12.0854 
        1.69652          101.61         11.8196 
        1.71228         100.116         11.5603 
        1.72806         99.7254         11.3087 
        1.74368         98.2455          11.067 
        1.75933         97.1117          10.832 
        1.77505         95.8376         10.6028 
        1.79081         94.3082         10.3798 
         1.8065         92.7954         10.1642 
        1.82218         91.9301         9.95491 
        1.83797         91.5548         9.75013 
        1.85367         89.8844         9.55227 
        1.86928         89.4396         9.36111 
        1.88497         87.6062         9.17415 
        1.90073         87.0765         8.99164 
        1.91647         85.7081         8.81427 
        1.93218          84.861         8.64209 
        1.94787         83.4148         8.47477 
        1.96363         82.7597         8.31124 
        1.97935         82.0333         8.15238 
        1.99499         81.3901         7.99858 
        2.01064         79.7029         7.84855 
         2.0264         78.9632         7.70144 
        2.04216         77.7972         7.55818 
        2.05781          76.892         7.41949 
        2.07353         76.2679         7.28379 
        2.08928         75.3374         7.15121 
        2.10499         74.4125          7.0223 
        2.12065         73.7647         6.89696 
        2.13633         72.7333         6.77458 
        2.15211         71.6732         6.65439 
        2.16785         70.6153         6.53747 
        2.18349         69.9355          6.4241 
        2.19916         69.3368         6.31319 
        2.21489         68.4726         6.20454 
        2.23063         67.3732         6.09838 
         2.2463         66.8498         5.99519 
        2.26194         66.4092         5.89466 
        2.27765         65.2071         5.79592 
        2.29341         64.6064          5.6992 
        2.30914         63.8563         5.60489 
        2.32486         63.2324         5.51277 
        2.34061         62.1392         5.42258 
        2.35635         61.6963         5.33449 
        2.37203         60.7584         5.24868 
        2.38768          60.448         5.16493 
        2.40339         59.7017         5.08271 
        2.41914         58.6808          5.0021 
        2.43483         58.5128         4.92353 
         2.4505         57.7518         4.84678 
        2.46622         57.2099         4.77141 
        2.48195          56.461         4.69764 
        2.49759         55.9779         4.62583 
        2.51328         55.1737         4.55534 
        2.52906         54.7185         4.48587 
        2.54479         54.2223         4.41812 
        2.56049         53.2151         4.35191 
        2.57618           52.86         4.28711 
        2.59189         52.2103         4.22354 
        2.60758         51.6048         4.16136 
        2.62325         51.2655         4.10051 
        2.63898         50.7661         4.04067 
        2.65468         50.1987         3.98215 
        2.67044         49.6534         3.92455 
        2.68618         49.1548         3.86822 
        2.70184         48.6799         3.81323 
        2.71755         47.8702         3.75917 
        2.73329         47.4218         3.70607 
        2.74897         47.0244         3.65418 
        2.76462         46.6498         3.60341 
        2.78034          46.198         3.55338 
        2.79607         45.5833         3.50426 
        2.81179         45.0921         3.45613 
        2.82749         44.6785         3.40896 
        2.84321         44.2725         3.36261 
        2.85893         43.7222         3.31715 
        2.87462         43.3668         3.27261 
        2.89033         42.6607         3.22884 
        2.90605         42.2158         3.18584 
        2.92176         42.1315         3.14365 
        2.93747         41.6061         3.10224 
        2.95318         41.1036         3.06158 
        2.96891         40.6465         3.02162 
        2.98456         40.3312         2.98256 
        3.00023         39.7981         2.94414 
        3.01596         39.2149         2.90627 
        3.03164         38.9603         2.86918 
        3.04738         38.6297         2.83263 
         3.0631         38.3845         2.79673 
        3.07883         37.9322         2.76145 
        3.09456         37.4905         2.72679 
        3.11026         37.1399         2.69278 
        3.12596         36.7878         2.65935 
        3.14163         36.3757         2.62657 
        3.15734         36.0276         2.59427 
        3.17308          35.708         2.56244 
        3.18879         35.3834         2.53122 
        3.20447         34.8689         2.50058 
         3.2202         34.6404         2.47034 
         3.2359         34.3421         2.44067 
        3.25157         33.9555         2.41155 
        3.26729         33.7088         2.38282 
        3.28304         33.3314          2.3545 
        3.29877         32.8907         2.32668 
        3.31446          32.617         2.29937 
        3.33014         32.3004         2.27253 
        3.34585         31.9152         2.24607 
        3.36158         31.7238            2.22 
        3.37727         31.3386         2.19443 
        3.39294         31.0994         2.16928 
        3.40867         30.7945         2.14443 
        3.42439         30.5257         2.11999 
        3.44008         30.2177         2.09598 
        3.45578         29.9509         2.07232 
        3.47153         29.6949         2.04898 
        3.48724         29.3509         2.02604 
        3.50292         29.1794         2.00351 
        3.51859         28.8236         1.98133 
        3.53431         28.5735         1.95941 
        3.55007         28.2868         1.93778 
        3.56577         27.9894         1.91656 
        3.58146         27.7104         1.89566 
        3.59719         27.5145         1.87503 
        3.61292          27.219         1.85472 
        3.62859         26.9629         1.83478 
        3.64429         26.7325          1.8151 
        3.66003         26.4872         1.79565 
        3.67578         26.2084         1.77649 
        3.69146          25.977         1.75768 
        3.70712          25.765         1.73918 
        3.72284         25.5792         1.72088 
        3.73853         25.3727         1.70287 
        3.75422         25.0557         1.68512 
        3.76993         24.8771          1.6676 
        3.78564         24.6465         1.65034 
        3.80137         24.4062          1.6333 
        3.81707         24.2159         1.61654 
        3.83279         23.9625         1.59999 
        3.84853         23.6991         1.58365 
        3.86424         23.5273         1.56758 
        3.87992          23.324         1.55175 
        3.89561         23.0917         1.53614 
        3.91134          22.863         1.52071 
        3.92704         22.6474         1.50551 
        3.94273         22.4733         1.49054 
        3.95845         22.3134         1.47574 
        3.97418         22.1132         1.46114 
        3.98988          21.827         1.44676 
        4.00554         21.6512         1.43261 
        4.02125         21.5284         1.41861 
        4.03698         21.2677         1.40477 
        4.05268         21.1287         1.39116 
        4.06839         20.9166         1.37771 
         4.0841         20.7101         1.36445 
        4.09983         20.5539         1.35134 
        4.11555         20.4018         1.33841 
        4.13124         20.2821         1.32568 
        4.14693         20.0474         1.31311 
        4.16266         19.9149         1.30068 
        4.17839         19.7527         1.28841 
        4.19408         19.5527         1.27633 
        4.20977         19.3744          1.2644 
        4.22551         19.2303         1.25259 
        4.24123         19.0833         1.24095 
        4.25691         18.9379         1.22949 
        4.27259         18.7177         1.21817 
        4.28831         18.6169         1.20697 
        4.30404         18.4734          1.1959 
        4.31974         18.3136         1.18499 
        4.33543         18.0926         1.17422 
        4.35116         18.0044         1.16357 
        4.36688         17.7952         1.15305 
        4.38255         17.6774          1.1427 
        4.39825         17.5359         1.13245 
        4.41398         17.4208         1.12231 
         4.4297         17.2427          1.1123 
        4.44541         17.1294         1.10242 
        4.46111         16.9218         1.09267 
        4.47683         16.8399         1.08303 
        4.49251         16.6699         1.07352 
        4.50819         16.5155         1.06413 
         4.5239         16.4538         1.05484 
        4.53962         16.2396         1.04565 
        4.55535         16.1622         1.03657 
        4.57106         16.0289          1.0276 
        4.58678         15.8609         1.01875 
         4.6025          15.747         1.00999 
        4.61821         15.6245         1.00134 
        4.63391         15.5027        0.992797 
         4.6496         15.3516        0.984361 
        4.66532         15.2245         0.97601 
        4.68103         15.1474         0.96776 
        4.69673         15.0127        0.959613 
        4.71241         14.8786        0.951568 
        4.72811         14.7862        0.943603 
        4.74384         14.6536        0.935718 
        4.75955         14.5145        0.927936 
        4.77525          14.409        0.920247 
        4.79096          14.294        0.912636 
        4.80669         14.1819        0.905108 
         4.8224         14.0791        0.897673 
        4.83809         13.9583         0.89033 
        4.85379           13.85        0.883064 
         4.8695          13.768        0.875874 
        4.88521         13.6472        0.868767 
        4.90093         13.5548        0.861739 
        4.91663         13.4176        0.854794 
        4.93234         13.3425        0.847919 
        4.94807         13.2618        0.841115 
        4.96377         13.1501        0.834398 
        4.97943         13.0282        0.827769 
        4.99514         12.9154        0.821195 
        5.01086         12.8363        0.814688 
        5.02654         12.7537        0.808268 
        5.04227         12.6367        0.801899 
          5.058         12.5393        0.795595 
        5.07371         12.4546        0.789371 
        5.08942         12.3805        0.783214 
        5.10513         12.2458        0.777121 
        5.12084         12.1674        0.771091 
        5.13656         12.0727        0.765126 
        5.15225         11.9911        0.759234 
        5.16796          11.901        0.753395 
        5.18369         11.7846        0.747612 
         5.1994         11.7333          0.7419 
        5.21509         11.6306        0.736253 
        5.23079          11.536        0.730659 
        5.24649         11.4517        0.725127 
        5.26217         11.3815        0.719657 
        5.27788         11.3076        0.714235 
        5.29359         11.1967        0.708868 
        5.30933         11.1103        0.703549 
        5.32504         11.0571        0.698293 
        5.34073          10.972        0.693097 
        5.35646         10.8922        0.687944 
        5.37218         10.8115        0.682842 
        5.38789         10.7371          0.6778 
        5.40357         10.6374        0.672815 
        5.41929         10.5868        0.667869 
        5.43502         10.5005        0.662972 
         5.4507         10.4134        0.658136 
        5.46639         10.3474        0.653348 
        5.48212         10.2748        0.648597 
        5.49786         10.1858        0.643887 
        5.51353         10.1355        0.639247 
        5.52921          10.058        0.634648 
        5.54495         9.98709        0.630082 
        5.56066         9.91111        0.625565 
        5.57637         9.84569        0.621093 
        5.59207         9.76417        0.616669 
        5.60778         9.71504        0.612287 
        5.62346         9.63584        0.607953 
        5.63916         9.57378        0.603657 
        5.65487         9.51572        0.599401 
         5.6706         9.43317        0.595181 
        5.68633         9.35802           0.591 
        5.70203         9.29991        0.586867 
        5.71773         9.23558        0.582776 
        5.73344         9.17877        0.578721 
        5.74916         9.10579          0.5747 
        5.76486         9.05042        0.570724 
        5.78054         8.98696        0.566792 
        5.79626         8.93167        0.562885 
          5.812         8.86234        0.559012 
         5.8277         8.77818        0.555186 
        5.84339         8.72549        0.551396 
        5.85911         8.66044        0.547635 
        5.87484         8.63064        0.543909 
        5.89053         8.57795        0.540226 
        5.90623         8.50667        0.536574 
        5.92195         8.43772        0.532951 
        5.93767          8.3885        0.529363 
        5.95336         8.31956        0.525814 
        5.96905         8.25458        0.522299 
        5.98476         8.23037        0.518811 
        6.00048         8.16525        0.515353 
        6.01617         8.11156        0.511933 
        6.03185         8.04407        0.508547 
        6.04756         7.99088        0.505184 
        6.06331           7.944        0.501844 
        6.07903         7.89563        0.498542 
        6.09473         7.82252        0.495272 
        6.11044         7.77071        0.492029 
        6.12616         7.73799        0.488815 
        6.14186         7.70133        0.485633 
        6.15755         7.64087         0.48248 
        6.17326         7.57297        0.479353 
        6.18898         7.53738        0.476252 
        6.20467         7.48658        0.473183 
        6.22036         7.44372        0.470143 
         6.2361         7.39797         0.46712 
         6.2518         7.35081         0.46413 
        6.26748         7.30148        0.461172 
        6.28319         7.25932        0.458231 
        6.29893         7.19614        0.455314 
        6.31463         7.14783        0.452428 
        6.33033         7.09264        0.449567 
        6.34604         7.06872        0.446729 
        6.36177         7.01875        0.443913 
        6.37747         6.97916        0.441127 
