# k  (h/Mpc)    Pcb(k)  (Mpc/h)^3    Pcb_linear(k) (Mpc/h)^3   ShotnoiseSubtracted = true
      0.0200456         17096.4         17391.2 
      0.0350414         13587.5         13240.3 
      0.0492313         9666.69         9863.18 
      0.0637834         7878.61         8285.57 
      0.0800726         6283.07         6685.91 
       0.096163         5071.57         4944.54 
       0.111083         4159.78         3967.61 
       0.126058         3449.05            3521 
       0.142273         3028.34         3015.66 
       0.158546         2509.15         2410.65 
        0.17375         2232.44         2034.82 
       0.188953         2099.85         1842.09 
       0.204907         1813.11          1641.8 
       0.220756         1639.21         1401.43 
        0.23588         1465.67          1220.9 
         0.2514         1324.69          1108.7 
       0.267535         1285.46         1008.01 
       0.283568         1140.52         894.526 
       0.299022         1092.26         798.534 
       0.314451         1130.02         729.928 
       0.330372         989.272         671.508 
       0.346141         913.093         612.184 
       0.361624         877.739         557.674 
       0.377134         837.289         513.482 
       0.392932         806.935         475.976 
       0.408854         770.037         440.101 
       0.424564         752.269         406.533 
       0.440253         693.843         377.328 
       0.455999         664.961          352.04 
       0.471626         677.695          328.99 
        0.48727         641.527         307.302 
       0.502856         604.798         287.648 
       0.518488         597.224         270.095 
       0.534347         564.632          253.84 
       0.550082         542.122         238.844 
       0.565732         537.626         225.046 
       0.581496         526.035         212.373 
       0.597222         512.109         200.759 
       0.612804         501.942         190.079 
       0.628434         481.487         180.101 
       0.644267          466.01         170.746 
       0.660051         459.787         162.118 
       0.675724         452.967         154.146 
       0.691403         441.887         146.705 
       0.707174          426.65         139.716 
       0.722871         419.687         133.213 
        0.73838         414.825         127.195 
       0.754018         401.286         121.504 
       0.769845         398.234         116.102 
        0.78569         390.728         111.025 
       0.801365         378.798         106.303 
       0.817031         374.477         101.861 
       0.832809         369.568         97.6474 
       0.848511         361.202         93.6931 
       0.864097         353.382          89.987 
       0.879701         350.592         86.4797 
       0.895507         339.796         83.1196 
       0.911279         333.064         79.9467 
        0.92691         330.554         76.9672 
       0.942635         328.344         74.1244 
       0.958396         317.838         71.4205 
       0.974128         314.653         68.8576 
       0.989692         303.315         66.4469 
        1.00528         303.135          64.149 
        1.02113         298.386         61.9247 
        1.03692          292.36         59.8149 
        1.05264         287.983          57.814 
        1.06832         286.541         55.9086 
        1.08405         279.982         54.0846 
        1.09979          277.31         52.3417 
        1.11537         270.618         50.6934 
        1.13105         266.911         49.1069 
        1.14679         264.356         47.5827 
        1.16256         261.735         46.1208 
        1.17828         258.032         44.7256 
        1.19395         251.453         43.3933 
         1.2097         251.396         42.1089 
        1.22537         247.942         40.8831 
          1.241         242.378         39.7102 
        1.25666         239.871         38.5808 
        1.27241         235.649         37.4903 
        1.28819         232.872         36.4404 
        1.30392         229.861         35.4342 
        1.31957         224.543         34.4707 
        1.33529         221.836         33.5397 
        1.35108         220.562         32.6397 
        1.36674         215.879         31.7795 
         1.3824         214.159         30.9512 
        1.39811          211.56         30.1499 
        1.41389          206.68         29.3741 
        1.42964         204.764         28.6272 
        1.44531         202.451           27.91 
        1.46101         198.991         27.2161 
        1.47667         196.912         26.5479 
        1.49229         194.322         25.9042 
        1.50793         191.303         25.2812 
        1.52367         189.518         24.6748 
        1.53953         185.266         24.0844 
        1.55526         184.851         23.5181 
        1.57092         182.779         22.9725 
        1.58662          178.29         22.4431 
        1.60235         176.683         21.9294 
        1.61809         173.969         21.4316 
        1.63369         171.781         20.9538 
        1.64941         170.442         20.4873 
        1.66519         167.859         20.0333 
        1.68085         165.263         19.5964 
        1.69652         163.197         19.1725 
        1.71228         161.547         18.7589 
        1.72806         159.692         18.3571 
        1.74368         157.874         17.9713 
        1.75933          156.33         17.5958 
        1.77505         153.697         17.2294 
        1.79081         151.152         16.8728 
         1.8065         149.389         16.5279 
        1.82218         147.249          16.193 
        1.83797         146.785         15.8651 
        1.85367         144.356         15.5482 
        1.86928         142.762         15.2419 
        1.88497          141.06         14.9422 
        1.90073         139.754         14.6495 
        1.91647         137.525          14.365 
        1.93218         136.195         14.0887 
        1.94787         134.048           13.82 
        1.96363         133.196         13.5574 
        1.97935         131.425         13.3022 
        1.99499         130.543          13.055 
        2.01064         127.716         12.8138 
         2.0264         126.761         12.5772 
        2.04216         124.614         12.3467 
        2.05781         123.733         12.1235 
        2.07353         121.833          11.905 
        2.08928         120.501         11.6915 
        2.10499         119.181         11.4838 
        2.12065          118.54         11.2818 
        2.13633         117.322         11.0845 
        2.15211         115.329         10.8907 
        2.16785         113.734          10.702 
        2.18349         112.186         10.5191 
        2.19916         111.221         10.3401 
        2.21489         110.239         10.1646 
        2.23063          108.51         9.99317 
         2.2463          107.63         9.82646 
        2.26194         106.168         9.66398 
        2.27765         104.984         9.50436 
        2.29341         104.023         9.34795 
        2.30914          102.74          9.1954 
        2.32486         101.107         9.04635 
        2.34061         100.432         8.90038 
        2.35635         98.9811         8.75778 
        2.37203         97.6624          8.6188 
        2.38768         96.8156         8.48315 
        2.40339         96.2345         8.34994 
        2.41914         94.4222         8.21929 
        2.43483         93.6529         8.09192 
         2.4505         92.6605         7.96747 
        2.46622         91.7311         7.84522 
        2.48195         90.6244         7.72554 
        2.49759         89.5465         7.60901 
        2.51328         88.7273         7.49459 
        2.52906         86.9849         7.38181 
        2.54479         86.2843         7.27178 
        2.56049          85.404         7.16422 
        2.57618         84.3344         7.05893 
        2.59189         83.8733         6.95562 
        2.60758         82.4671         6.85454 
        2.62325         81.9247         6.75561 
        2.63898         80.9398         6.65829 
        2.65468         80.0647          6.5631 
        2.67044         79.1837         6.46937 
        2.68618         78.3586          6.3777 
        2.70184         77.1603         6.28818 
        2.71755         76.4834         6.20016 
        2.73329         75.5215          6.1137 
        2.74897         74.9996         6.02917 
        2.76462         74.3045         5.94644 
        2.78034         73.4225         5.86493 
        2.79607         72.7189         5.78486 
        2.81179         71.8239         5.70639 
        2.82749         71.3416         5.62947 
        2.84321         70.5854         5.55388 
        2.85893         69.7988         5.47971 
        2.87462         68.9584         5.40703 
        2.89033         68.1914         5.33561 
        2.90605         67.6965         5.26542 
        2.92176          66.815         5.19653 
        2.93747         66.0165         5.12892 
        2.95318         65.4718          5.0625 
        2.96891         64.7028         4.99723 
        2.98456         64.0717          4.9334 
        3.00023         63.3439         4.87061 
        3.01596         62.8762         4.80871 
        3.03164         62.2328         4.74807 
        3.04738         61.5225          4.6883 
         3.0631         60.6491         4.62959 
        3.07883          60.231         4.57189 
        3.09456         59.4448         4.51518 
        3.11026         58.8278         4.45952 
        3.12596         58.4487         4.40481 
        3.14163         57.6446         4.35115 
        3.15734          57.115         4.29826 
        3.17308         56.5814         4.24613 
        3.18879         56.0094         4.19501 
        3.20447         55.5497          4.1448 
         3.2202         54.8344         4.09527 
         3.2359         54.4294         4.04664 
        3.25157         53.8719         3.99891 
        3.26729         53.2935         3.95181 
        3.28304         52.8948         3.90539 
        3.29877         52.1618         3.85977 
        3.31446         51.8265         3.81498 
        3.33014         51.2548         3.77095 
        3.34585         50.7583         3.72755 
        3.36158         50.1977         3.68476 
        3.37727         49.8305         3.64279 
        3.39294         49.3153         3.60151 
        3.40867         48.9365         3.56072 
        3.42439         48.2579          3.5206 
        3.44008         47.9441         3.48116 
        3.45578         47.3187         3.44231 
        3.47153         46.9398         3.40397 
        3.48724         46.3862         3.36628 
        3.50292         45.9344         3.32925 
        3.51859         45.7118         3.29279 
        3.53431         45.1186         3.25677 
        3.55007         44.7495         3.22121 
        3.56577         44.4221         3.18632 
        3.58146         43.9551         3.15196 
        3.59719         43.5009         3.11803 
        3.61292         43.0701         3.08461 
        3.62859         42.8117         3.05181 
        3.64429         42.4969         3.01943 
        3.66003         41.9918         2.98742 
        3.67578         41.6779         2.95589 
        3.69146         41.2773         2.92493 
        3.70712         40.8621         2.89447 
        3.72284         40.4436         2.86434 
        3.73853         40.1362         2.83469 
        3.75422         39.7919         2.80545 
        3.76993         39.4885          2.7766 
        3.78564         39.0726         2.74816 
        3.80137         38.7108         2.72009 
        3.81707         38.3349         2.69246 
        3.83279         37.9932         2.66519 
        3.84853         37.6312         2.63826 
        3.86424         37.3523         2.61176 
        3.87992         36.9574         2.58566 
        3.89561         36.8234         2.55992 
        3.91134         36.3684         2.53448 
        3.92704         36.0315         2.50941 
        3.94273         35.7343         2.48471 
        3.95845         35.4397          2.4603 
        3.97418         35.0155         2.43621 
        3.98988         34.6605         2.41248 
        4.00554         34.3461         2.38913 
        4.02125         34.1483         2.36602 
        4.03698         33.8632         2.34318 
        4.05268         33.6289          2.3207 
        4.06839         33.1878          2.2985 
         4.0841         33.0355         2.27659 
        4.09983         32.5768         2.25494 
        4.11555         32.3682         2.23359 
        4.13124         32.2046         2.21256 
        4.14693         31.8402          2.1918 
        4.16266         31.5809         2.17125 
        4.17839         31.3785         2.15098 
        4.19408         31.0059         2.13101 
        4.20977         30.7559         2.11129 
        4.22551         30.6028         2.09177 
        4.24123          30.297         2.07252 
        4.25691         30.0149         2.05357 
        4.27259         29.7677         2.03485 
        4.28831         29.5155         2.01632 
        4.30404         29.2788         1.99801 
        4.31974         29.0025         1.97997 
        4.33543         28.8209         1.96216 
        4.35116         28.5693         1.94453 
        4.36688         28.3813         1.92712 
        4.38255         28.0833         1.90999 
        4.39825         27.8834         1.89303 
        4.41398         27.6545         1.87624 
         4.4297         27.4205         1.85968 
        4.44541         27.1251         1.84332 
        4.46111         26.9975         1.82717 
        4.47683         26.7067          1.8112 
        4.49251         26.5099         1.79546 
        4.50819          26.302         1.77991 
         4.5239         26.0235         1.76452 
        4.53962         25.8903          1.7493 
        4.55535         25.6231         1.73424 
        4.57106         25.4376         1.71939 
        4.58678         25.2161         1.70471 
         4.6025         25.0328          1.6902 
        4.61821         24.7984         1.67585 
        4.63391         24.6449          1.6617 
         4.6496         24.4834         1.64771 
        4.66532         24.2423         1.63387 
        4.68103         24.0409         1.62019 
        4.69673         23.9008         1.60668 
        4.71241         23.7415         1.59333 
        4.72811          23.485         1.58012 
        4.74384         23.3205         1.56704 
        4.75955         23.1047         1.55413 
        4.77525         22.9775         1.54137 
        4.79096         22.7763         1.52875 
        4.80669         22.5829         1.51625 
         4.8224         22.3874         1.50391 
        4.83809         22.2628         1.49173 
        4.85379         22.0657         1.47967 
         4.8695         21.8262         1.46773 
        4.88521         21.6931         1.45593 
        4.90093         21.5774         1.44426 
        4.91663         21.3691         1.43273 
        4.93234         21.1466         1.42131 
        4.94807         21.0658         1.41001 
        4.96377         20.8875         1.39885 
        4.97943         20.7275         1.38784 
        4.99514          20.578         1.37692 
        5.01086         20.4173         1.36611 
        5.02654         20.3183         1.35544 
        5.04227         20.0875         1.34486 
          5.058         19.9457         1.33438 
        5.07371         19.7963         1.32404 
        5.08942         19.6339          1.3138 
        5.10513           19.54         1.30368 
        5.12084         19.3522         1.29365 
        5.13656         19.2377         1.28373 
        5.15225         19.0539         1.27394 
        5.16796         18.9246         1.26423 
        5.18369         18.7894         1.25461 
         5.1994         18.6874         1.24511 
        5.21509         18.5435         1.23572 
        5.23079         18.3945         1.22641 
        5.24649         18.2559         1.21721 
        5.26217         18.1122         1.20811 
        5.27788         18.0025         1.19909 
        5.29359         17.8695         1.19016 
        5.30933         17.7233         1.18131 
        5.32504         17.5901         1.17256 
        5.34073         17.4545         1.16391 
        5.35646         17.3484         1.15533 
        5.37218         17.1906         1.14684 
        5.38789         17.0761         1.13845 
        5.40357         16.9672         1.13015 
        5.41929         16.8613         1.12191 
        5.43502         16.6984         1.11376 
         5.4507          16.613         1.10571 
        5.46639         16.4693         1.09773 
        5.48212          16.339         1.08982 
        5.49786         16.2401         1.08197 
        5.51353         16.1002         1.07424 
        5.52921         16.0072         1.06658 
        5.54495         15.9157         1.05898 
        5.56066         15.8042         1.05145 
        5.57637         15.6588           1.044 
        5.59207         15.5447         1.03663 
        5.60778         15.4327         1.02932 
        5.62346         15.3401          1.0221 
        5.63916          15.235         1.01494 
        5.65487         15.1489         1.00785 
         5.6706         15.0133         1.00081 
        5.68633         14.9145        0.993839 
        5.70203         14.7968         0.98695 
        5.71773         14.7062        0.980127 
        5.73344         14.5993        0.973365 
        5.74916         14.5361        0.966661 
        5.76486         14.3821         0.96003 
        5.78054         14.3033        0.953471 
        5.79626         14.2139        0.946955 
          5.812         14.1089        0.940494 
         5.8277         14.0008        0.934112 
        5.84339         13.8959         0.92779 
        5.85911         13.8121        0.921514 
        5.87484         13.7421        0.915297 
        5.89053          13.622         0.90915 
        5.90623         13.5361        0.903057 
        5.92195          13.415         0.89701 
        5.93767         13.3517        0.891021 
        5.95336         13.2619        0.885097 
        5.96905         13.1372         0.87923 
        5.98476          13.079        0.873407 
        6.00048         12.9943        0.867636 
        6.01617         12.8968        0.861924 
        6.03185         12.8147        0.856271 
        6.04756         12.6987        0.850655 
        6.06331         12.6426        0.845078 
        6.07903         12.5623        0.839563 
        6.09473         12.4584        0.834102 
        6.11044         12.3818        0.828685 
        6.12616         12.3047        0.823318 
        6.14186         12.1906        0.818003 
        6.15755         12.1423        0.812735 
        6.17326           12.06         0.80751 
        6.18898         11.9656        0.802329 
        6.20467         11.8908        0.797202 
        6.22036         11.8314        0.792121 
         6.2361         11.7539        0.787071 
         6.2518         11.6717        0.782073 
        6.26748         11.6047        0.777129 
        6.28319         11.5157        0.772215 
        6.29893           11.43        0.767339 
        6.31463         11.3671        0.762514 
        6.33033         11.2974        0.757731 
        6.34604         11.2185        0.752987 
        6.36177         11.1476        0.748279 
        6.37747         11.0834        0.743619 
