# k  (h/Mpc)    Pcb(k)  (Mpc/h)^3    Pcb_linear(k) (Mpc/h)^3   ShotnoiseSubtracted = true
      0.0200456         13045.4           13326 
      0.0350414         9781.07         10145.4 
      0.0492313         7448.97         7557.67 
      0.0637834         6451.19         6348.83 
      0.0800726         5172.77         5123.09 
       0.096163         3668.82         3788.76 
       0.111083         2937.31         3040.18 
       0.126058         2715.58         2697.97 
       0.142273         2362.03         2310.75 
       0.158546          2019.8         1847.17 
        0.17375          1622.7         1559.19 
       0.188953         1574.32         1411.51 
       0.204907         1487.79         1258.03 
       0.220756         1279.29         1073.84 
        0.23588         1131.68         935.514 
         0.2514         988.341         849.546 
       0.267535         976.037         772.386 
       0.283568         888.075         685.431 
       0.299022         832.652         611.877 
       0.314451         790.176         559.308 
       0.330372         729.305         514.544 
       0.346141          673.29         469.087 
       0.361624         646.925         427.319 
       0.377134         602.434         393.456 
       0.392932         578.891         364.717 
       0.408854         558.273         337.228 
       0.424564         527.796         311.506 
       0.440253         515.137         289.128 
       0.455999         487.194         269.751 
       0.471626         458.756         252.089 
        0.48727          446.11         235.471 
       0.502856         432.904         220.411 
       0.518488         428.689          206.96 
       0.534347         401.493         194.505 
       0.550082         382.437         183.015 
       0.565732          381.39         172.442 
       0.581496         360.176         162.731 
       0.597222         354.305         153.832 
       0.612804         343.189         145.648 
       0.628434         330.747         138.003 
       0.644267           321.3         130.834 
       0.660051         315.143         124.223 
       0.675724         310.857         118.114 
       0.691403         301.754         112.413 
       0.707174         290.503         107.058 
       0.722871         287.622         102.074 
        0.73838         282.927          97.463 
       0.754018         275.097         93.1029 
       0.769845         266.136         88.9632 
        0.78569         265.973         85.0728 
       0.801365         257.346         81.4547 
       0.817031         249.838         78.0513 
       0.832809         246.948         74.8224 
       0.848511         240.965         71.7925 
       0.864097          237.83         68.9527 
       0.879701          233.54         66.2652 
       0.895507          227.84         63.6905 
       0.911279         221.394         61.2592 
        0.92691         221.157         58.9762 
       0.942635          216.26         56.7979 
       0.958396         214.641         54.7261 
       0.974128         209.686         52.7622 
       0.989692           204.8          50.915 
        1.00528         202.271         49.1543 
        1.02113         201.105         47.4498 
        1.03692          195.03         45.8333 
        1.05264         191.508         44.3001 
        1.06832         188.388           42.84 
        1.08405         185.364         41.4424 
        1.09979         184.367         40.1069 
        1.11537         178.973         38.8439 
        1.13105         177.171         37.6282 
        1.14679         176.875         36.4603 
        1.16256         173.622         35.3401 
        1.17828         169.922          34.271 
        1.19395          167.84         33.2501 
         1.2097         166.415          32.266 
        1.22537         163.354         31.3267 
          1.241         161.267          30.428 
        1.25666         158.512         29.5626 
        1.27241         156.076          28.727 
        1.28819         154.389         27.9225 
        1.30392         152.552         27.1515 
        1.31957         151.028         26.4132 
        1.33529         147.264         25.6999 
        1.35108          146.27         25.0102 
        1.36674         145.074         24.3511 
         1.3824         141.958         23.7164 
        1.39811         141.782         23.1024 
        1.41389         138.897          22.508 
        1.42964          136.23         21.9356 
        1.44531         133.823         21.3861 
        1.46101         132.805         20.8543 
        1.47667         130.939         20.3424 
        1.49229         129.497         19.8491 
        1.50793         128.418         19.3717 
        1.52367         126.892         18.9071 
        1.53953         124.449         18.4547 
        1.55526         123.024         18.0208 
        1.57092         121.675         17.6027 
        1.58662         119.671          17.197 
        1.60235         119.112         16.8034 
        1.61809         116.917          16.422 
        1.63369         115.831         16.0559 
        1.64941         114.755         15.6984 
        1.66519         112.607         15.3505 
        1.68085         111.873         15.0158 
        1.69652         109.012          14.691 
        1.71228         109.413          14.374 
        1.72806         107.656         14.0662 
        1.74368         106.426         13.7705 
        1.75933         104.981         13.4828 
        1.77505         103.722          13.202 
        1.79081         102.428         12.9288 
         1.8065         101.273         12.6645 
        1.82218         99.2786         12.4079 
        1.83797         98.3876         12.1567 
        1.85367         97.2622         11.9138 
        1.86928         96.7985         11.6791 
        1.88497         94.7431         11.4495 
        1.90073          94.251         11.2252 
        1.91647         92.8101         11.0072 
        1.93218         91.8289         10.7955 
        1.94787         90.9571         10.5896 
        1.96363         89.4421         10.3884 
        1.97935         88.6088         10.1928 
        1.99499         87.5521         10.0034 
        2.01064         86.6517         9.81858 
         2.0264         85.0872         9.63728 
        2.04216         84.1578         9.46067 
        2.05781         83.3606         9.28962 
        2.07353         81.9355         9.12222 
        2.08928         80.8863          8.9586 
        2.10499          80.312         8.79946 
        2.12065         79.7861         8.64467 
        2.13633         78.5981          8.4935 
        2.15211         77.6876         8.34499 
        2.16785         76.8262         8.20046 
        2.18349         75.9426         8.06027 
        2.19916         75.0525         7.92309 
        2.21489         74.2917         7.78866 
        2.23063         73.5399         7.65728 
         2.2463         72.6688         7.52953 
        2.26194         72.0316         7.40503 
        2.27765         71.0898         7.28273 
        2.29341         70.2663         7.16288 
        2.30914         69.2108         7.04598 
        2.32486         68.3536         6.93178 
        2.34061         67.7009         6.81993 
        2.35635         67.2921         6.71066 
        2.37203         65.9976         6.60417 
        2.38768         65.5428         6.50022 
        2.40339         64.5417         6.39815 
        2.41914          64.204         6.29804 
        2.43483         63.8097         6.20044 
         2.4505         62.8652         6.10508 
        2.46622          62.187         6.01141 
        2.48195         61.4317          5.9197 
        2.49759         60.5256         5.83041 
        2.51328         60.0791         5.74274 
        2.52906         59.5695         5.65632 
        2.54479         58.8726         5.57201 
        2.56049         58.0731         5.48959 
        2.57618         57.5854         5.40892 
        2.59189         57.0222         5.32975 
        2.60758         56.5364          5.2523 
        2.62325         55.8443         5.17649 
        2.63898         55.2931         5.10192 
        2.65468         54.7393         5.02898 
        2.67044         53.9397         4.95716 
        2.68618          53.688         4.88692 
        2.70184         52.7844         4.81832 
        2.71755         52.7255         4.75088 
        2.73329         51.6617         4.68463 
        2.74897         51.2361         4.61986 
        2.76462         50.7555         4.55647 
        2.78034         50.3027         4.49401 
        2.79607         49.5576         4.43266 
        2.81179         49.1554         4.37253 
        2.82749         48.4087         4.31358 
        2.84321         48.1696         4.25567 
        2.85893         47.5817         4.19884 
        2.87462         46.9558         4.14314 
        2.89033         46.6305         4.08842 
        2.90605         45.9804         4.03463 
        2.92176         45.7148         3.98185 
        2.93747         45.2021         3.93004 
        2.95318         44.7528         3.87915 
        2.96891         43.9874         3.82913 
        2.98456         43.8991         3.78023 
        3.00023         43.3675         3.73211 
        3.01596         42.9777         3.68468 
        3.03164          42.416         3.63822 
        3.04738          42.131         3.59242 
         3.0631         41.5807         3.54743 
        3.07883         41.1989         3.50321 
        3.09456          40.822         3.45976 
        3.11026         40.2904         3.41711 
        3.12596         40.0123         3.37519 
        3.14163         39.5685         3.33407 
        3.15734          39.063         3.29355 
        3.17308         38.8725          3.2536 
        3.18879         38.4858         3.21443 
        3.20447         37.9431         3.17596 
         3.2202         37.5697         3.13801 
         3.2359         37.2463         3.10074 
        3.25157         36.8427         3.06417 
        3.26729         36.6225         3.02808 
        3.28304         36.2094         2.99251 
        3.29877         35.8516         2.95755 
        3.31446          35.586         2.92324 
        3.33014         35.2351          2.8895 
        3.34585         34.8436         2.85624 
        3.36158         34.5474         2.82346 
        3.37727          34.168         2.79129 
        3.39294          33.831         2.75966 
        3.40867         33.5455         2.72841 
        3.42439         33.1753         2.69766 
        3.44008         33.0322         2.66745 
        3.45578         32.4904         2.63767 
        3.47153         32.3044         2.60829 
        3.48724         31.8982         2.57941 
        3.50292         31.6438         2.55104 
        3.51859         31.3029         2.52311 
        3.53431         31.1221         2.49551 
        3.55007         30.8048         2.46826 
        3.56577         30.4933         2.44152 
        3.58146         30.3245         2.41519 
        3.59719         29.8934         2.38919 
        3.61292         29.6118         2.36359 
        3.62859         29.3747         2.33846 
        3.64429         29.0546         2.31364 
        3.66003         28.8575         2.28911 
        3.67578         28.5988         2.26495 
        3.69146         28.3275         2.24123 
        3.70712         28.0752         2.21789 
        3.72284         27.8719          2.1948 
        3.73853         27.5862         2.17208 
        3.75422         27.3335         2.14968 
        3.76993         27.1617         2.12757 
        3.78564         26.8314         2.10578 
        3.80137         26.6489         2.08427 
        3.81707         26.3719          2.0631 
        3.83279         26.0764         2.04221 
        3.84853         25.7829         2.02157 
        3.86424         25.5897         2.00127 
        3.87992         25.3905         1.98127 
        3.89561         25.1651         1.96154 
        3.91134         24.9472         1.94205 
        3.92704         24.7238         1.92284 
        3.94273         24.4316         1.90391 
        3.95845         24.2827         1.88521 
        3.97418         24.1016         1.86675 
        3.98988         23.8179         1.84856 
        4.00554         23.6574         1.83067 
        4.02125         23.4853         1.81296 
        4.03698         23.1807         1.79547 
        4.05268         23.0136         1.77824 
        4.06839         22.8154         1.76123 
         4.0841         22.6802         1.74444 
        4.09983         22.4927         1.72785 
        4.11555         22.2366         1.71149 
        4.13124         22.0274         1.69538 
        4.14693         21.7965         1.67947 
        4.16266         21.5973         1.66372 
        4.17839         21.4163         1.64819 
        4.19408         21.2452         1.63289 
        4.20977         21.1593         1.61778 
        4.22551         20.9273         1.60282 
        4.24123         20.7386         1.58807 
        4.25691           20.57         1.57355 
        4.27259         20.3902         1.55921 
        4.28831         20.2071         1.54501 
        4.30404          20.018         1.53098 
        4.31974         19.8351         1.51715 
        4.33543         19.7177         1.50351 
        4.35116         19.5972            1.49 
        4.36688           19.38         1.47666 
        4.38255          19.238         1.46353 
        4.39825         19.0883         1.45054 
        4.41398         18.9132         1.43767 
         4.4297         18.7355         1.42498 
        4.44541         18.6242         1.41245 
        4.46111         18.4335         1.40007 
        4.47683         18.3076         1.38784 
        4.49251         18.1676         1.37577 
        4.50819         17.9861         1.36386 
         4.5239         17.8845         1.35207 
        4.53962         17.6752          1.3404 
        4.55535         17.5766         1.32887 
        4.57106         17.3965         1.31749 
        4.58678         17.3084         1.30623 
         4.6025         17.1405         1.29511 
        4.61821          16.979         1.28413 
        4.63391         16.8957         1.27328 
         4.6496         16.6843         1.26256 
        4.66532         16.5459         1.25195 
        4.68103         16.4625         1.24147 
        4.69673         16.3644         1.23112 
        4.71241         16.1903         1.22089 
        4.72811         16.0537         1.21077 
        4.74384          15.937         1.20075 
        4.75955         15.8208         1.19086 
        4.77525         15.7045         1.18108 
        4.79096         15.5517          1.1714 
        4.80669         15.4595         1.16183 
         4.8224         15.2806         1.15238 
        4.83809         15.1794         1.14304 
        4.85379         15.0674          1.1338 
         4.8695         14.9908         1.12465 
        4.88521         14.8388         1.11561 
        4.90093         14.7685         1.10667 
        4.91663         14.6443         1.09783 
        4.93234         14.4725         1.08908 
        4.94807         14.3921         1.08042 
        4.96377         14.2726         1.07187 
        4.97943         14.1625         1.06344 
        4.99514         14.0503         1.05507 
        5.01086         13.9581         1.04678 
        5.02654         13.8491         1.03861 
        5.04227         13.7183          1.0305 
          5.058         13.6636         1.02247 
        5.07371         13.5454         1.01455 
        5.08942          13.441          1.0067 
        5.10513         13.3235        0.998944 
        5.12084         13.2158        0.991262 
        5.13656          13.121        0.983662 
        5.15225         13.0359        0.976156 
        5.16796          12.944        0.968715 
        5.18369         12.8093        0.961346 
         5.1994         12.7556        0.954068 
        5.21509         12.6379        0.946871 
        5.23079         12.5521        0.939741 
        5.24649         12.4723        0.932689 
        5.26217         12.3681        0.925715 
        5.27788         12.2607        0.918803 
        5.29359         12.2099         0.91196 
        5.30933         12.1183        0.905178 
        5.32504         12.0047        0.898476 
        5.34073         11.9315        0.891849 
        5.35646         11.8414        0.885276 
        5.37218         11.7486        0.878769 
        5.38789         11.6847        0.872337 
        5.40357         11.5965        0.865977 
        5.41929         11.4994        0.859667 
        5.43502         11.4459        0.853419 
         5.4507         11.3181        0.847249 
        5.46639         11.2576        0.841139 
        5.48212         11.1749        0.835075 
        5.49786         11.1169        0.829063 
        5.51353         11.0147        0.823141 
        5.52921         10.9354        0.817271 
        5.54495         10.8598        0.811441 
        5.56066         10.7639        0.805675 
        5.57637         10.6963        0.799965 
        5.59207         10.6321        0.794316 
        5.60778         10.5558         0.78872 
        5.62346         10.5012        0.783186 
        5.63916         10.4221        0.777699 
        5.65487         10.3323        0.772263 
         5.6706         10.2694        0.766872 
        5.68633         10.1961        0.761531 
        5.70203         10.1261        0.756252 
        5.71773          10.055        0.751024 
        5.73344         9.97455        0.745842 
        5.74916         9.89003        0.740705 
        5.76486         9.85163        0.735624 
        5.78054           9.771        0.730598 
        5.79626         9.70085        0.725605 
          5.812         9.63061        0.720655 
         5.8277         9.55842        0.715764 
        5.84339         9.52136         0.71092 
        5.85911         9.43396        0.706111 
        5.87484          9.3837        0.701347 
        5.89053         9.30879        0.696638 
        5.90623         9.24584        0.691969 
        5.92195         9.19462        0.687335 
        5.93767         9.11735        0.682746 
        5.95336         9.07853        0.678207 
        5.96905         8.99002        0.673711 
        5.98476         8.94288        0.669249 
        6.00048         8.87871        0.664827 
        6.01617         8.83689         0.66045 
        6.03185         8.76374        0.656119 
        6.04756         8.68927        0.651816 
        6.06331         8.64327        0.647542 
        6.07903         8.59017        0.643316 
        6.09473         8.52559        0.639132 
        6.11044         8.47491        0.634981 
        6.12616         8.41062        0.630868 
        6.14186          8.3613        0.626796 
        6.15755         8.29055        0.622759 
        6.17326         8.23527        0.618756 
        6.18898         8.20239        0.614785 
        6.20467         8.15407        0.610857 
        6.22036         8.07322        0.606964 
         6.2361         8.04743        0.603094 
         6.2518         7.98185        0.599264 
        6.26748         7.93008        0.595476 
        6.28319         7.86996        0.591711 
        6.29893          7.8326        0.587974 
        6.31463          7.7876        0.584277 
        6.33033         7.73426        0.580613 
        6.34604         7.67748        0.576977 
        6.36177         7.63047        0.573369 
        6.37747          7.5829        0.569799 
