# k  (h/Mpc)    Pcb(k)  (Mpc/h)^3    Pcb_linear(k) (Mpc/h)^3   ShotnoiseSubtracted = true
      0.0200456         7785.79          7932.3 
      0.0350414         5883.29         6039.03 
      0.0492313         4467.87          4498.7 
      0.0637834            3840         3779.14 
      0.0800726         3085.68         3049.52 
       0.096163         2206.04         2255.26 
       0.111083         1760.01         1809.67 
       0.126058         1620.67         1605.96 
       0.142273         1407.74         1375.47 
       0.158546         1171.88         1099.53 
        0.17375         948.301         928.105 
       0.188953         907.211         840.199 
       0.204907         855.039         748.844 
       0.220756         725.587         639.206 
        0.23588         637.513         556.864 
         0.2514         560.773         505.692 
       0.267535         540.517         459.763 
       0.283568         491.566         408.003 
       0.299022         455.708          364.22 
       0.314451         423.344         332.928 
       0.330372         392.139         306.282 
       0.346141          355.21         279.224 
       0.361624         339.823         254.361 
       0.377134         318.784         234.205 
       0.392932         297.217         217.098 
       0.408854         285.515         200.735 
       0.424564         273.687         185.424 
       0.440253         260.433         172.103 
       0.455999         245.765         160.569 
       0.471626         227.396         150.056 
        0.48727         221.964         140.164 
       0.502856         213.541         131.199 
       0.518488         209.543         123.193 
       0.534347         198.895         115.779 
       0.550082         185.674         108.939 
       0.565732         181.137         102.646 
       0.581496         172.983         96.8656 
       0.597222         168.001         91.5683 
       0.612804         160.862         86.6971 
       0.628434         157.043         82.1461 
       0.644267         151.782         77.8789 
       0.660051         149.296         73.9438 
       0.675724         145.451         70.3075 
       0.691403         141.041         66.9139 
       0.707174         135.265         63.7262 
       0.722871         133.714         60.7598 
        0.73838         131.122         58.0148 
       0.754018         125.638         55.4195 
       0.769845         123.218         52.9553 
        0.78569         120.458         50.6395 
       0.801365         117.203         48.4859 
       0.817031         113.125           46.46 
       0.832809         111.686          44.538 
       0.848511         108.332         42.7344 
       0.864097         105.426          41.044 
       0.879701         104.253         39.4443 
       0.895507         101.786         37.9118 
       0.911279         100.502         36.4645 
        0.92691         98.0484         35.1056 
       0.942635         95.6539         33.8089 
       0.958396         95.2629         32.5757 
       0.974128         92.7364         31.4067 
       0.989692         90.4741         30.3071 
        1.00528         88.7775          29.259 
        1.02113         87.4488         28.2445 
        1.03692         84.8576         27.2822 
        1.05264         84.5474         26.3696 
        1.06832         82.4429         25.5005 
        1.08405         81.4438         24.6686 
        1.09979         80.7086         23.8736 
        1.11537         77.8448         23.1218 
        1.13105         78.2066         22.3982 
        1.14679         76.7957          21.703 
        1.16256          75.533         21.0362 
        1.17828         73.5331         20.3998 
        1.19395         73.1473         19.7921 
         1.2097         71.1809         19.2063 
        1.22537         71.2894         18.6472 
          1.241         69.5109         18.1123 
        1.25666         68.2548         17.5971 
        1.27241         67.6866         17.0997 
        1.28819         66.3755         16.6209 
        1.30392         65.3016         16.1619 
        1.31957         64.7669         15.7224 
        1.33529         63.7812         15.2978 
        1.35108         63.3838         14.8873 
        1.36674          62.432          14.495 
         1.3824          61.058         14.1172 
        1.39811         60.7542         13.7517 
        1.41389         59.7075         13.3979 
        1.42964         58.9304         13.0572 
        1.44531          58.106         12.7301 
        1.46101          57.056         12.4135 
        1.47667         56.9325         12.1088 
        1.49229         56.1846         11.8152 
        1.50793          55.312          11.531 
        1.52367         54.5579         11.2544 
        1.53953         54.0959         10.9851 
        1.55526         53.3157         10.7269 
        1.57092         52.9672          10.478 
        1.58662         52.2146         10.2365 
        1.60235         51.6394         10.0022 
        1.61809         50.8075         9.77519 
        1.63369         50.0413         9.55726 
        1.64941          49.432         9.34446 
        1.66519         48.7969         9.13741 
        1.68085         48.4116         8.93814 
        1.69652         47.7759          8.7448 
        1.71228         47.4755         8.55612 
        1.72806         46.9122         8.37288 
        1.74368         46.2459         8.19689 
        1.75933         45.7784         8.02563 
        1.77505         45.3613          7.8585 
        1.79081         44.6976         7.69586 
         1.8065         44.2447         7.53854 
        1.82218         43.7744         7.38579 
        1.83797          43.231         7.23625 
        1.85367         42.5855          7.0917 
        1.86928          42.345         6.95198 
        1.88497         41.8534          6.8153 
        1.90073         41.5065          6.6818 
        1.91647         41.0172         6.55203 
        1.93218         40.5036         6.42599 
        1.94787         40.1301         6.30347 
        1.96363         39.7076         6.18368 
        1.97935         39.2723         6.06727 
        1.99499         38.7812         5.95453 
        2.01064         38.5024          5.8445 
         2.0264         37.9323         5.73658 
        2.04216          37.413         5.63146 
        2.05781         37.0656         5.52964 
        2.07353         36.7165            5.43 
        2.08928         36.5997          5.3326 
        2.10499           36.14         5.23787 
        2.12065         35.6423         5.14574 
        2.13633         35.4652         5.05575 
        2.15211         34.8013         4.96735 
        2.16785         34.3878         4.88132 
        2.18349         34.2662         4.79788 
        2.19916         33.9558         4.71622 
        2.21489          33.382          4.6362 
        2.23063         33.1989         4.55799 
         2.2463         32.9077         4.48195 
        2.26194         32.5318         4.40784 
        2.27765         32.2127         4.33504 
        2.29341         31.8856          4.2637 
        2.30914         31.6915         4.19412 
        2.32486         31.2008         4.12614 
        2.34061         31.0317         4.05956 
        2.35635         30.6784         3.99452 
        2.37203         30.4101         3.93113 
        2.38768         30.0744         3.86926 
        2.40339         29.9568          3.8085 
        2.41914         29.5692         3.74891 
        2.43483         29.1656         3.69081 
         2.4505         28.9381         3.63405 
        2.46622         28.6954         3.57829 
        2.48195         28.4089          3.5237 
        2.49759         28.1402         3.47055 
        2.51328         27.8355         3.41836 
        2.52906         27.6564         3.36692 
        2.54479         27.2846         3.31674 
        2.56049         26.9712         3.26768 
        2.57618         26.7032         3.21966 
        2.59189         26.5412         3.17253 
        2.60758          26.375         3.12643 
        2.62325          25.957          3.0813 
        2.63898         25.9084         3.03692 
        2.65468         25.5284          2.9935 
        2.67044         25.3008         2.95075 
        2.68618         25.0347         2.90894 
        2.70184          24.862          2.8681 
        2.71755         24.6568         2.82796 
        2.73329         24.3966         2.78852 
        2.74897         24.0706         2.74997 
        2.76462          24.021         2.71224 
        2.78034         23.7694         2.67506 
        2.79607         23.5095         2.63854 
        2.81179         23.3342         2.60274 
        2.82749         23.0951         2.56766 
        2.84321         22.9124         2.53318 
        2.85893         22.6379         2.49936 
        2.87462         22.4186          2.4662 
        2.89033         22.3019         2.43363 
        2.90605          22.154         2.40161 
        2.92176         21.8106         2.37019 
        2.93747         21.7431         2.33935 
        2.95318         21.4447         2.30906 
        2.96891         21.2859         2.27929 
        2.98456         21.0301         2.25018 
        3.00023         20.9237         2.22154 
        3.01596         20.7238          2.1933 
        3.03164         20.5334         2.16565 
        3.04738         20.3129         2.13839 
         3.0631         20.1387         2.11161 
        3.07883         19.9839         2.08529 
        3.09456          19.822         2.05942 
        3.11026         19.6653         2.03403 
        3.12596         19.4319         2.00908 
        3.14163         19.3573         1.98461 
        3.15734         19.0816         1.96048 
        3.17308         18.9393          1.9367 
        3.18879         18.7822         1.91339 
        3.20447         18.6145         1.89049 
         3.2202         18.4058          1.8679 
         3.2359         18.2869         1.84571 
        3.25157         18.1915         1.82395 
        3.26729         18.0286         1.80247 
        3.28304         17.8271         1.78129 
        3.29877         17.6257         1.76048 
        3.31446         17.4772         1.74006 
        3.33014         17.3404         1.71997 
        3.34585         17.1221         1.70017 
        3.36158         17.0418         1.68066 
        3.37727          16.855         1.66152 
        3.39294         16.6789         1.64269 
        3.40867         16.5703         1.62408 
        3.42439         16.3982         1.60578 
        3.44008          16.306          1.5878 
        3.45578         16.1727         1.57007 
        3.47153         16.0416         1.55259 
        3.48724         15.9145         1.53539 
        3.50292         15.7319          1.5185 
        3.51859         15.6325         1.50188 
        3.53431         15.4972         1.48545 
        3.55007         15.3702         1.46923 
        3.56577         15.2477         1.45331 
        3.58146         15.1341         1.43764 
        3.59719         14.9314         1.42217 
        3.61292          14.869         1.40693 
        3.62859         14.6939         1.39197 
        3.64429         14.5643         1.37719 
        3.66003         14.4745         1.36259 
        3.67578         14.3916         1.34821 
        3.69146         14.2197         1.33409 
        3.70712         14.0913          1.3202 
        3.72284         14.0127         1.30646 
        3.73853         13.8422         1.29293 
        3.75422         13.7638          1.2796 
        3.76993         13.6491         1.26644 
        3.78564         13.4988         1.25347 
        3.80137         13.3866         1.24066 
        3.81707         13.2573         1.22806 
        3.83279         13.1615         1.21562 
        3.84853         13.0776         1.20334 
        3.86424         12.8945         1.19125 
        3.87992         12.8567         1.17935 
        3.89561         12.7557         1.16761 
        3.91134         12.6857           1.156 
        3.92704         12.5052         1.14457 
        3.94273         12.4198          1.1333 
        3.95845         12.3521         1.12217 
        3.97418         12.2461         1.11118 
        3.98988          12.121         1.10036 
        4.00554         12.0453         1.08971 
        4.02125         11.8831         1.07917 
        4.03698         11.8532         1.06875 
        4.05268         11.7359          1.0585 
        4.06839         11.6331         1.04837 
         4.0841         11.5629         1.03838 
        4.09983         11.4285          1.0285 
        4.11555         11.3414         1.01876 
        4.13124         11.2518         1.00917 
        4.14693         11.1737        0.999702 
        4.16266         11.0918         0.99033 
        4.17839         10.9764        0.981084 
        4.19408         10.9078        0.971977 
        4.20977         10.8034        0.962983 
        4.22551         10.7545        0.954081 
        4.24123         10.6676        0.945301 
        4.25691         10.5543        0.936656 
        4.27259         10.4764        0.928116 
        4.28831         10.3996        0.919667 
        4.30404         10.3051        0.911315 
        4.31974         10.2351        0.903085 
        4.33543         10.1304        0.894962 
        4.35116         10.0485        0.886919 
        4.36688         9.99116        0.878979 
        4.38255          9.9214        0.871166 
        4.39825         9.83412        0.863431 
        4.41398         9.75537        0.855775 
         4.4297          9.6763        0.848221 
        4.44541         9.60743        0.840759 
        4.46111         9.53215        0.833393 
        4.47683         9.46973         0.82611 
        4.49251         9.37162        0.818929 
        4.50819         9.31357        0.811836 
         4.5239          9.2565        0.804817 
        4.53962         9.18607        0.797873 
        4.55535         9.08239        0.791007 
        4.57106         9.02802        0.784232 
        4.58678         8.93358        0.777536 
         4.6025         8.87561        0.770916 
        4.61821         8.81927        0.764375 
        4.63391         8.76665        0.757918 
         4.6496         8.67632        0.751539 
        4.66532         8.60683        0.745224 
        4.68103         8.54631        0.738984 
        4.69673         8.48788        0.732822 
        4.71241         8.44069        0.726736 
        4.72811         8.35199         0.72071 
        4.74384         8.29814        0.714745 
        4.75955         8.23724        0.708856 
        4.77525         8.17054        0.703037 
        4.79096         8.11393        0.697277 
        4.80669         8.06396        0.691579 
         4.8224         8.01286        0.685951 
        4.83809         7.91391        0.680392 
        4.85379         7.85469        0.674891 
         4.8695         7.80694        0.669447 
        4.88521         7.75181        0.664065 
        4.90093         7.70551        0.658742 
        4.91663          7.6341        0.653483 
        4.93234         7.56775        0.648275 
        4.94807         7.51672        0.643121 
        4.96377         7.46866        0.638032 
        4.97943         7.41415         0.63301 
        4.99514         7.36635        0.628029 
        5.01086         7.31563        0.623097 
        5.02654         7.23415        0.618232 
        5.04227         7.19883        0.613404 
          5.058         7.16575        0.608626 
        5.07371         7.11021        0.603908 
        5.08942         7.04439         0.59924 
        5.10513         6.98456        0.594621 
        5.12084         6.94504        0.590048 
        5.13656         6.89958        0.585525 
        5.15225          6.8462        0.581056 
        5.16796         6.79555        0.576627 
        5.18369         6.74971        0.572241 
         5.1994         6.70027        0.567908 
        5.21509         6.64979        0.563625 
        5.23079         6.60855         0.55938 
        5.24649           6.562        0.555183 
        5.26217         6.51419        0.551032 
        5.27788         6.47457        0.546917 
        5.29359         6.42223        0.542844 
        5.30933         6.38464        0.538807 
        5.32504         6.33241        0.534817 
        5.34073         6.28936        0.530873 
        5.35646         6.24334         0.52696 
        5.37218         6.19923        0.523087 
        5.38789         6.17907        0.519258 
        5.40357         6.11654        0.515473 
        5.41929         6.08031        0.511717 
        5.43502         6.03628        0.507998 
         5.4507         6.00338        0.504325 
        5.46639         5.93794        0.500687 
        5.48212         5.89731        0.497078 
        5.49786          5.8874          0.4935 
        5.51353         5.81674        0.489974 
        5.52921         5.79929         0.48648 
        5.54495         5.75758         0.48301 
        5.56066         5.71307        0.479578 
        5.57637         5.67344        0.476179 
        5.59207         5.62714        0.472817 
        5.60778         5.59845        0.469485 
        5.62346         5.55237        0.466191 
        5.63916         5.52931        0.462925 
        5.65487          5.4752        0.459689 
         5.6706         5.45345         0.45648 
        5.68633          5.4152        0.453301 
        5.70203         5.37251        0.450158 
        5.71773          5.3455        0.447046 
        5.73344         5.30499        0.443962 
        5.74916         5.27442        0.440905 
        5.76486         5.23297         0.43788 
        5.78054         5.19749        0.434888 
        5.79626          5.1591        0.431916 
          5.812          5.1292        0.428969 
         5.8277          5.0952        0.426058 
        5.84339         5.07044        0.423175 
        5.85911         5.03922        0.420312 
        5.87484         4.99705        0.417477 
        5.89053         4.97165        0.414673 
        5.90623         4.94399        0.411894 
        5.92195         4.89389        0.409136 
        5.93767         4.87084        0.406404 
        5.95336          4.8395        0.403702 
        5.96905         4.80629        0.401026 
        5.98476          4.7831         0.39837 
        6.00048         4.74066        0.395738 
        6.01617         4.72363        0.393133 
        6.03185         4.68763        0.390554 
        6.04756         4.65845        0.387993 
        6.06331          4.6316        0.385449 
        6.07903         4.59779        0.382934 
        6.09473         4.56335        0.380443 
        6.11044         4.53215        0.377972 
        6.12616         4.52473        0.375524 
        6.14186         4.47816          0.3731 
        6.15755         4.45968        0.370697 
        6.17326         4.43815        0.368314 
        6.18898         4.40212        0.365951 
        6.20467         4.37332        0.363613 
        6.22036         4.35199        0.361295 
         6.2361          4.3281        0.358991 
         6.2518         4.30687        0.356712 
        6.26748         4.27365        0.354457 
        6.28319         4.24408        0.352215 
        6.29893         4.21531        0.349992 
        6.31463          4.1972        0.347791 
        6.33033         4.17058        0.345609 
        6.34604         4.13883        0.343445 
        6.36177         4.12126        0.341298 
        6.37747          4.0877        0.339173 
