# k  (h/Mpc)    Pcb(k)  (Mpc/h)^3    Pcb_linear(k) (Mpc/h)^3   ShotnoiseSubtracted = true
      0.0200456         15830.7           16098 
      0.0350414         12570.8         12255.7 
      0.0492313         8963.62         9129.76 
      0.0637834         7309.49         7669.46 
      0.0800726         5832.62         6188.75 
       0.096163         4694.43         4576.86 
       0.111083         3849.37         3672.58 
       0.126058            3195         3259.18 
       0.142273         2799.89         2791.41 
       0.158546         2320.39          2231.4 
        0.17375         2058.58         1883.52 
       0.188953         1930.42         1705.12 
       0.204907          1665.2         1519.72 
       0.220756         1504.11         1297.22 
        0.23588         1344.06         1130.11 
         0.2514         1212.53         1026.26 
       0.267535         1177.84         933.052 
       0.283568         1042.21         828.009 
       0.299022         998.057         739.155 
       0.314451         1028.95         675.651 
       0.330372         896.546         621.575 
       0.346141         828.712         566.662 
       0.361624         796.231         516.206 
       0.377134         757.324           475.3 
       0.392932         731.225         440.582 
       0.408854         697.198         407.375 
       0.424564         679.801         376.303 
       0.440253         624.642          349.27 
       0.455999         598.909         325.863 
       0.471626         609.573         304.526 
        0.48727         577.288         284.452 
       0.502856         540.849         266.259 
       0.518488         536.703         250.011 
       0.534347         504.833         234.964 
       0.550082         485.955         221.084 
       0.565732         482.364         208.311 
       0.581496         470.467         196.581 
       0.597222         457.567         185.831 
       0.612804         448.203         175.945 
       0.628434         429.998         166.709 
       0.644267         415.145         158.049 
       0.660051         409.281         150.063 
       0.675724         403.909         142.684 
       0.691403         393.784         135.796 
       0.707174         379.801         129.327 
       0.722871         373.751         123.307 
        0.73838         369.736         117.736 
       0.754018         356.394         112.469 
       0.769845         354.271         107.469 
        0.78569         347.393         102.769 
       0.801365         337.576         98.3983 
       0.817031         332.471         94.2869 
       0.832809         328.118         90.3864 
       0.848511          320.18         86.7261 
       0.864097         313.183         83.2956 
       0.879701         310.998         80.0491 
       0.895507         302.213         76.9389 
       0.911279         295.033         74.0019 
        0.92691          292.96         71.2439 
       0.942635          291.08         68.6126 
       0.958396         282.558         66.1097 
       0.974128         279.032         63.7374 
       0.989692         269.251         61.5059 
        1.00528         268.912         59.3789 
        1.02113         264.957           57.32 
        1.03692          259.12         55.3671 
        1.05264         255.344          53.515 
        1.06832         254.749         51.7512 
        1.08405         247.948         50.0629 
        1.09979         246.375         48.4496 
        1.11537         240.731         46.9239 
        1.13105         237.101         45.4553 
        1.14679         235.071         44.0445 
        1.16256         232.301         42.6913 
        1.17828         229.365         41.3998 
        1.19395         223.269         40.1666 
         1.2097         223.052         38.9777 
        1.22537         220.835         37.8431 
          1.241         215.701         36.7574 
        1.25666         212.994         35.7119 
        1.27241          208.91         34.7025 
        1.28819         207.012         33.7308 
        1.30392         203.711         32.7993 
        1.31957          199.46         31.9075 
        1.33529         197.161         31.0457 
        1.35108         195.446         30.2127 
        1.36674         192.093         29.4164 
         1.3824         190.407         28.6497 
        1.39811          187.25          27.908 
        1.41389         184.222         27.1899 
        1.42964         181.903         26.4985 
        1.44531         179.875         25.8346 
        1.46101         176.498         25.1923 
        1.47667         175.491         24.5738 
        1.49229         172.858          23.978 
        1.50793          169.99         23.4013 
        1.52367         168.507           22.84 
        1.53953         165.055         22.2935 
        1.55526         164.703         21.7693 
        1.57092          162.44         21.2643 
        1.58662         158.685         20.7742 
        1.60235         157.269         20.2987 
        1.61809         155.001          19.838 
        1.63369         153.325         19.3957 
        1.64941         152.216         18.9638 
        1.66519         149.597         18.5436 
        1.68085         147.469         18.1393 
        1.69652         145.894         17.7469 
        1.71228         144.705          17.364 
        1.72806         142.743         16.9921 
        1.74368         140.835         16.6349 
        1.75933         139.615         16.2874 
        1.77505          137.11         15.9482 
        1.79081         135.461         15.6181 
         1.8065         133.363         15.2989 
        1.82218         131.751         14.9889 
        1.83797         131.436         14.6854 
        1.85367         129.004          14.392 
        1.86928         128.183         14.1085 
        1.88497         126.258         13.8311 
        1.90073          125.19         13.5602 
        1.91647         123.227         13.2968 
        1.93218         121.926          13.041 
        1.94787         120.086         12.7924 
        1.96363         119.211         12.5493 
        1.97935         117.786          12.313 
        1.99499         116.939         12.0842 
        2.01064         114.347          11.861 
         2.0264         113.685         11.6419 
        2.04216         111.398         11.4286 
        2.05781         110.881          11.222 
        2.07353         109.265         11.0198 
        2.08928         107.844         10.8221 
        2.10499         106.676         10.6298 
        2.12065         106.273         10.4429 
        2.13633         104.949         10.2602 
        2.15211          103.27         10.0808 
        2.16785         101.836         9.90625 
        2.18349         100.409         9.73691 
        2.19916          99.524         9.57119 
        2.21489         98.4063          9.4088 
        2.23063         97.2092         9.25008 
         2.2463         96.5022         9.09577 
        2.26194         95.1304         8.94537 
        2.27765         94.1287         8.79762 
        2.29341           93.19         8.65284 
        2.30914         91.9958         8.51163 
        2.32486         90.3037         8.37367 
        2.34061         89.7715         8.23855 
        2.35635         88.5964         8.10655 
        2.37203         87.4881         7.97791 
        2.38768         86.6685         7.85235 
        2.40339         85.8277         7.72904 
        2.41914         84.6015         7.60811 
        2.43483         83.8728         7.49021 
         2.4505          82.732         7.37501 
        2.46622         82.1274         7.26185 
        2.48195         81.0218         7.15107 
        2.49759         80.0531         7.04321 
        2.51328         79.2129         6.93729 
        2.52906          77.943          6.8329 
        2.54479         77.3017         6.73105 
        2.56049         76.5666         6.63149 
        2.57618          75.459         6.53404 
        2.59189         75.0028          6.4384 
        2.60758         74.0353         6.34484 
        2.62325          73.188         6.25326 
        2.63898         72.3309         6.16318 
        2.65468         71.7006         6.07507 
        2.67044         70.9775         5.98831 
        2.68618         70.1558         5.90346 
        2.70184         69.2061         5.82059 
        2.71755          68.436         5.73912 
        2.73329          67.882         5.65908 
        2.74897         67.3217         5.58085 
        2.76462         66.7964         5.50427 
        2.78034         65.9356         5.42881 
        2.79607         65.0587          5.3547 
        2.81179         64.2267         5.28206 
        2.82749         63.8028         5.21086 
        2.84321         63.3136          5.1409 
        2.85893         62.5085         5.07224 
        2.87462         61.7433         5.00497 
        2.89033         60.9729         4.93885 
        2.90605         60.4856         4.87388 
        2.92176         59.8633         4.81012 
        2.93747           59.04         4.74753 
        2.95318         58.6762         4.68605 
        2.96891          57.958         4.62564 
        2.98456         57.3461         4.56656 
        3.00023         56.6113         4.50843 
        3.01596         56.1774         4.45114 
        3.03164         55.6723         4.39501 
        3.04738         55.0819         4.33968 
         3.0631         54.3537         4.28534 
        3.07883         53.9331         4.23192 
        3.09456         53.1888         4.17943 
        3.11026         52.6868         4.12791 
        3.12596         52.2862         4.07727 
        3.14163         51.7194          4.0276 
        3.15734         51.1355         3.97865 
        3.17308         50.8409         3.93039 
        3.18879         50.3095         3.88307 
        3.20447         49.7267          3.8366 
         3.2202          49.224         3.79075 
         3.2359         48.8491         3.74573 
        3.25157         48.2409         3.70155 
        3.26729         47.7855         3.65796 
        3.28304         47.4027         3.61499 
        3.29877          46.706         3.57276 
        3.31446         46.4269          3.5313 
        3.33014         45.9737         3.49054 
        3.34585         45.4559         3.45037 
        3.36158         45.0148         3.41077 
        3.37727         44.5594         3.37191 
        3.39294         44.1007          3.3337 
        3.40867         43.7244         3.29595 
        3.42439         43.2759         3.25881 
        3.44008         42.9243         3.22231 
        3.45578         42.4053         3.18634 
        3.47153         42.1141         3.15085 
        3.48724         41.6161         3.11596 
        3.50292         41.2568         3.08169 
        3.51859         40.9804         3.04794 
        3.53431         40.5532          3.0146 
        3.55007          40.034         2.98168 
        3.56577         39.8695         2.94938 
        3.58146         39.4085         2.91758 
        3.59719         38.9286         2.88617 
        3.61292          38.645         2.85524 
        3.62859         38.1974         2.82488 
        3.64429         38.0233         2.79491 
        3.66003         37.5829         2.76528 
        3.67578         37.2292         2.73609 
        3.69146         36.9587         2.70743 
        3.70712         36.5142         2.67924 
        3.72284         36.2272         2.65135 
        3.73853          35.957          2.6239 
        3.75422         35.6296         2.59684 
        3.76993         35.2915         2.57013 
        3.78564         34.9411         2.54381 
        3.80137         34.7283         2.51782 
        3.81707         34.3336         2.49225 
        3.83279         33.9915         2.46701 
        3.84853         33.7013         2.44208 
        3.86424          33.323         2.41755 
        3.87992         33.0263         2.39339 
        3.89561         32.8872         2.36957 
        3.91134         32.6107         2.34602 
        3.92704         32.1636         2.32281 
        3.94273         31.8862         2.29995 
        3.95845         31.7475         2.27735 
        3.97418         31.3415         2.25505 
        3.98988         31.0307         2.23309 
        4.00554         30.7206         2.21147 
        4.02125         30.5692         2.19008 
        4.03698         30.3505         2.16894 
        4.05268         30.0097         2.14813 
        4.06839         29.6795         2.12758 
         4.0841         29.5675         2.10731 
        4.09983         29.1663         2.08727 
        4.11555         28.9458          2.0675 
        4.13124         28.8038         2.04804 
        4.14693          28.453         2.02882 
        4.16266         28.2339          2.0098 
        4.17839         28.1214         1.99103 
        4.19408         27.7585         1.97255 
        4.20977           27.54          1.9543 
        4.22551         27.3648         1.93623 
        4.24123         27.0656         1.91841 
        4.25691         26.8022         1.90087 
        4.27259         26.6506         1.88354 
        4.28831         26.3975         1.86639 
        4.30404         26.1607         1.84944 
        4.31974         25.9079         1.83274 
        4.33543         25.7359         1.81625 
        4.35116         25.4907         1.79993 
        4.36688         25.2975         1.78382 
        4.38255         25.0771         1.76796 
        4.39825         24.9041         1.75226 
        4.41398         24.6576         1.73673 
         4.4297         24.4507          1.7214 
        4.44541         24.1541         1.70625 
        4.46111         24.0566          1.6913 
        4.47683         23.7984         1.67652 
        4.49251         23.6625         1.66195 
        4.50819         23.4943         1.64756 
         4.5239         23.2502         1.63331 
        4.53962         23.1177         1.61922 
        4.55535         22.8671         1.60529 
        4.57106         22.7547         1.59154 
        4.58678         22.5581         1.57795 
         4.6025         22.2906         1.56451 
        4.61821         22.1545         1.55124 
        4.63391         22.0426         1.53814 
         4.6496         21.8128         1.52519 
        4.66532          21.619         1.51237 
        4.68103         21.4627         1.49971 
        4.69673         21.2987          1.4872 
        4.71241          21.176         1.47485 
        4.72811         20.9838         1.46262 
        4.74384         20.7811         1.45052 
        4.75955         20.6319         1.43857 
        4.77525         20.4768         1.42676 
        4.79096         20.2666         1.41507 
        4.80669         20.1388          1.4035 
         4.8224          19.932         1.39208 
        4.83809         19.8213          1.3808 
        4.85379         19.6772         1.36964 
         4.8695         19.5264         1.35859 
        4.88521         19.3805         1.34767 
        4.90093         19.2367         1.33687 
        4.91663         19.0403         1.32619 
        4.93234         18.9015         1.31562 
        4.94807         18.8087         1.30516 
        4.96377           18.65         1.29484 
        4.97943         18.4739         1.28464 
        4.99514         18.3356         1.27453 
        5.01086          18.238         1.26453 
        5.02654         18.0857         1.25465 
        5.04227         17.8661         1.24486 
          5.058         17.8284         1.23516 
        5.07371         17.6232         1.22558 
        5.08942         17.5578         1.21611 
        5.10513         17.4303         1.20674 
        5.12084         17.2664         1.19746 
        5.13656          17.157         1.18828 
        5.15225         17.0072         1.17921 
        5.16796         16.8304         1.17022 
        5.18369         16.7681         1.16132 
         5.1994         16.6532         1.15253 
        5.21509         16.5186         1.14383 
        5.23079          16.394         1.13522 
        5.24649         16.2783          1.1267 
        5.26217         16.1532         1.11827 
        5.27788           15.99         1.10992 
        5.29359         15.8786         1.10166 
        5.30933         15.8083         1.09347 
        5.32504         15.6828         1.08537 
        5.34073         15.5447         1.07736 
        5.35646         15.4328         1.06942 
        5.37218         15.3173         1.06156 
        5.38789         15.1829         1.05379 
        5.40357         15.1408         1.04611 
        5.41929         14.9925         1.03849 
        5.43502         14.8847         1.03094 
         5.4507         14.7882         1.02349 
        5.46639         14.6405         1.01611 
        5.48212         14.5495         1.00878 
        5.49786         14.4808         1.00152 
        5.51353         14.3345        0.994364 
        5.52921         14.2947        0.987273 
        5.54495         14.1723        0.980231 
        5.56066         14.0435        0.973265 
        5.57637         13.9416        0.966368 
        5.59207         13.8422        0.959544 
        5.60778         13.7464        0.952783 
        5.62346         13.6268        0.946097 
        5.63916         13.5572         0.93947 
        5.65487         13.4803        0.932902 
         5.6706         13.3682         0.92639 
        5.68633         13.2501        0.919938 
        5.70203         13.1702        0.913561 
        5.71773         13.0808        0.907245 
        5.73344         12.9847        0.900986 
        5.74916         12.9292        0.894781 
        5.76486         12.8204        0.888642 
        5.78054         12.7334        0.882571 
        5.79626         12.6682         0.87654 
          5.812          12.523        0.870559 
         5.8277         12.4569        0.864652 
        5.84339         12.3666          0.8588 
        5.85911         12.2889         0.85299 
        5.87484         12.1915        0.847236 
        5.89053         12.1016        0.841546 
        5.90623         12.0128        0.835906 
        5.92195         11.9444        0.830309 
        5.93767         11.8887        0.824765 
        5.95336         11.7696        0.819282 
        5.96905         11.7162        0.813851 
        5.98476         11.6291        0.808461 
        6.00048         11.5685        0.803119 
        6.01617         11.4525        0.797832 
        6.03185          11.397        0.792599 
        6.04756          11.294        0.787401 
        6.06331         11.2529        0.782239 
        6.07903         11.1513        0.777134 
        6.09473         11.0878        0.772079 
        6.11044         11.0104        0.767065 
        6.12616         10.9458        0.762096 
        6.14186         10.8544        0.757176 
        6.15755         10.8063        0.752301 
        6.17326         10.7249        0.747464 
        6.18898         10.6461        0.742668 
        6.20467         10.5776        0.737923 
        6.22036         10.5055        0.733219 
         6.2361         10.4401        0.728545 
         6.2518         10.3787        0.723918 
        6.26748         10.3106        0.719342 
        6.28319         10.2463        0.714793 
        6.29893         10.1832         0.71028 
        6.31463         10.1108        0.705813 
        6.33033         10.0443        0.701387 
        6.34604         9.97872        0.696995 
        6.36177         9.90077        0.692637 
        6.37747          9.8282        0.688324 
