# k  (h/Mpc)    Pcb(k)  (Mpc/h)^3    Pcb_linear(k) (Mpc/h)^3   ShotnoiseSubtracted = true
      0.0200456         3488.02         3545.38 
      0.0350414         2657.74         2699.17 
      0.0492313         2009.34         2010.71 
      0.0637834         1711.68          1689.1 
      0.0800726         1377.59         1362.99 
       0.096163         996.019            1008 
       0.111083          794.28         808.839 
       0.126058         723.769         717.792 
       0.142273         626.124         614.774 
       0.158546         509.355         491.437 
        0.17375          417.55         414.821 
       0.188953         390.881         375.531 
       0.204907         364.641         334.699 
       0.220756         306.572         285.696 
        0.23588         268.087         248.893 
         0.2514         238.479         226.021 
       0.267535         223.173         205.493 
       0.283568         201.716         182.359 
       0.299022         184.396          162.79 
       0.314451         166.555         148.804 
       0.330372         155.192         136.894 
       0.346141         140.843           124.8 
       0.361624         132.079         113.688 
       0.377134         124.585         104.679 
       0.392932         111.731         97.0327 
       0.408854         107.776         89.7192 
       0.424564         102.723          82.876 
       0.440253         95.1361         76.9223 
       0.455999         89.9114         71.7672 
       0.471626          83.611         67.0681 
        0.48727          80.713         62.6469 
       0.502856         76.3014         58.6401 
       0.518488         73.3256         55.0617 
       0.534347         70.4842         51.7479 
       0.550082         64.8838          48.691 
       0.565732         61.3186         45.8779 
       0.581496         59.6406         43.2945 
       0.597222         57.7618         40.9268 
       0.612804         54.3028         38.7496 
       0.628434          52.722         36.7156 
       0.644267         51.3734         34.8083 
       0.660051         49.1683         33.0495 
       0.675724         46.8402         31.4242 
       0.691403          45.421         29.9074 
       0.707174          44.157         28.4827 
       0.722871         42.4364         27.1568 
        0.73838         41.2068           25.93 
       0.754018         39.4283           24.77 
       0.769845         38.4567         23.6686 
        0.78569         37.2949         22.6335 
       0.801365         36.0164          21.671 
       0.817031         35.2057         20.7655 
       0.832809         34.5393         19.9065 
       0.848511         32.5343         19.1003 
       0.864097         32.0128         18.3448 
       0.879701         31.3758         17.6298 
       0.895507         30.7212         16.9448 
       0.911279         29.7718          16.298 
        0.92691         29.0403         15.6906 
       0.942635         27.9871         15.1111 
       0.958396         27.5664         14.5598 
       0.974128         26.7601         14.0374 
       0.989692         26.5093         13.5459 
        1.00528         25.8831         13.0775 
        1.02113         24.8992          12.624 
        1.03692         24.4356         12.1939 
        1.05264         23.9614          11.786 
        1.06832         23.4675         11.3976 
        1.08405         22.8786         11.0257 
        1.09979         22.4363         10.6704 
        1.11537         21.9915         10.3344 
        1.13105         21.6685          10.011 
        1.14679         21.3622         9.70024 
        1.16256         20.6218         9.40221 
        1.17828         20.5842         9.11779 
        1.19395         19.8961         8.84618 
         1.2097         19.7328         8.58434 
        1.22537          19.235         8.33445 
          1.241         18.9702         8.09535 
        1.25666         18.5106          7.8651 
        1.27241         18.1597         7.64279 
        1.28819         17.8215         7.42877 
        1.30392         17.6825         7.22364 
        1.31957         17.4384         7.02721 
        1.33529         17.1583         6.83743 
        1.35108         16.7417         6.65396 
        1.36674         16.5817         6.47858 
         1.3824         16.2049         6.30973 
        1.39811         15.9711         6.14638 
        1.41389         15.7948         5.98823 
        1.42964         15.6044         5.83595 
        1.44531         15.4137         5.68975 
        1.46101         14.9905         5.54828 
        1.47667         14.8389         5.41208 
        1.49229         14.6606         5.28084 
        1.50793         14.4384         5.15384 
        1.52367         14.2305         5.03022 
        1.53953         14.0369         4.90986 
        1.55526         13.8295         4.79442 
        1.57092         13.6608          4.6832 
        1.58662          13.507         4.57526 
        1.60235         13.2839         4.47054 
        1.61809         13.1356         4.36906 
        1.63369         12.9467         4.27166 
        1.64941         12.7511         4.17654 
        1.66519         12.6559           4.084 
        1.68085         12.4606         3.99494 
        1.69652         12.2871         3.90853 
        1.71228         12.1196         3.82419 
        1.72806         12.0759          3.7423 
        1.74368         11.8549         3.66363 
        1.75933         11.7281         3.58709 
        1.77505         11.5847         3.51239 
        1.79081         11.3858          3.4397 
         1.8065         11.3268         3.36938 
        1.82218         11.1307         3.30111 
        1.83797         11.0659         3.23427 
        1.85367         10.8824         3.16966 
        1.86928         10.8811         3.10722 
        1.88497         10.6344         3.04613 
        1.90073         10.5844         2.98646 
        1.91647         10.5041         2.92846 
        1.93218         10.3877         2.87212 
        1.94787         10.2213         2.81736 
        1.96363         10.1567         2.76382 
        1.97935         10.0009         2.71179 
        1.99499         9.86914          2.6614 
        2.01064          9.7775         2.61223 
         2.0264         9.69722         2.56399 
        2.04216          9.5991           2.517 
        2.05781         9.46389          2.4715 
        2.07353         9.40241         2.42696 
        2.08928         9.32085         2.38343 
        2.10499         9.26995         2.34109 
        2.12065          9.1242         2.29991 
        2.13633         9.08356         2.25969 
        2.15211         8.94069         2.22018 
        2.16785         8.87191         2.18173 
        2.18349         8.80908         2.14443 
        2.19916         8.71312         2.10793 
        2.21489         8.59864         2.07217 
        2.23063         8.54118         2.03721 
         2.2463         8.43325         2.00323 
        2.26194         8.34138          1.9701 
        2.27765         8.31697         1.93756 
        2.29341         8.21862         1.90568 
        2.30914         8.12675         1.87458 
        2.32486         8.03153         1.84419 
        2.34061         7.98981         1.81444 
        2.35635         7.94369         1.78537 
        2.37203         7.85408         1.75703 
        2.38768           7.755         1.72938 
        2.40339         7.71133         1.70222 
        2.41914         7.59281         1.67559 
        2.43483         7.58425         1.64962 
         2.4505         7.50305         1.62425 
        2.46622         7.44195         1.59933 
        2.48195         7.35836         1.57493 
        2.49759         7.33867         1.55118 
        2.51328         7.23982         1.52785 
        2.52906         7.21643         1.50486 
        2.54479          7.1275         1.48243 
        2.56049         7.07432          1.4605 
        2.57618         7.02236         1.43904 
        2.59189         6.93319         1.41798 
        2.60758         6.91501         1.39737 
        2.62325         6.83493          1.3772 
        2.63898         6.75823         1.35736 
        2.65468         6.70992         1.33796 
        2.67044         6.66008         1.31885 
        2.68618         6.62947         1.30016 
        2.70184         6.55351         1.28191 
        2.71755         6.49252         1.26397 
        2.73329         6.46196         1.24634 
        2.74897         6.42408         1.22911 
        2.76462         6.37873         1.21225 
        2.78034         6.29439         1.19563 
        2.79607         6.25899         1.17931 
        2.81179         6.22541         1.16331 
        2.82749         6.14653         1.14763 
        2.84321         6.15116         1.13222 
        2.85893         6.08238          1.1171 
        2.87462         6.01901         1.10228 
        2.89033         5.97051         1.08772 
        2.90605         5.92326         1.07341 
        2.92176         5.86525         1.05937 
        2.93747         5.83788         1.04558 
        2.95318         5.80436         1.03204 
        2.96891         5.75489         1.01874 
        2.98456         5.71487         1.00573 
        3.00023         5.65073        0.992925 
        3.01596         5.61795        0.980307 
        3.03164          5.5957        0.967945 
        3.04738         5.55047        0.955761 
         3.0631         5.50378        0.943791 
        3.07883         5.46897        0.932027 
        3.09456         5.42208        0.920467 
        3.11026         5.40659         0.90912 
        3.12596         5.35085        0.897967 
        3.14163         5.30232        0.887028 
        3.15734         5.26021        0.876246 
        3.17308         5.24308        0.865618 
        3.18879         5.19251        0.855197 
        3.20447         5.17125        0.844962 
         3.2202         5.11292        0.834864 
         3.2359         5.09698         0.82495 
        3.25157         5.04154        0.815221 
        3.26729         5.02374        0.805619 
        3.28304         4.97909        0.796155 
        3.29877          4.9462        0.786855 
        3.31446         4.89944        0.777725 
        3.33014         4.88598        0.768748 
        3.34585         4.85033          0.7599 
        3.36158          4.8318        0.751178 
        3.37727         4.78903        0.742621 
        3.39294         4.76588        0.734206 
        3.40867         4.71507        0.725892 
        3.42439         4.68519        0.717711 
        3.44008         4.65615        0.709672 
        3.45578         4.62502        0.701752 
        3.47153         4.58917        0.693935 
        3.48724         4.56807        0.686251 
        3.50292         4.54087        0.678702 
        3.51859         4.49662        0.671271 
        3.53431         4.46233        0.663928 
        3.55007         4.45767        0.656678 
        3.56577         4.42939        0.649565 
        3.58146         4.39149         0.64256 
        3.59719         4.36349        0.635643 
        3.61292         4.34045        0.628831 
        3.62859         4.29709        0.622145 
        3.64429         4.27273        0.615543 
        3.66003         4.25603        0.609017 
        3.67578         4.22406        0.602589 
        3.69146         4.19087        0.596278 
        3.70712         4.16708        0.590069 
        3.72284         4.13652        0.583926 
        3.73853         4.12432        0.577882 
        3.75422          4.0914        0.571921 
        3.76993          4.0529        0.566039 
        3.78564         4.04076        0.560243 
        3.80137         4.01697        0.554518 
        3.81707         3.98023        0.548886 
        3.83279         3.96431        0.543328 
        3.84853         3.92454        0.537838 
        3.86424         3.90769        0.532435 
        3.87992         3.88588        0.527115 
        3.89561         3.85538        0.521867 
        3.91134         3.83714         0.51668 
        3.92704         3.81176         0.51157 
        3.94273         3.78737        0.506535 
        3.95845         3.77587        0.501558 
        3.97418         3.73625        0.496647 
        3.98988         3.71706        0.491809 
        4.00554         3.68674        0.487049 
        4.02125         3.65715        0.482338 
        4.03698         3.64121        0.477682 
        4.05268         3.61801        0.473099 
        4.06839         3.59915        0.468573 
         4.0841         3.57002        0.464107 
        4.09983         3.53987        0.459694 
        4.11555         3.52602         0.45534 
        4.13124         3.50324        0.451055 
        4.14693         3.47458        0.446821 
        4.16266          3.4577        0.442632 
        4.17839         3.43997          0.4385 
        4.19408         3.40333        0.434429 
        4.20977         3.38574        0.430409 
        4.22551         3.36472         0.42643 
        4.24123          3.3417        0.422506 
        4.25691         3.32307        0.418642 
        4.27259         3.30605        0.414826 
        4.28831          3.2821        0.411049 
        4.30404         3.26118        0.407316 
        4.31974         3.24447        0.403638 
        4.33543         3.22401        0.400007 
        4.35116         3.20039        0.396412 
        4.36688         3.18789        0.392863 
        4.38255         3.16373        0.389371 
        4.39825         3.14993        0.385914 
        4.41398         3.12942        0.382492 
         4.4297         3.11272        0.379116 
        4.44541         3.09057        0.375781 
        4.46111         3.07128        0.372488 
        4.47683         3.04978        0.369233 
        4.49251         3.03541        0.366024 
        4.50819         3.01274        0.362854 
         4.5239         3.00008        0.359716 
        4.53962           2.981        0.356613 
        4.55535         2.96582        0.353544 
        4.57106          2.9517        0.350516 
        4.58678         2.92898        0.347523 
         4.6025         2.91043        0.344564 
        4.61821         2.89633        0.341641 
        4.63391         2.87942        0.338755 
         4.6496         2.86301        0.335904 
        4.66532         2.83504        0.333081 
        4.68103           2.827        0.330292 
        4.69673         2.81195        0.327538 
        4.71241         2.79064        0.324818 
        4.72811         2.77817        0.322124 
        4.74384         2.76603        0.319458 
        4.75955         2.75156        0.316826 
        4.77525         2.73703        0.314226 
        4.79096         2.71382        0.311651 
        4.80669         2.70806        0.309104 
         4.8224         2.69267        0.306589 
        4.83809         2.67747        0.304104 
        4.85379         2.66059        0.301645 
         4.8695         2.64255        0.299212 
        4.88521         2.62761        0.296807 
        4.90093         2.60859        0.294428 
        4.91663         2.59384        0.292077 
        4.93234         2.58501        0.289749 
        4.94807         2.56857        0.287445 
        4.96377         2.54884        0.285171 
        4.97943         2.54216        0.282926 
        4.99514         2.52455          0.2807 
        5.01086         2.50935        0.278496 
        5.02654         2.50228        0.276321 
        5.04227          2.4902        0.274164 
          5.058         2.47337        0.272028 
        5.07371         2.45919        0.269919 
        5.08942         2.44911        0.267833 
        5.10513         2.43252        0.265768 
        5.12084         2.42699        0.263724 
        5.13656         2.40489        0.261703 
        5.15225         2.39696        0.259706 
        5.16796         2.37553        0.257726 
        5.18369         2.36531        0.255766 
         5.1994         2.35598        0.253829 
        5.21509         2.34452        0.251914 
        5.23079         2.33328        0.250017 
        5.24649         2.32005        0.248141 
        5.26217         2.30998        0.246286 
        5.27788         2.29366        0.244447 
        5.29359         2.28811        0.242626 
        5.30933         2.27453        0.240822 
        5.32504         2.25727        0.239039 
        5.34073         2.25057        0.237276 
        5.35646         2.23675        0.235527 
        5.37218         2.22893        0.233796 
        5.38789         2.21735        0.232085 
        5.40357         2.20703        0.230393 
        5.41929         2.19679        0.228714 
        5.43502         2.18488        0.227052 
         5.4507         2.16988         0.22541 
        5.46639          2.1651        0.223784 
        5.48212         2.15235        0.222171 
        5.49786         2.14398        0.220572 
        5.51353         2.12886        0.218996 
        5.52921         2.11705        0.217434 
        5.54495         2.11173        0.215883 
        5.56066         2.10221        0.214349 
        5.57637         2.09086         0.21283 
        5.59207         2.07761        0.211327 
        5.60778         2.07095        0.209838 
        5.62346         2.06188        0.208366 
        5.63916         2.04812        0.206906 
        5.65487           2.039         0.20546 
         5.6706         2.03288        0.204026 
        5.68633         2.01825        0.202605 
        5.70203         2.01015          0.2012 
        5.71773         2.00236        0.199809 
        5.73344         1.99062        0.198431 
        5.74916         1.98045        0.197064 
        5.76486         1.97182        0.195712 
        5.78054         1.96178        0.194375 
        5.79626          1.9556        0.193047 
          5.812          1.9464         0.19173 
         5.8277         1.93428        0.190429 
        5.84339         1.93086         0.18914 
        5.85911         1.91758         0.18786 
        5.87484         1.90985        0.186593 
        5.89053         1.90079         0.18534 
        5.90623         1.88955        0.184098 
        5.92195          1.8825        0.182865 
        5.93767         1.87438        0.181644 
        5.95336         1.86571        0.180437 
        5.96905         1.85283         0.17924 
        5.98476         1.84783        0.178053 
        6.00048         1.83688        0.176877 
        6.01617           1.833        0.175712 
        6.03185         1.82449         0.17456 
        6.04756         1.81541        0.173415 
        6.06331         1.80606        0.172278 
        6.07903         1.79919        0.171154 
        6.09473         1.79297        0.170041 
        6.11044         1.78096        0.168936 
        6.12616         1.77555        0.167842 
        6.14186          1.7655        0.166759 
        6.15755         1.75924        0.165685 
        6.17326         1.75185         0.16462 
        6.18898         1.74667        0.163563 
        6.20467          1.7355        0.162518 
        6.22036         1.72825        0.161482 
         6.2361         1.72243        0.160453 
         6.2518         1.71295        0.159434 
        6.26748         1.70581        0.158426 
        6.28319         1.69811        0.157424 
        6.29893         1.69421         0.15643 
        6.31463          1.6838        0.155446 
        6.33033         1.67855        0.154472 
        6.34604          1.6701        0.153504 
        6.36177         1.66283        0.152545 
        6.37747         1.65677        0.151595 
