# k  (h/Mpc)    Pcb(k)  (Mpc/h)^3    Pcb_linear(k) (Mpc/h)^3   ShotnoiseSubtracted = true
      0.0200456         6851.88          6977.4 
      0.0350414         5185.88         5312.04 
      0.0492313         3935.37         3957.14 
      0.0637834         3376.79          3324.2 
      0.0800726         2714.47         2682.41 
       0.096163          1944.4         1983.77 
       0.111083         1550.75         1591.82 
       0.126058         1425.83         1412.64 
       0.142273         1237.86         1209.89 
       0.158546         1025.34         967.163 
        0.17375          831.46         816.379 
       0.188953         792.497         739.055 
       0.204907         746.022         658.697 
       0.220756         631.555         562.257 
        0.23588         554.309         489.828 
         0.2514         488.588         444.816 
       0.267535         468.275         404.416 
       0.283568         425.671         358.887 
       0.299022         393.607         320.374 
       0.314451         363.578          292.85 
       0.330372         337.209         269.412 
       0.346141         305.093          245.61 
       0.361624         291.061         223.741 
       0.377134         273.585         206.011 
       0.392932         253.029         190.963 
       0.408854         243.171          176.57 
       0.424564         233.396         163.102 
       0.440253         220.743         151.385 
       0.455999         208.382          141.24 
       0.471626         192.572         131.992 
        0.48727         187.885         123.291 
       0.502856         180.295         115.405 
       0.518488         176.188         108.363 
       0.534347         167.835         101.841 
       0.550082         156.213         95.8252 
       0.565732         151.548         90.2891 
       0.581496         145.108         85.2048 
       0.597222         140.744         80.5452 
       0.612804         134.375         76.2604 
       0.628434         131.528         72.2573 
       0.644267         127.138         68.5037 
       0.660051         124.508         65.0424 
       0.675724         120.869         61.8438 
       0.691403         117.218         58.8587 
       0.707174         112.757         56.0547 
       0.722871         110.933         53.4454 
        0.73838         108.792         51.0309 
       0.754018          103.81          48.748 
       0.769845         101.921         46.5805 
        0.78569         99.4697         44.5435 
       0.801365         96.5722         42.6491 
       0.817031         93.3701         40.8671 
       0.832809         92.3221         39.1765 
       0.848511          88.945           37.59 
       0.864097         86.5641         36.1031 
       0.879701         85.7459          34.696 
       0.895507         83.9265         33.3479 
       0.911279         82.6699         32.0749 
        0.92691         80.4048         30.8795 
       0.942635         78.2185          29.739 
       0.958396         77.9167         28.6542 
       0.974128         75.9352         27.6259 
       0.989692         74.2048         26.6587 
        1.00528         72.8248         25.7368 
        1.02113         71.2811         24.8444 
        1.03692         69.5732          23.998 
        1.05264         69.0694         23.1952 
        1.06832         67.4802         22.4307 
        1.08405          66.657         21.6989 
        1.09979         65.8312         20.9997 
        1.11537         63.4292         20.3384 
        1.13105          63.843         19.7019 
        1.14679         62.6043         19.0904 
        1.16256         61.4514         18.5038 
        1.17828         59.9406         17.9441 
        1.19395         59.5203         17.4095 
         1.2097         58.2217         16.8942 
        1.22537         58.0492         16.4024 
          1.241          56.635         15.9319 
        1.25666           55.55         15.4787 
        1.27241         55.1925         15.0412 
        1.28819         53.8778           14.62 
        1.30392         53.0716         14.2163 
        1.31957          52.748         13.8298 
        1.33529         52.0754         13.4563 
        1.35108         51.5294         13.0952 
        1.36674         50.6718           12.75 
         1.3824          49.497         12.4177 
        1.39811         49.3659         12.0963 
        1.41389         48.5269          11.785 
        1.42964         47.7892         11.4853 
        1.44531          47.294         11.1976 
        1.46101          46.231         10.9192 
        1.47667         46.1989         10.6511 
        1.49229         45.7465         10.3928 
        1.50793          44.829         10.1429 
        1.52367         44.3658         9.89962 
        1.53953         43.9959         9.66274 
        1.55526         43.2357         9.43556 
        1.57092         42.8742         9.21666 
        1.58662         42.2985         9.00424 
        1.60235         41.8722         8.79814 
        1.61809         41.1734         8.59844 
        1.63369          40.638         8.40674 
        1.64941         40.0508         8.21956 
        1.66519         39.6908         8.03743 
        1.68085         39.3286         7.86216 
        1.69652         38.8597         7.69209 
        1.71228         38.5811         7.52612 
        1.72806         37.9768         7.36494 
        1.74368         37.5169         7.21014 
        1.75933         37.0964          7.0595 
        1.77505          36.852         6.91248 
        1.79081         36.2412         6.76942 
         1.8065         35.8821         6.63104 
        1.82218         35.5853         6.49668 
        1.83797          35.118         6.36514 
        1.85367         34.6492         6.23799 
        1.86928          34.374          6.1151 
        1.88497         33.8654         5.99486 
        1.90073         33.7713         5.87744 
        1.91647         33.2773         5.76328 
        1.93218         32.9557         5.65242 
        1.94787         32.6041         5.54465 
        1.96363         32.3642         5.43928 
        1.97935         31.9919         5.33688 
        1.99499         31.5784         5.23771 
        2.01064         31.3344         5.14094 
         2.0264          30.833         5.04601 
        2.04216         30.4923         4.95354 
        2.05781         30.2779         4.86398 
        2.07353         29.9567         4.77633 
        2.08928         29.9155         4.69066 
        2.10499         29.5358         4.60733 
        2.12065         29.0402         4.52629 
        2.13633          28.897         4.44713 
        2.15211         28.3469         4.36937 
        2.16785         28.1922          4.2937 
        2.18349         28.0311          4.2203 
        2.19916         27.7409         4.14847 
        2.21489         27.3417         4.07809 
        2.23063         27.1737          4.0093 
         2.2463         27.0023         3.94241 
        2.26194         26.7164         3.87722 
        2.27765         26.3894         3.81318 
        2.29341         26.0725         3.75043 
        2.30914         25.9832         3.68923 
        2.32486         25.6747         3.62943 
        2.34061          25.418         3.57086 
        2.35635          25.087         3.51365 
        2.37203         24.9212         3.45789 
        2.38768         24.6957         3.40347 
        2.40339         24.5591         3.35003 
        2.41914         24.2398         3.29761 
        2.43483         23.9409         3.24651 
         2.4505         23.7485         3.19658 
        2.46622         23.5049         3.14753 
        2.48195         23.2938         3.09951 
        2.49759         23.0453         3.05276 
        2.51328         22.8423         3.00685 
        2.52906          22.689         2.96161 
        2.54479         22.3889         2.91746 
        2.56049         22.1366         2.87431 
        2.57618         21.9936         2.83207 
        2.59189         21.8414         2.79062 
        2.60758         21.6493         2.75007 
        2.62325          21.427         2.71037 
        2.63898         21.3042         2.67133 
        2.65468         21.0906         2.63314 
        2.67044         20.8347         2.59553 
        2.68618         20.6806         2.55876 
        2.70184         20.5194         2.52284 
        2.71755         20.2889         2.48752 
        2.73329         20.1278         2.45284 
        2.74897         19.8624         2.41892 
        2.76462         19.9366         2.38573 
        2.78034          19.627         2.35303 
        2.79607         19.4236         2.32091 
        2.81179         19.3011         2.28942 
        2.82749         19.1398         2.25856 
        2.84321         18.9648         2.22824 
        2.85893         18.7718         2.19848 
        2.87462         18.5858         2.16932 
        2.89033         18.4214         2.14066 
        2.90605         18.3359          2.1125 
        2.92176         18.0646         2.08487 
        2.93747         17.9829         2.05774 
        2.95318         17.7899         2.03109 
        2.96891         17.6197         2.00491 
        2.98456         17.4834          1.9793 
        3.00023         17.3537          1.9541 
        3.01596         17.1964         1.92927 
        3.03164         17.0627         1.90494 
        3.04738         16.8574         1.88096 
         3.0631         16.7285         1.85741 
        3.07883         16.5828         1.83426 
        3.09456         16.4578          1.8115 
        3.11026         16.3119         1.78917 
        3.12596         16.1351         1.76723 
        3.14163         16.0863          1.7457 
        3.15734         15.8602         1.72448 
        3.17308         15.7417         1.70356 
        3.18879         15.6173         1.68305 
        3.20447         15.4662         1.66291 
         3.2202         15.3415         1.64304 
         3.2359         15.2333         1.62352 
        3.25157         15.1466         1.60438 
        3.26729         14.9509         1.58548 
        3.28304         14.8537         1.56686 
        3.29877         14.6936         1.54855 
        3.31446         14.5632         1.53058 
        3.33014         14.4268         1.51292 
        3.34585         14.3278          1.4955 
        3.36158         14.2349         1.47834 
        3.37727         14.0792          1.4615 
        3.39294         13.9769         1.44494 
        3.40867         13.8386         1.42858 
        3.42439         13.7405         1.41248 
        3.44008         13.6631         1.39666 
        3.45578         13.5431         1.38107 
        3.47153         13.4338         1.36568 
        3.48724         13.3243         1.35056 
        3.50292         13.1585         1.33571 
        3.51859           13.09         1.32108 
        3.53431         12.9974         1.30663 
        3.55007         12.9044         1.29236 
        3.56577         12.7805         1.27836 
        3.58146         12.6953         1.26458 
        3.59719         12.5366         1.25096 
        3.61292         12.4673         1.23756 
        3.62859         12.3304          1.2244 
        3.64429         12.2482         1.21141 
        3.66003         12.1349         1.19856 
        3.67578         12.0687         1.18591 
        3.69146         11.9599         1.17349 
        3.70712         11.8376         1.16127 
        3.72284          11.763         1.14918 
        3.73853         11.6633         1.13729 
        3.75422         11.5971         1.12556 
        3.76993         11.4776         1.11398 
        3.78564         11.3666         1.10257 
        3.80137         11.2964         1.09131 
        3.81707         11.1874         1.08022 
        3.83279         11.1135         1.06929 
        3.84853         11.0067         1.05848 
        3.86424          10.918         1.04785 
        3.87992         10.8253         1.03738 
        3.89561          10.761         1.02705 
        3.91134         10.7063         1.01684 
        3.92704         10.5781         1.00678 
        3.94273         10.5118        0.996874 
        3.95845         10.4347         0.98708 
        3.97418         10.3358        0.977415 
        3.98988         10.2498        0.967894 
        4.00554         10.1733        0.958525 
        4.02125         10.1059        0.949255 
        4.03698         10.0162        0.940093 
        4.05268         9.95184        0.931073 
        4.06839         9.83386        0.922165 
         4.0841         9.80317        0.913377 
        4.09983         9.71382        0.904691 
        4.11555         9.62515        0.896122 
        4.13124         9.55449        0.887689 
        4.14693         9.47111        0.879356 
        4.16266         9.40783        0.871113 
        4.17839         9.33374         0.86298 
        4.19408         9.27735        0.854969 
        4.20977         9.19121        0.847057 
        4.22551         9.12363        0.839227 
        4.24123         9.06319        0.831504 
        4.25691         8.96668          0.8239 
        4.27259         8.91622        0.816389 
        4.28831         8.84483        0.808956 
        4.30404         8.77886        0.801609 
        4.31974         8.70514         0.79437 
        4.33543         8.61778        0.787225 
        4.35116         8.56798        0.780151 
        4.36688          8.5115        0.773166 
        4.38255         8.43641        0.766294 
        4.39825         8.35216         0.75949 
        4.41398         8.32705        0.752756 
         4.4297         8.25075        0.746111 
        4.44541          8.1793        0.739547 
        4.46111         8.12749        0.733068 
        4.47683         8.05308        0.726662 
        4.49251         8.01824        0.720346 
        4.50819         7.95376        0.714106 
         4.5239         7.89233        0.707932 
        4.53962         7.82157        0.701824 
        4.55535         7.76518        0.695785 
        4.57106         7.70545        0.689825 
        4.58678         7.64454        0.683935 
         4.6025         7.59317        0.678112 
        4.61821         7.52518        0.672358 
        4.63391         7.47923        0.666679 
         4.6496         7.42062        0.661068 
        4.66532         7.38495        0.655513 
        4.68103         7.29188        0.650024 
        4.69673         7.25453        0.644604 
        4.71241         7.21414        0.639251 
        4.72811         7.12808         0.63395 
        4.74384         7.08484        0.628703 
        4.75955         7.03245        0.623523 
        4.77525         7.00742        0.618405 
        4.79096         6.93334        0.613338 
        4.80669          6.8959        0.608326 
         4.8224          6.8519        0.603375 
        4.83809         6.78177        0.598485 
        4.85379         6.72047        0.593647 
         4.8695         6.68208        0.588858 
        4.88521         6.64269        0.584124 
        4.90093         6.58257        0.579442 
        4.91663         6.54643        0.574815 
        4.93234         6.48857        0.570235 
        4.94807         6.45506        0.565701 
        4.96377         6.40999        0.561225 
        4.97943          6.3588        0.556807 
        4.99514         6.31015        0.552426 
        5.01086          6.2675        0.548088 
        5.02654         6.21921        0.543808 
        5.04227         6.17406        0.539562 
          5.058         6.14175        0.535359 
        5.07371         6.08978        0.531209 
        5.08942         6.04559        0.527103 
        5.10513         6.00325        0.523039 
        5.12084         5.97983        0.519017 
        5.13656         5.93225        0.515038 
        5.15225         5.89048        0.511108 
        5.16796          5.8419        0.507212 
        5.18369         5.80155        0.503354 
         5.1994         5.76074        0.499543 
        5.21509         5.73007        0.495775 
        5.23079         5.68752        0.492041 
        5.24649         5.64422        0.488349 
        5.26217         5.61506        0.484698 
        5.27788         5.55692        0.481078 
        5.29359         5.53571        0.477496 
        5.30933         5.50128        0.473944 
        5.32504         5.45796        0.470435 
        5.34073         5.42295        0.466966 
        5.35646         5.37425        0.463524 
        5.37218          5.3496        0.460117 
        5.38789         5.31266        0.456749 
        5.40357         5.26333        0.453419 
        5.41929         5.23701        0.450115 
        5.43502         5.21092        0.446844 
         5.4507         5.16795        0.443613 
        5.46639         5.12607        0.440414 
        5.48212         5.09007        0.437239 
        5.49786         5.05909        0.434091 
        5.51353         5.02957        0.430991 
        5.52921         4.99883        0.427917 
        5.54495          4.9587        0.424865 
        5.56066         4.93045        0.421845 
        5.57637         4.89752        0.418856 
        5.59207         4.86734        0.415898 
        5.60778         4.83405        0.412968 
        5.62346         4.80317         0.41007 
        5.63916         4.77454        0.407198 
        5.65487           4.732        0.404351 
         5.6706         4.70056        0.401528 
        5.68633         4.67848        0.398732 
        5.70203         4.64526        0.395968 
        5.71773         4.62372         0.39323 
        5.73344         4.59238        0.390518 
        5.74916          4.5598        0.387828 
        5.76486         4.52703        0.385167 
        5.78054         4.49901        0.382536 
        5.79626         4.46939        0.379922 
          5.812         4.44286        0.377329 
         5.8277         4.41828        0.374769 
        5.84339         4.38669        0.372232 
        5.85911         4.35756        0.369714 
        5.87484         4.33315         0.36722 
        5.89053         4.31563        0.364754 
        5.90623          4.2748         0.36231 
        5.92195         4.24894        0.359883 
        5.93767         4.23388        0.357481 
        5.95336          4.1998        0.355104 
        5.96905         4.16392         0.35275 
        5.98476         4.14231        0.350414 
        6.00048         4.11443        0.348098 
        6.01617         4.09699        0.345807 
        6.03185         4.06532        0.343539 
        6.04756         4.05316        0.341286 
        6.06331          4.0146        0.339048 
        6.07903         3.99159        0.336836 
        6.09473         3.97067        0.334645 
        6.11044         3.93804        0.332471 
        6.12616         3.92836        0.330318 
        6.14186         3.89422        0.328186 
        6.15755         3.87871        0.326072 
        6.17326         3.85594        0.323976 
        6.18898         3.82871        0.321897 
        6.20467         3.80172         0.31984 
        6.22036         3.78712        0.317802 
         6.2361         3.75552        0.315776 
         6.2518         3.74265         0.31377 
        6.26748         3.71552        0.311787 
        6.28319         3.69494        0.309815 
        6.29893         3.66471        0.307859 
        6.31463         3.64607        0.305923 
        6.33033         3.62187        0.304004 
        6.34604          3.5952        0.302101 
        6.36177         3.57753        0.300212 
        6.37747         3.55843        0.298343 
