# k  (h/Mpc)    Pcb(k)  (Mpc/h)^3    Pcb_linear(k) (Mpc/h)^3   ShotnoiseSubtracted = true
      0.0200456           12166         12358.9 
      0.0350414         9634.35         9409.05 
      0.0492313         6917.46         7009.16 
      0.0637834         5652.11         5888.05 
      0.0800726          4518.1         4751.27 
       0.096163         3603.48         3513.78 
       0.111083         2951.15         2819.54 
       0.126058         2459.76         2502.16 
       0.142273         2142.65         2143.04 
       0.158546         1775.88         1713.11 
        0.17375         1562.73         1446.03 
       0.188953          1451.7         1309.06 
       0.204907         1248.35         1166.73 
       0.220756         1124.87         995.909 
        0.23588         1002.59         867.617 
         0.2514         900.992         787.889 
       0.267535         875.816         716.329 
       0.283568         769.765         635.685 
       0.299022         735.878         567.469 
       0.314451         748.015         518.716 
       0.330372         645.797           477.2 
       0.346141         599.365         435.042 
       0.361624         574.468         396.305 
       0.377134         540.339         364.901 
       0.392932         524.516         338.247 
       0.408854          499.29         312.753 
       0.424564         483.845         288.898 
       0.440253         439.877         268.144 
       0.455999         422.231         250.174 
       0.471626         425.775         233.793 
        0.48727         404.327         218.381 
       0.502856         372.902         204.414 
       0.518488         373.963          191.94 
       0.534347          348.03         180.388 
       0.550082         337.997         169.732 
       0.565732         336.193         159.926 
       0.581496         321.885         150.921 
       0.597222         313.265         142.667 
       0.612804         305.837         135.078 
       0.628434         293.733         127.987 
       0.644267         281.905         121.339 
       0.660051         277.282         115.208 
       0.675724         275.018         109.542 
       0.691403         267.022         104.255 
       0.707174          257.95          99.288 
       0.722871         254.433         94.6662 
        0.73838         252.157         90.3895 
       0.754018         239.768         86.3458 
       0.769845         239.358         82.5065 
        0.78569         234.031         78.8984 
       0.801365         228.087          75.543 
       0.817031         222.497         72.3866 
       0.832809          219.58         69.3921 
       0.848511         214.218          66.582 
       0.864097         209.589         63.9483 
       0.879701         208.367         61.4559 
       0.895507         203.226         59.0681 
       0.911279         197.471         56.8132 
        0.92691         195.356         54.6959 
       0.942635         193.219         52.6757 
       0.958396         189.011         50.7542 
       0.974128         185.273         48.9329 
       0.989692         180.345         47.2197 
        1.00528         179.118         45.5868 
        1.02113         175.403         44.0061 
        1.03692         172.918         42.5068 
        1.05264         170.626         41.0849 
        1.06832         168.369         39.7308 
        1.08405         164.923         38.4347 
        1.09979         164.136          37.196 
        1.11537          160.38         36.0247 
        1.13105         158.689         34.8973 
        1.14679         156.145         33.8141 
        1.16256         153.847         32.7752 
        1.17828         151.957         31.7838 
        1.19395         148.037          30.837 
         1.2097         147.734         29.9242 
        1.22537         145.178         29.0531 
          1.241         143.454         28.2196 
        1.25666         139.994          27.417 
        1.27241         137.239         26.6421 
        1.28819         136.432          25.896 
        1.30392         133.904         25.1809 
        1.31957         131.999         24.4962 
        1.33529         130.688         23.8347 
        1.35108         129.132         23.1951 
        1.36674         126.809         22.5837 
         1.3824         126.453         21.9951 
        1.39811         123.041         21.4257 
        1.41389         122.256         20.8744 
        1.42964         119.803         20.3436 
        1.44531         118.677         19.8339 
        1.46101         116.891         19.3408 
        1.47667         116.313          18.866 
        1.49229         114.999         18.4085 
        1.50793         112.841         17.9658 
        1.52367         111.728         17.5349 
        1.53953         110.036         17.1153 
        1.55526         108.788         16.7129 
        1.57092         107.988         16.3252 
        1.58662         106.428         15.9489 
        1.60235         104.565         15.5839 
        1.61809         103.972         15.2301 
        1.63369         102.062         14.8906 
        1.64941         102.053          14.559 
        1.66519         99.8099         14.2365 
        1.68085         98.7941          13.926 
        1.69652         97.0529         13.6248 
        1.71228         96.3364         13.3308 
        1.72806         95.2436         13.0453 
        1.74368         93.7371         12.7711 
        1.75933         92.9626         12.5043 
        1.77505         92.0839         12.2439 
        1.79081         90.6095         11.9905 
         1.8065         90.0451         11.7454 
        1.82218         88.3568         11.5074 
        1.83797         87.8809         11.2744 
        1.85367         86.3692         11.0492 
        1.86928         85.6143         10.8315 
        1.88497         84.7588         10.6185 
        1.90073         83.8297         10.4105 
        1.91647         82.2999         10.2083 
        1.93218         81.6059          10.012 
        1.94787         80.6834         9.82107 
        1.96363         79.6153         9.63443 
        1.97935         79.0203         9.45305 
        1.99499          78.056          9.2774 
        2.01064         77.1501         9.10598 
         2.0264         75.8347         8.93783 
        2.04216          75.252         8.77404 
        2.05781         74.4093         8.61541 
        2.07353         73.4148         8.46016 
        2.08928         72.6265         8.30842 
        2.10499         71.7404         8.16082 
        2.12065          71.289         8.01727 
        2.13633         70.5681         7.87707 
        2.15211         69.4427         7.73933 
        2.16785         68.3559         7.60529 
        2.18349         67.8055         7.47529 
        2.19916         66.9536         7.34806 
        2.21489         66.2846         7.22339 
        2.23063         65.4005         7.10154 
         2.2463         64.8322         6.98306 
        2.26194         64.2761          6.8676 
        2.27765         63.3922         6.75417 
        2.29341         62.5304         6.64302 
        2.30914         61.7795         6.53461 
        2.32486          61.077         6.42869 
        2.34061         60.7248         6.32496 
        2.35635         59.7413         6.22362 
        2.37203         59.4183         6.12486 
        2.38768         58.6261         6.02846 
        2.40339         57.9833         5.93379 
        2.41914         57.3867         5.84095 
        2.43483         56.6194         5.75043 
         2.4505         56.1359         5.66199 
        2.46622          55.561         5.57512 
        2.48195         54.8763         5.49007 
        2.49759         54.2474         5.40726 
        2.51328         53.8638         5.32595 
        2.52906         53.0935          5.2458 
        2.54479         52.6339         5.16761 
        2.56049          51.832         5.09117 
        2.57618         51.3629         5.01636 
        2.59189          50.948         4.94294 
        2.60758         50.2063         4.87111 
        2.62325         49.7798          4.8008 
        2.63898         49.2878         4.73164 
        2.65468         48.8599         4.66399 
        2.67044         48.2508         4.59739 
        2.68618         47.9346         4.53224 
        2.70184         47.1602         4.46862 
        2.71755         46.8649         4.40608 
        2.73329         46.1652         4.34463 
        2.74897         45.9176         4.28457 
        2.76462           45.36         4.22577 
        2.78034         44.9031         4.16785 
        2.79607         44.4415         4.11095 
        2.81179         43.9435         4.05518 
        2.82749         43.4942         4.00052 
        2.84321         43.0558          3.9468 
        2.85893         42.5843          3.8941 
        2.87462         42.0262         3.84245 
        2.89033          41.763         3.79169 
        2.90605         41.2266         3.74181 
        2.92176         41.0205         3.69286 
        2.93747         40.5943         3.64481 
        2.95318          40.182         3.59761 
        2.96891         39.7416         3.55123 
        2.98456         39.4078         3.50587 
        3.00023         38.9085         3.46124 
        3.01596         38.5515         3.41726 
        3.03164          38.167         3.37417 
        3.04738          37.865         3.33169 
         3.0631         37.5676         3.28997 
        3.07883         37.0669         3.24896 
        3.09456          36.565         3.20866 
        3.11026          36.258         3.16911 
        3.12596         35.9715         3.13023 
        3.14163         35.5815          3.0921 
        3.15734         35.2544         3.05451 
        3.17308          34.922         3.01747 
        3.18879         34.5586         2.98114 
        3.20447         34.2571         2.94546 
         3.2202         33.9087         2.91026 
         3.2359         33.5608          2.8757 
        3.25157         33.3461         2.84178 
        3.26729         32.9401         2.80831 
        3.28304         32.5943         2.77532 
        3.29877         32.1974          2.7429 
        3.31446         31.9054         2.71108 
        3.33014          31.669         2.67979 
        3.34585           31.35         2.64894 
        3.36158         31.0889         2.61854 
        3.37727          30.796         2.58871 
        3.39294         30.4635         2.55937 
        3.40867         30.1739         2.53039 
        3.42439         29.9645         2.50187 
        3.44008         29.6382         2.47385 
        3.45578          29.473         2.44624 
        3.47153         29.0806         2.41899 
        3.48724         28.7641         2.39221 
        3.50292         28.5559         2.36589 
        3.51859         28.2007         2.33999 
        3.53431         27.9386         2.31439 
        3.55007         27.6962         2.28912 
        3.56577         27.4825         2.26432 
        3.58146         27.2545          2.2399 
        3.59719          27.048         2.21579 
        3.61292         26.7451         2.19205 
        3.62859         26.5427         2.16874 
        3.64429         26.2449         2.14573 
        3.66003         26.0775         2.12298 
        3.67578         25.8416         2.10057 
        3.69146         25.6149         2.07857 
        3.70712         25.3443         2.05693 
        3.72284         25.1434         2.03551 
        3.73853         24.9051         2.01444 
        3.75422         24.5455         1.99366 
        3.76993         24.4257         1.97316 
        3.78564         24.1988         1.95295 
        3.80137         23.9964           1.933 
        3.81707         23.8309         1.91337 
        3.83279         23.6048         1.89399 
        3.84853         23.3844         1.87485 
        3.86424         23.1546         1.85602 
        3.87992         22.9279         1.83747 
        3.89561         22.7876         1.81918 
        3.91134         22.5184          1.8011 
        3.92704          22.349         1.78329 
        3.94273         22.1427         1.76573 
        3.95845         21.9321         1.74838 
        3.97418         21.7048         1.73127 
        3.98988         21.6186          1.7144 
        4.00554         21.4564         1.69781 
        4.02125         21.1517         1.68138 
        4.03698         20.9852         1.66516 
        4.05268         20.8281         1.64918 
        4.06839         20.6539          1.6334 
         4.0841         20.4579         1.61784 
        4.09983         20.2175         1.60245 
        4.11555         20.0793         1.58727 
        4.13124         19.9598         1.57233 
        4.14693          19.778         1.55758 
        4.16266          19.692         1.54297 
        4.17839         19.4318         1.52857 
        4.19408         19.2182         1.51438 
        4.20977          19.115         1.50037 
        4.22551         18.9241          1.4865 
        4.24123         18.7957         1.47282 
        4.25691         18.5559         1.45935 
        4.27259         18.4813         1.44604 
        4.28831          18.326         1.43288 
        4.30404         18.1719         1.41987 
        4.31974         18.0623         1.40704 
        4.33543         17.8664         1.39439 
        4.35116         17.6916         1.38186 
        4.36688         17.5753         1.36949 
        4.38255         17.4163         1.35731 
        4.39825         17.2405         1.34526 
        4.41398         17.1475         1.33333 
         4.4297         16.9958         1.32156 
        4.44541          16.802         1.30994 
        4.46111         16.7306         1.29846 
        4.47683         16.5214         1.28711 
        4.49251         16.4133         1.27593 
        4.50819         16.3052         1.26487 
         4.5239         16.1629         1.25394 
        4.53962         16.0347         1.24312 
        4.55535         15.8962         1.23242 
        4.57106          15.774         1.22187 
        4.58678         15.6559         1.21143 
         4.6025         15.5458         1.20112 
        4.61821         15.4127         1.19093 
        4.63391         15.2737         1.18087 
         4.6496         15.1088         1.17093 
        4.66532         15.0007         1.16109 
        4.68103         14.9065         1.15137 
        4.69673         14.7854         1.14177 
        4.71241         14.6964         1.13228 
        4.72811         14.5615          1.1229 
        4.74384         14.4452          1.1136 
        4.75955         14.3069         1.10443 
        4.77525         14.2028         1.09536 
        4.79096         14.1017         1.08639 
        4.80669         13.9961         1.07751 
         4.8224         13.8675         1.06874 
        4.83809         13.7931         1.06008 
        4.85379         13.6897         1.05151 
         4.8695         13.5647         1.04303 
        4.88521         13.4611         1.03464 
        4.90093         13.3673         1.02635 
        4.91663         13.2959         1.01815 
        4.93234         13.1906         1.01004 
        4.94807         13.0639         1.00201 
        4.96377         12.9792         0.99408 
        4.97943         12.8979        0.986255 
        4.99514         12.7283        0.978494 
        5.01086          12.655        0.970811 
        5.02654         12.5614        0.963231 
        5.04227         12.4391        0.955709 
          5.058         12.3859        0.948264 
        5.07371         12.2866        0.940914 
        5.08942         12.1979         0.93364 
        5.10513          12.102        0.926443 
        5.12084         12.0341        0.919319 
        5.13656         11.9459        0.912271 
        5.15225         11.8137        0.905309 
        5.16796         11.7382        0.898409 
        5.18369         11.6555        0.891575 
         5.1994         11.5681        0.884825 
        5.21509          11.482         0.87815 
        5.23079         11.3872        0.871537 
        5.24649         11.3135        0.864998 
        5.26217         11.2109         0.85853 
        5.27788         11.1586        0.852119 
        5.29359         11.0533        0.845773 
        5.30933          10.994        0.839483 
        5.32504         10.9138        0.833267 
        5.34073         10.8351        0.827121 
        5.35646         10.7385        0.821026 
        5.37218         10.6733         0.81499 
        5.38789          10.599        0.809025 
        5.40357         10.5093        0.803127 
        5.41929         10.4461        0.797275 
        5.43502         10.3789        0.791481 
         5.4507         10.2809        0.785758 
        5.46639         10.2025        0.780092 
        5.48212         10.1335        0.774468 
        5.49786         10.0608        0.768893 
        5.51353         10.0048          0.7634 
        5.52921         9.92123        0.757956 
        5.54495          9.8358        0.752549 
        5.56066         9.77936        0.747201 
        5.57637         9.70111        0.741906 
        5.59207         9.64952        0.736668 
        5.60778         9.56109        0.731477 
        5.62346         9.49567        0.726345 
        5.63916         9.44534        0.721256 
        5.65487         9.38022        0.716214 
         5.6706         9.30591        0.711215 
        5.68633         9.23041        0.706261 
        5.70203         9.15576        0.701365 
        5.71773         9.12294        0.696517 
        5.73344         9.05165        0.691712 
        5.74916         9.01918        0.686947 
        5.76486         8.91882        0.682235 
        5.78054         8.86716        0.677574 
        5.79626         8.80191        0.672943 
          5.812         8.75805        0.668352 
         5.8277          8.6905        0.663817 
        5.84339         8.62903        0.659324 
        5.85911         8.56591        0.654864 
        5.87484         8.50997        0.650446 
        5.89053         8.43738        0.646078 
        5.90623          8.3881        0.641748 
        5.92195         8.34957         0.63745 
        5.93767         8.28953        0.633195 
        5.95336         8.22147        0.628985 
        5.96905         8.16541        0.624815 
        5.98476          8.1171        0.620677 
        6.00048         8.06687        0.616576 
        6.01617          7.9981        0.612517 
        6.03185         7.95884          0.6085 
        6.04756          7.9055        0.604509 
        6.06331         7.83962        0.600546 
        6.07903         7.80206        0.596626 
        6.09473         7.74338        0.592746 
        6.11044         7.70547        0.588896 
        6.12616         7.63569        0.585082 
        6.14186         7.60503        0.581305 
        6.15755         7.53732        0.577561 
        6.17326         7.50059        0.573848 
        6.18898         7.44381        0.570166 
        6.20467         7.39345        0.566523 
        6.22036         7.34505        0.562912 
         6.2361          7.3116        0.559323 
         6.2518         7.24619        0.555772 
        6.26748         7.19983        0.552258 
        6.28319         7.16119        0.548766 
        6.29893         7.10855        0.545301 
        6.31463         7.06848        0.541872 
        6.33033          7.0136        0.538474 
        6.34604         6.98175        0.535102 
        6.36177          6.9378        0.531756 
        6.37747         6.89793        0.528445 
