# k  (h/Mpc)    Pcb(k)  (Mpc/h)^3    Pcb_linear(k) (Mpc/h)^3   ShotnoiseSubtracted = true
      0.0200456         17790.8         18214.5 
      0.0350414         13260.5         13867.1 
      0.0492313         10114.4         10330.1 
      0.0637834         8807.76          8677.8 
      0.0800726         7049.78         7002.42 
       0.096163         4977.11         5178.61 
       0.111083         4003.88         4155.43 
       0.126058         3701.28         3687.68 
       0.142273         3220.43         3158.42 
       0.158546         2814.54         2524.77 
        0.17375         2258.16         2131.15 
       0.188953         2205.93          1929.3 
       0.204907          2084.1         1719.53 
       0.220756         1808.88         1467.77 
        0.23588         1610.63         1278.69 
         0.2514         1405.68         1161.19 
       0.267535         1406.57         1055.73 
       0.283568            1279         936.872 
       0.299022         1207.35         836.336 
       0.314451         1153.75         764.483 
       0.330372         1062.48         703.297 
       0.346141         1007.54         641.164 
       0.361624         968.502         584.074 
       0.377134         902.135          537.79 
       0.392932          871.53         498.508 
       0.408854         849.788         460.935 
       0.424564         793.336         425.778 
       0.440253         779.497          395.19 
       0.455999         747.498         368.706 
       0.471626          715.99         344.564 
        0.48727         690.893          321.85 
       0.502856         672.949         301.265 
       0.518488         665.728         282.881 
       0.534347         624.122         265.856 
       0.550082         605.102         250.151 
       0.565732         605.439         235.699 
       0.581496         571.681         222.427 
       0.597222          562.95         210.263 
       0.612804         550.196         199.077 
       0.628434         533.904         188.627 
       0.644267         520.561         178.829 
       0.660051         504.585         169.793 
       0.675724         501.325         161.443 
       0.691403         485.254          153.65 
       0.707174          469.71         146.331 
       0.722871         465.141         139.519 
        0.73838         457.976         133.216 
       0.754018          445.75         127.256 
       0.769845         436.404         121.598 
        0.78569         431.766          116.28 
       0.801365         420.017         111.335 
       0.817031         408.039         106.683 
       0.832809         405.589          102.27 
       0.848511         395.982         98.1285 
       0.864097         386.887          94.247 
       0.879701         382.186         90.5736 
       0.895507         377.898         87.0545 
       0.911279         366.106         83.7313 
        0.92691         361.985         80.6108 
       0.942635         354.923         77.6335 
       0.958396         346.859         74.8015 
       0.974128         341.624         72.1173 
       0.989692         337.802         69.5924 
        1.00528         331.432         67.1858 
        1.02113         329.427         64.8562 
        1.03692         320.542         62.6466 
        1.05264         317.771         60.5509 
        1.06832         310.644         58.5553 
        1.08405         305.387          56.645 
        1.09979          300.71         54.8195 
        1.11537         295.474         53.0932 
        1.13105         289.726         51.4316 
        1.14679         287.198         49.8353 
        1.16256         280.747         48.3041 
        1.17828         277.895         46.8429 
        1.19395         272.767         45.4475 
         1.2097         271.233         44.1023 
        1.22537          264.66         42.8185 
          1.241         263.759         41.5901 
        1.25666         257.437         40.4072 
        1.27241         254.804         39.2651 
        1.28819         251.188         38.1655 
        1.30392         245.545         37.1116 
        1.31957         245.983         36.1025 
        1.33529         240.968         35.1275 
        1.35108         235.744         34.1849 
        1.36674         234.662         33.2839 
         1.3824         231.824         32.4164 
        1.39811         229.723         31.5772 
        1.41389          225.56         30.7647 
        1.42964         222.937         29.9824 
        1.44531         219.675         29.2313 
        1.46101         217.715         28.5044 
        1.47667         213.142         27.8047 
        1.49229         211.166         27.1305 
        1.50793         207.654          26.478 
        1.52367         205.637         25.8429 
        1.53953         202.471         25.2245 
        1.55526         198.425         24.6315 
        1.57092         197.535         24.0601 
        1.58662         194.627         23.5055 
        1.60235         191.763         22.9675 
        1.61809         190.293         22.4462 
        1.63369         186.806         21.9458 
        1.64941          183.31         21.4571 
        1.66519         182.783         20.9817 
        1.68085         180.856         20.5241 
        1.69652         177.341         20.0802 
        1.71228         174.668         19.6469 
        1.72806         172.675         19.2261 
        1.74368         171.213          18.822 
        1.75933         168.373         18.4288 
        1.77505         166.739          18.045 
        1.79081         165.741         17.6715 
         1.8065         163.333         17.3103 
        1.82218         160.493         16.9595 
        1.83797         159.464         16.6162 
        1.85367         157.189         16.2842 
        1.86928         154.958         15.9634 
        1.88497         152.622         15.6496 
        1.90073          151.59          15.343 
        1.91647         149.784          15.045 
        1.93218         147.802         14.7556 
        1.94787         146.269         14.4743 
        1.96363         143.592         14.1992 
        1.97935         141.935         13.9319 
        1.99499         140.105          13.673 
        2.01064          138.86         13.4204 
         2.0264         136.681         13.1726 
        2.04216         135.268         12.9312 
        2.05781         134.139         12.6974 
        2.07353         132.836         12.4686 
        2.08928         130.083         12.2449 
        2.10499         128.248         12.0274 
        2.12065         127.178         11.8158 
        2.13633         126.573         11.6092 
        2.15211         123.813         11.4062 
        2.16785         121.958         11.2087 
        2.18349         121.235         11.0171 
        2.19916         119.881         10.8296 
        2.21489         118.595         10.6458 
        2.23063         116.729         10.4662 
         2.2463         115.266         10.2916 
        2.26194         114.617         10.1215 
        2.27765          113.18         9.95429 
        2.29341         111.899         9.79048 
        2.30914         110.467          9.6307 
        2.32486         109.694          9.4746 
        2.34061         108.121         9.32172 
        2.35635         106.585         9.17237 
        2.37203         105.287         9.02681 
        2.38768         104.243         8.88474 
        2.40339         103.381         8.74522 
        2.41914         101.917         8.60839 
        2.43483         100.638         8.47499 
         2.4505         99.7263         8.34464 
        2.46622         98.2029         8.21661 
        2.48195         97.1904         8.09126 
        2.49759         96.2255         7.96921 
        2.51328         95.3871         7.84938 
        2.52906         93.7623         7.73126 
        2.54479         93.1525         7.61602 
        2.56049         92.1384         7.50337 
        2.57618         91.1681          7.3931 
        2.59189         90.0216         7.28489 
        2.60758         89.2831         7.17903 
        2.62325         88.1097         7.07541 
        2.63898         87.0472         6.97349 
        2.65468         86.1557         6.87379 
        2.67044         85.0846         6.77563 
        2.68618         84.1974         6.67962 
        2.70184         83.8278         6.58586 
        2.71755         82.9573         6.49367 
        2.73329          81.796         6.40312 
        2.74897         81.0009         6.31459 
        2.76462         79.8908         6.22794 
        2.78034         79.1026         6.14257 
        2.79607          77.995         6.05871 
        2.81179         77.3802         5.97653 
        2.82749         76.5695         5.89596 
        2.84321         75.8501          5.8168 
        2.85893         74.9762         5.73912 
        2.87462         74.0324           5.663 
        2.89033         73.2799         5.58819 
        2.90605         72.4356         5.51468 
        2.92176         72.0677         5.44253 
        2.93747         71.3397         5.37172 
        2.95318          70.402         5.30215 
        2.96891         69.7911          5.2338 
        2.98456         69.0789         5.16695 
        3.00023         68.2704         5.10118 
        3.01596         67.6926         5.03635 
        3.03164           66.76         4.97284 
        3.04738         66.1941         4.91025 
         3.0631         65.5435         4.84875 
        3.07883         64.8753         4.78832 
        3.09456         64.4245         4.72892 
        3.11026         63.3245         4.67063 
        3.12596         62.8953         4.61333 
        3.14163         62.1356         4.55713 
        3.15734         61.7455         4.50174 
        3.17308         60.9989         4.44714 
        3.18879         60.5338          4.3936 
        3.20447         59.4757         4.34102 
         3.2202         59.3679         4.28914 
         3.2359         58.6789          4.2382 
        3.25157         58.1168         4.18822 
        3.26729         57.6495         4.13889 
        3.28304         56.9174         4.09027 
        3.29877         56.4215         4.04249 
        3.31446          55.881         3.99558 
        3.33014         55.4413         3.94947 
        3.34585         55.0102         3.90401 
        3.36158         54.3932          3.8592 
        3.37727         53.8938         3.81524 
        3.39294         53.2515           3.772 
        3.40867         52.8154         3.72929 
        3.42439         52.2627         3.68726 
        3.44008          51.698         3.64596 
        3.45578         51.1993         3.60527 
        3.47153         50.6856         3.56511 
        3.48724         50.3525         3.52563 
        3.50292         49.9476         3.48685 
        3.51859         49.3835         3.44867 
        3.53431         48.8217         3.41095 
        3.55007         48.3548          3.3737 
        3.56577          48.068         3.33716 
        3.58146         47.5299         3.30117 
        3.59719         46.9202         3.26564 
        3.61292         46.5435         3.23064 
        3.62859          46.362         3.19629 
        3.64429         45.8927         3.16237 
        3.66003         45.3472         3.12884 
        3.67578         44.8779         3.09582 
        3.69146         44.4669          3.0634 
        3.70712         44.1968          3.0315 
        3.72284          43.659         2.99994 
        3.73853         43.2885         2.96888 
        3.75422         42.8345         2.93826 
        3.76993         42.5959         2.90804 
        3.78564         42.3366         2.87826 
        3.80137           41.75         2.84885 
        3.81707         41.3434         2.81992 
        3.83279          41.152         2.79136 
        3.84853         40.6939         2.76316 
        3.86424         40.2009          2.7354 
        3.87992         39.9242         2.70807 
        3.89561         39.5867         2.68111 
        3.91134           39.24         2.65446 
        3.92704         38.9435         2.62821 
        3.94273         38.5244         2.60234 
        3.95845         38.1573         2.57677 
        3.97418         38.0191         2.55154 
        3.98988         37.5179         2.52668 
        4.00554         37.1171         2.50223 
        4.02125         36.9458         2.47802 
        4.03698         36.5379         2.45411 
        4.05268         36.3796         2.43056 
        4.06839         35.8846         2.40731 
         4.0841         35.6596         2.38436 
        4.09983         35.3403         2.36169 
        4.11555         34.9947         2.33932 
        4.13124         34.6325         2.31731 
        4.14693         34.3526         2.29556 
        4.16266           34.14         2.27403 
        4.17839         33.8474          2.2528 
        4.19408         33.5266         2.23189 
        4.20977          33.235         2.21124 
        4.22551          33.053          2.1908 
        4.24123          32.712         2.17064 
        4.25691         32.4318         2.15079 
        4.27259         32.1189         2.13118 
        4.28831         31.8207         2.11178 
        4.30404         31.5742          2.0926 
        4.31974         31.4024          2.0737 
        4.33543         31.0508         2.05505 
        4.35116         30.8924         2.03658 
        4.36688         30.5769         2.01835 
        4.38255         30.2767         2.00041 
        4.39825         30.0762         1.98264 
        4.41398         29.7305         1.96506 
         4.4297         29.5412         1.94772 
        4.44541         29.2908         1.93058 
        4.46111         29.0711         1.91367 
        4.47683         28.8599         1.89695 
        4.49251         28.5947         1.88046 
        4.50819          28.322         1.86417 
         4.5239         28.1602         1.84805 
        4.53962         27.8862         1.83211 
        4.55535         27.6747         1.81634 
        4.57106         27.4489         1.80079 
        4.58678         27.2742         1.78541 
         4.6025         27.0819         1.77021 
        4.61821         26.8481         1.75519 
        4.63391         26.5547         1.74036 
         4.6496         26.3609         1.72571 
        4.66532         26.1364         1.71121 
        4.68103         25.9264         1.69688 
        4.69673         25.7456         1.68273 
        4.71241         25.5935         1.66876 
        4.72811          25.357         1.65492 
        4.74384         25.1611         1.64123 
        4.75955         24.9708          1.6277 
        4.77525         24.7541         1.61434 
        4.79096         24.5855         1.60112 
        4.80669         24.4125         1.58803 
         4.8224         24.1379         1.57511 
        4.83809         23.9527         1.56234 
        4.85379         23.7765         1.54971 
         4.8695         23.6292         1.53721 
        4.88521         23.4165         1.52485 
        4.90093         23.2838         1.51263 
        4.91663         23.0572         1.50055 
        4.93234         22.8233         1.48859 
        4.94807         22.6942         1.47676 
        4.96377         22.5291         1.46507 
        4.97943         22.3971         1.45354 
        4.99514         22.1779          1.4421 
        5.01086         22.0075         1.43078 
        5.02654         21.8614         1.41961 
        5.04227         21.7086         1.40852 
          5.058         21.5024         1.39755 
        5.07371         21.4022         1.38672 
        5.08942         21.2468           1.376 
        5.10513          21.061         1.36539 
        5.12084          20.856         1.35489 
        5.13656         20.7033          1.3445 
        5.15225         20.5755         1.33424 
        5.16796         20.4364         1.32407 
        5.18369          20.257           1.314 
         5.1994         20.1237         1.30405 
        5.21509         19.9477         1.29422 
        5.23079         19.8117         1.28447 
        5.24649         19.6648         1.27483 
        5.26217         19.5224          1.2653 
        5.27788         19.3756         1.25585 
        5.29359         19.2453          1.2465 
        5.30933         19.1115         1.23723 
        5.32504         18.9692         1.22807 
        5.34073         18.8571         1.21901 
        5.35646         18.7127         1.21003 
        5.37218         18.5212         1.20113 
        5.38789         18.4008         1.19234 
        5.40357         18.2957         1.18365 
        5.41929         18.1324         1.17502 
        5.43502         18.0353         1.16648 
         5.4507         17.8989         1.15805 
        5.46639         17.7386          1.1497 
        5.48212         17.6032         1.14141 
        5.49786         17.5275         1.13319 
        5.51353         17.3737          1.1251 
        5.52921         17.2343         1.11708 
        5.54495         17.1727         1.10911 
        5.56066         17.0334         1.10123 
        5.57637         16.9019         1.09342 
        5.59207         16.7712          1.0857 
        5.60778         16.6614         1.07805 
        5.62346         16.5648         1.07049 
        5.63916         16.4109         1.06299 
        5.65487         16.3008         1.05556 
         5.6706         16.2012         1.04819 
        5.68633          16.047         1.04089 
        5.70203         15.9814         1.03367 
        5.71773         15.8609         1.02653 
        5.73344         15.7635         1.01944 
        5.74916         15.6072         1.01242 
        5.76486         15.5323         1.00548 
        5.78054         15.4349        0.998608 
        5.79626         15.2963        0.991784 
          5.812         15.2141        0.985017 
         5.8277         15.0853        0.978332 
        5.84339         15.0158        0.971711 
        5.85911         14.9018        0.965138 
        5.87484         14.7855        0.958627 
        5.89053         14.6869        0.952189 
        5.90623         14.5923        0.945808 
        5.92195          14.484        0.939474 
        5.93767         14.3787        0.933202 
        5.95336          14.289        0.926998 
        5.96905         14.1923        0.920852 
        5.98476         14.1231        0.914754 
        6.00048         13.9918        0.908709 
        6.01617          13.914        0.902727 
        6.03185         13.7953        0.896807 
        6.04756         13.7081        0.890925 
        6.06331         13.6434        0.885084 
        6.07903         13.5351        0.879308 
        6.09473         13.4576        0.873588 
        6.11044         13.3681        0.867915 
        6.12616         13.2898        0.862293 
        6.14186         13.1863        0.856727 
        6.15755         13.0851         0.85121 
        6.17326         12.9947        0.845738 
        6.18898         12.9368        0.840311 
        6.20467         12.8173        0.834942 
        6.22036         12.7561         0.82962 
         6.2361         12.6697         0.82433 
         6.2518         12.5952        0.819096 
        6.26748          12.489        0.813918 
        6.28319         12.4343        0.808771 
        6.29893         12.3551        0.803664 
        6.31463         12.2402        0.798611 
        6.33033         12.1736        0.793602 
        6.34604         12.1001        0.788633 
        6.36177         12.0185        0.783702 
        6.37747         11.9566        0.778822 
