# k  (h/Mpc)    Pcb(k)  (Mpc/h)^3    Pcb_linear(k) (Mpc/h)^3   ShotnoiseSubtracted = true
      0.0200456         12642.4         12844.5 
      0.0350414         10015.5         9778.78 
      0.0492313         7184.38         7284.59 
      0.0637834         5868.45         6119.42 
      0.0800726         4689.92         4937.98 
       0.096163         3745.24         3651.86 
       0.111083         3067.87         2930.33 
       0.126058         2555.39         2600.48 
       0.142273         2227.75         2227.26 
       0.158546          1846.5         1780.42 
        0.17375          1626.6         1502.85 
       0.188953         1512.97         1360.51 
       0.204907         1301.56         1212.58 
       0.220756          1173.2         1035.04 
        0.23588         1046.09         901.711 
         0.2514         940.399         818.849 
       0.267535          914.26         744.477 
       0.283568         804.193         660.664 
       0.299022         769.104         589.768 
       0.314451         783.507         539.099 
       0.330372         676.934         495.952 
       0.346141         627.976         452.137 
       0.361624         602.133         411.878 
       0.377134         567.363          379.24 
       0.392932          550.33         351.539 
       0.408854         523.998         325.043 
       0.424564         508.196         300.251 
       0.440253           462.6         278.681 
       0.455999         444.056         260.004 
       0.471626         448.567          242.98 
        0.48727         425.737         226.963 
       0.502856         393.338         212.446 
       0.518488         394.117         199.482 
       0.534347         367.102         187.477 
       0.550082         356.079         176.402 
       0.565732         354.177         166.211 
       0.581496         340.171         156.851 
       0.597222         330.917         148.273 
       0.612804         323.236         140.386 
       0.628434         310.338         133.016 
       0.644267          298.04         126.107 
       0.660051         293.301         119.735 
       0.675724         290.776         113.846 
       0.691403         282.418         108.351 
       0.707174         272.663          103.19 
       0.722871         268.946         98.3862 
        0.73838         266.481         93.9414 
       0.754018         253.922         89.7388 
       0.769845         253.349         85.7487 
        0.78569         247.842         81.9988 
       0.801365          241.56         78.5115 
       0.817031         235.823          75.231 
       0.832809         232.779         72.1189 
       0.848511         227.007         69.1984 
       0.864097         222.066         66.4612 
       0.879701         220.887         63.8708 
       0.895507         215.455         61.3892 
       0.911279           209.3         59.0458 
        0.92691          207.26         56.8452 
       0.942635          205.24         54.7456 
       0.958396         200.555         52.7486 
       0.974128         196.672         50.8557 
       0.989692         191.237         49.0753 
        1.00528         190.102         47.3782 
        1.02113         186.414         45.7353 
        1.03692         183.384         44.1772 
        1.05264         180.965         42.6994 
        1.06832         179.131         41.2921 
        1.08405         175.034          39.945 
        1.09979          174.23         38.6577 
        1.11537         170.332         37.4403 
        1.13105         168.374         36.2686 
        1.14679          165.89         35.1429 
        1.16256         163.548         34.0632 
        1.17828         161.528         33.0327 
        1.19395         157.296         32.0487 
         1.2097         156.998         31.1001 
        1.22537         154.648         30.1948 
          1.241         152.416         29.3285 
        1.25666         149.012         28.4944 
        1.27241         145.905          27.689 
        1.28819         145.001         26.9136 
        1.30392         142.422         26.1704 
        1.31957         140.232         25.4588 
        1.33529         138.889         24.7712 
        1.35108         137.035         24.1065 
        1.36674         134.709         23.4712 
         1.3824         134.316         22.8594 
        1.39811         130.673         22.2677 
        1.41389         129.859         21.6947 
        1.42964         127.297          21.143 
        1.44531         126.096         20.6133 
        1.46101         124.028         20.1008 
        1.47667          123.57         19.6073 
        1.49229         122.015         19.1319 
        1.50793         119.761         18.6718 
        1.52367         118.484         18.2239 
        1.53953         116.719         17.7879 
        1.55526         115.575         17.3697 
        1.57092         114.466         16.9667 
        1.58662         112.826         16.5757 
        1.60235          110.86         16.1963 
        1.61809         110.305         15.8286 
        1.63369         108.285         15.4757 
        1.64941         108.177         15.1311 
        1.66519          105.85         14.7959 
        1.68085          104.74         14.4732 
        1.69652         103.042         14.1602 
        1.71228         102.258         13.8546 
        1.72806         100.959         13.5579 
        1.74368         99.3622         13.2729 
        1.75933         98.5551         12.9956 
        1.77505         97.4606          12.725 
        1.79081         96.0381         12.4616 
         1.8065         95.2354         12.2069 
        1.82218         93.6896         11.9595 
        1.83797         93.1924         11.7174 
        1.85367         91.4435         11.4833 
        1.86928         90.7709         11.2571 
        1.88497         89.8353         11.0358 
        1.90073         88.9053         10.8196 
        1.91647         87.1429         10.6095 
        1.93218         86.3628         10.4054 
        1.94787         85.4734          10.207 
        1.96363         84.3549          10.013 
        1.97935         83.7756         9.82452 
        1.99499         82.6861         9.64196 
        2.01064         81.6164          9.4638 
         2.0264         80.2613         9.28905 
        2.04216         79.6617         9.11882 
        2.05781         78.8076         8.95396 
        2.07353         77.7158         8.79261 
        2.08928         76.8795          8.6349 
        2.10499         75.8708          8.4815 
        2.12065         75.4721         8.33231 
        2.13633         74.6837          8.1866 
        2.15211          73.473         8.04346 
        2.16785         72.3063         7.90415 
        2.18349         71.6861         7.76903 
        2.19916          70.855          7.6368 
        2.21489         70.0117         7.50723 
        2.23063          69.176          7.3806 
         2.2463         68.5611         7.25747 
        2.26194          67.886         7.13747 
        2.27765         66.9777         7.01958 
        2.29341         66.1135         6.90406 
        2.30914         65.3047         6.79139 
        2.32486         64.4476         6.68131 
        2.34061         64.1141          6.5735 
        2.35635         63.1098         6.46818 
        2.37203         62.6938         6.36554 
        2.38768         61.8817         6.26535 
        2.40339         61.1442         6.16697 
        2.41914         60.5552         6.07047 
        2.43483         59.8409          5.9764 
         2.4505         59.2517         5.88448 
        2.46622         58.6394          5.7942 
        2.48195         57.9275         5.70581 
        2.49759         57.2703         5.61974 
        2.51328         56.8398         5.53523 
        2.52906         56.0363         5.45194 
        2.54479         55.5093         5.37068 
        2.56049         54.6877         5.29123 
        2.57618         54.1653         5.21348 
        2.59189         53.7851         5.13717 
        2.60758         52.9449         5.06252 
        2.62325          52.513         4.98945 
        2.63898         51.9595         4.91757 
        2.65468         51.5495         4.84727 
        2.67044         50.8035         4.77805 
        2.68618         50.5091         4.71034 
        2.70184         49.6643         4.64422 
        2.71755         49.3603         4.57921 
        2.73329         48.6944         4.51536 
        2.74897         48.3781         4.45293 
        2.76462         47.8195         4.39183 
        2.78034         47.2655         4.33162 
        2.79607         46.8026         4.27249 
        2.81179          46.301         4.21453 
        2.82749         45.8265         4.15772 
        2.84321         45.4101          4.1019 
        2.85893         44.8561         4.04712 
        2.87462         44.2339         3.99344 
        2.89033          43.981         3.94069 
        2.90605         43.3684         3.88885 
        2.92176          43.124         3.83797 
        2.93747         42.7143         3.78803 
        2.95318         42.3679         3.73898 
        2.96891         41.8215         3.69077 
        2.98456         41.4846         3.64364 
        3.00023         40.9756         3.59726 
        3.01596         40.5678         3.55154 
        3.03164         40.1361         3.50676 
        3.04738         39.8026         3.46261 
         3.0631         39.5497         3.41925 
        3.07883          39.043         3.37663 
        3.09456         38.4983         3.33475 
        3.11026          38.149         3.29364 
        3.12596         37.8277         3.25324 
        3.14163         37.4444          3.2136 
        3.15734         37.1287         3.17454 
        3.17308         36.7908         3.13604 
        3.18879         36.3363         3.09828 
        3.20447         36.0366          3.0612 
         3.2202         35.7033         3.02462 
         3.2359         35.2983          2.9887 
        3.25157         35.1122         2.95345 
        3.26729         34.6614         2.91867 
        3.28304         34.3443         2.88438 
        3.29877         33.8771         2.85069 
        3.31446         33.6041         2.81761 
        3.33014         33.2825         2.78509 
        3.34585         32.9897         2.75303 
        3.36158          32.692         2.72144 
        3.37727         32.4059         2.69043 
        3.39294          32.113         2.65995 
        3.40867         31.7602         2.62982 
        3.42439         31.5223         2.60019 
        3.44008         31.1805         2.57106 
        3.45578         30.9862         2.54237 
        3.47153         30.6225         2.51405 
        3.48724         30.3022         2.48621 
        3.50292         30.0668         2.45886 
        3.51859         29.6743         2.43194 
        3.53431         29.3814         2.40534 
        3.55007         29.1575         2.37907 
        3.56577         28.8859          2.3533 
        3.58146         28.6476         2.32792 
        3.59719         28.4526         2.30286 
        3.61292         28.1346         2.27818 
        3.62859         27.9261         2.25396 
        3.64429         27.5653         2.23004 
        3.66003         27.4269          2.2064 
        3.67578         27.1745         2.18311 
        3.69146         26.9709         2.16025 
        3.70712         26.6402         2.13775 
        3.72284          26.456          2.1155 
        3.73853         26.1914          2.0936 
        3.75422         25.8293           2.072 
        3.76993         25.6807          2.0507 
        3.78564         25.4546          2.0297 
        3.80137         25.2216         2.00896 
        3.81707         25.0577         1.98855 
        3.83279         24.8181         1.96842 
        3.84853         24.5877         1.94853 
        3.86424         24.3489         1.92895 
        3.87992         24.1085         1.90968 
        3.89561         23.9931         1.89067 
        3.91134         23.6926         1.87187 
        3.92704         23.5067         1.85336 
        3.94273         23.2851         1.83512 
        3.95845         23.0832         1.81709 
        3.97418         22.8291          1.7993 
        3.98988         22.7223         1.78177 
        4.00554         22.5759         1.76452 
        4.02125         22.2859         1.74746 
        4.03698         22.0904         1.73059 
        4.05268         21.9213         1.71399 
        4.06839         21.7282         1.69759 
         4.0841          21.538         1.68141 
        4.09983         21.2734         1.66542 
        4.11555         21.1251         1.64965 
        4.13124         21.0206         1.63412 
        4.14693         20.8028         1.61878 
        4.16266         20.7065         1.60361 
        4.17839         20.4727         1.58863 
        4.19408         20.2083         1.57389 
        4.20977         20.1114         1.55932 
        4.22551         19.9019         1.54491 
        4.24123         19.7643         1.53069 
        4.25691         19.5398         1.51669 
        4.27259         19.4417         1.50287 
        4.28831         19.2481         1.48918 
        4.30404         19.1186         1.47566 
        4.31974         19.0087         1.46233 
        4.33543         18.7953         1.44918 
        4.35116         18.6083         1.43616 
        4.36688         18.4812          1.4233 
        4.38255         18.3008         1.41065 
        4.39825         18.1434         1.39812 
        4.41398         18.0427         1.38573 
         4.4297         17.8814         1.37349 
        4.44541         17.6776         1.36141 
        4.46111         17.5949         1.34948 
        4.47683         17.3954         1.33769 
        4.49251         17.2726         1.32606 
        4.50819         17.1486         1.31458 
         4.5239              17         1.30321 
        4.53962         16.8543         1.29197 
        4.55535         16.7091         1.28085 
        4.57106         16.6032         1.26988 
        4.58678          16.455         1.25904 
         4.6025         16.3232         1.24832 
        4.61821         16.2202         1.23773 
        4.63391         16.0588         1.22727 
         4.6496         15.8839         1.21694 
        4.66532         15.7873         1.20671 
        4.68103         15.6885         1.19661 
        4.69673         15.5723         1.18663 
        4.71241         15.4406         1.17678 
        4.72811         15.2942         1.16702 
        4.74384         15.1915         1.15736 
        4.75955         15.0487         1.14783 
        4.77525         14.9225          1.1384 
        4.79096         14.8217         1.12908 
        4.80669         14.7015         1.11985 
         4.8224         14.5833         1.11074 
        4.83809          14.502         1.10173 
        4.85379         14.3727         1.09283 
         4.8695         14.2589         1.08401 
        4.88521         14.1349          1.0753 
        4.90093         14.0341         1.06668 
        4.91663         13.9755         1.05816 
        4.93234         13.8731         1.04973 
        4.94807         13.7221         1.04138 
        4.96377         13.6324         1.03314 
        4.97943         13.5554         1.02501 
        4.99514         13.3908         1.01694 
        5.01086         13.2824         1.00896 
        5.02654         13.1969         1.00108 
        5.04227         13.0851        0.993264 
          5.058         13.0069        0.985527 
        5.07371         12.9114        0.977888 
        5.08942         12.7956        0.970328 
        5.10513         12.7116        0.962849 
        5.12084         12.6277        0.955444 
        5.13656         12.5591        0.948119 
        5.15225         12.4202        0.940884 
        5.16796         12.3358        0.933713 
        5.18369         12.2307         0.92661 
         5.1994         12.1534        0.919594 
        5.21509         12.0705        0.912658 
        5.23079         11.9751        0.905785 
        5.24649         11.8774        0.898988 
        5.26217          11.784        0.892266 
        5.27788          11.719        0.885604 
        5.29359         11.6258        0.879008 
        5.30933         11.5563        0.872471 
        5.32504         11.4712        0.866011 
        5.34073          11.374        0.859624 
        5.35646          11.294        0.853288 
        5.37218         11.2033        0.847016 
        5.38789         11.1348        0.840817 
        5.40357         11.0656        0.834687 
        5.41929          10.983        0.828605 
        5.43502          10.917        0.822583 
         5.4507         10.8158        0.816635 
        5.46639         10.7299        0.810746 
        5.48212         10.6631        0.804901 
        5.49786         10.5763        0.799107 
        5.51353         10.5158        0.793399 
        5.52921         10.4314        0.787741 
        5.54495         10.3395        0.782121 
        5.56066          10.279        0.776563 
        5.57637         10.2034         0.77106 
        5.59207         10.1448        0.765615 
        5.60778         10.0597        0.760221 
        5.62346         9.97435        0.754887 
        5.63916          9.9293        0.749598 
        5.65487          9.8595        0.744358 
         5.6706         9.78023        0.739162 
        5.68633         9.70605        0.734014 
        5.70203         9.62346        0.728926 
        5.71773         9.59455        0.723887 
        5.73344         9.52238        0.718893 
        5.74916         9.47051        0.713941 
        5.76486         9.37207        0.709044 
        5.78054         9.31925        0.704199 
        5.79626         9.24205        0.699387 
          5.812         9.19667        0.694615 
         5.8277         9.13643        0.689902 
        5.84339         9.06249        0.685232 
        5.85911         9.00929        0.680597 
        5.87484         8.93563        0.676006 
        5.89053         8.86422        0.671466 
        5.90623          8.8222        0.666966 
        5.92195         8.76449        0.662499 
        5.93767         8.71386        0.658076 
        5.95336         8.64671        0.653701 
        5.96905         8.57775        0.649368 
        5.98476         8.52762        0.645067 
        6.00048         8.48051        0.640805 
        6.01617         8.40819        0.636586 
        6.03185         8.36619        0.632411 
        6.04756         8.30887        0.628264 
        6.06331         8.24924        0.624145 
        6.07903         8.19657        0.620071 
        6.09473         8.14645        0.616038 
        6.11044         8.10075        0.612037 
        6.12616         8.03684        0.608073 
        6.14186         7.98546        0.604147 
        6.15755          7.9196        0.600257 
        6.17326           7.886        0.596398 
        6.18898         7.82421        0.592571 
        6.20467         7.76376        0.588785 
        6.22036         7.72407        0.585032 
         6.2361         7.67844        0.581302 
         6.2518         7.62056        0.577611 
        6.26748         7.57175         0.57396 
        6.28319         7.52716         0.57033 
        6.29893         7.47017        0.566729 
        6.31463          7.4219        0.563165 
        6.33033         7.37088        0.559633 
        6.34604         7.33115        0.556129 
        6.36177         7.29285        0.552652 
        6.37747         7.24746        0.549211 
