# k  (h/Mpc)    Pcb(k)  (Mpc/h)^3    Pcb_linear(k) (Mpc/h)^3   ShotnoiseSubtracted = true
      0.0200456         13509.1         13802.8 
      0.0350414         10122.5         10508.3 
      0.0492313         7710.39         7828.06 
      0.0637834         6681.46         6575.97 
      0.0800726         5356.43         5306.38 
       0.096163         3797.05         3924.31 
       0.111083         3041.22         3148.95 
       0.126058         2811.92         2794.49 
       0.142273         2445.95         2393.42 
       0.158546         2096.25         1913.25 
        0.17375         1683.57         1614.97 
       0.188953         1634.76         1462.01 
       0.204907         1544.97         1303.04 
       0.220756         1329.84         1112.26 
        0.23588         1177.11         968.984 
         0.2514         1027.73          879.94 
       0.267535         1016.55          800.02 
       0.283568         924.859         709.954 
       0.299022         867.851         633.768 
       0.314451         824.465         579.319 
       0.330372         760.796         532.953 
       0.346141          704.01         485.869 
       0.361624         676.494         442.607 
       0.377134         629.858         407.533 
       0.392932         605.983         377.765 
       0.408854         584.885         349.293 
       0.424564         552.186         322.651 
       0.440253          539.62         299.472 
       0.455999         510.754         279.402 
       0.471626         481.874         261.108 
        0.48727         468.208         243.895 
       0.502856         454.618         228.296 
       0.518488         450.141         214.365 
       0.534347         421.392         201.464 
       0.550082         402.143         189.562 
       0.565732         401.533         178.611 
       0.581496           378.9         168.553 
       0.597222         373.018         159.335 
       0.612804         361.555         150.859 
       0.628434         348.529          142.94 
       0.644267         338.743         135.515 
       0.660051         331.714         128.668 
       0.675724         327.517          122.34 
       0.691403         317.826         116.435 
       0.707174         306.205         110.888 
       0.722871          303.05         105.726 
        0.73838         298.376          100.95 
       0.754018         289.985         96.4338 
       0.769845         280.653          92.146 
        0.78569         280.579         88.1164 
       0.801365         271.407         84.3689 
       0.817031         263.512         80.8437 
       0.832809         260.678         77.4993 
       0.848511          254.23          74.361 
       0.864097         250.866         71.4196 
       0.879701         246.642         68.6359 
       0.895507         240.722         65.9692 
       0.911279         233.663         63.4509 
        0.92691         233.429         61.0862 
       0.942635         228.248           58.83 
       0.958396         226.229          56.684 
       0.974128         221.262         54.6499 
       0.989692         216.232         52.7366 
        1.00528          213.62         50.9128 
        1.02113         212.241         49.1475 
        1.03692         206.171          47.473 
        1.05264         202.352          45.885 
        1.06832         199.086         44.3727 
        1.08405         195.733         42.9251 
        1.09979         194.518         41.5418 
        1.11537         189.178         40.2336 
        1.13105         186.864         38.9744 
        1.14679         186.751         37.7648 
        1.16256         183.211         36.6045 
        1.17828          179.33         35.4971 
        1.19395         177.138         34.4397 
         1.2097         175.897         33.4204 
        1.22537           172.3         32.4475 
          1.241         170.422         31.5166 
        1.25666         167.326         30.6202 
        1.27241          164.77         29.7547 
        1.28819         163.031         28.9215 
        1.30392         160.928         28.1229 
        1.31957         159.559         27.3582 
        1.33529          155.49         26.6193 
        1.35108         154.408          25.905 
        1.36674         153.224         25.2223 
         1.3824         149.933         24.5649 
        1.39811         149.951         23.9289 
        1.41389           146.7         23.3132 
        1.42964          143.85         22.7204 
        1.44531         141.551         22.1512 
        1.46101         140.389         21.6004 
        1.47667         138.182         21.0702 
        1.49229          136.74         20.5592 
        1.50793         135.673         20.0648 
        1.52367         134.042         19.5835 
        1.53953         131.396         19.1149 
        1.55526         129.871         18.6655 
        1.57092         128.405         18.2325 
        1.58662         126.355         17.8123 
        1.60235         125.668         17.4046 
        1.61809         123.449         17.0095 
        1.63369         122.216         16.6303 
        1.64941         121.002           16.26 
        1.66519         118.871         15.8997 
        1.68085         118.088          15.553 
        1.69652         115.044         15.2166 
        1.71228         115.468         14.8883 
        1.72806         113.675         14.5694 
        1.74368         112.392         14.2632 
        1.75933         110.834         13.9652 
        1.77505          109.46         13.6743 
        1.79081         108.211         13.3913 
         1.8065         106.886         13.1176 
        1.82218         104.873         12.8518 
        1.83797         103.766         12.5916 
        1.85367         102.647         12.3401 
        1.86928         102.012          12.097 
        1.88497         99.8479         11.8591 
        1.90073          99.524         11.6268 
        1.91647          97.828          11.401 
        1.93218         96.8562         11.1817 
        1.94787         95.9604         10.9685 
        1.96363          94.457           10.76 
        1.97935         93.3203         10.5575 
        1.99499         92.3737         10.3613 
        2.01064         91.3978         10.1699 
         2.0264         89.8072         9.98207 
        2.04216         88.8883         9.79914 
        2.05781         87.9725         9.62198 
        2.07353         86.4411         9.44859 
        2.08928          85.433         9.27911 
        2.10499         84.6042         9.11427 
        2.12065         84.1696         8.95395 
        2.13633         82.9192         8.79737 
        2.15211         81.8806         8.64354 
        2.16785         80.8916         8.49384 
        2.18349         79.9143         8.34865 
        2.19916         79.1427         8.20655 
        2.21489         78.1747         8.06732 
        2.23063         77.3349         7.93123 
         2.2463         76.5079         7.79892 
        2.26194         75.9892         7.66996 
        2.27765         74.7982         7.54328 
        2.29341         73.8984         7.41914 
        2.30914         72.8365         7.29807 
        2.32486          72.014         7.17978 
        2.34061         71.2858         7.06392 
        2.35635         70.7761         6.95074 
        2.37203         69.4527         6.84045 
        2.38768         68.9766         6.73278 
        2.40339          67.976         6.62706 
        2.41914         67.4687         6.52337 
        2.43483         67.1368         6.42227 
         2.4505         66.0315          6.3235 
        2.46622         65.3307         6.22648 
        2.48195          64.544         6.13149 
        2.49759         63.6093           6.039 
        2.51328         63.1432         5.94819 
        2.52906         62.6131         5.85868 
        2.54479         61.8477         5.77136 
        2.56049         60.9828         5.68599 
        2.57618         60.5035         5.60243 
        2.59189         59.8261         5.52043 
        2.60758         59.3383         5.44021 
        2.62325         58.6397         5.36169 
        2.63898         58.0189         5.28445 
        2.65468         57.5036          5.2089 
        2.67044         56.6795         5.13452 
        2.68618         56.4068         5.06176 
        2.70184         55.4471         4.99071 
        2.71755         55.3808         4.92085 
        2.73329         54.2293         4.85223 
        2.74897         53.7632         4.78514 
        2.76462         53.3313         4.71948 
        2.78034         52.8169         4.65479 
        2.79607         51.9791         4.59124 
        2.81179         51.5816         4.52896 
        2.82749         50.8537         4.46791 
        2.84321         50.5578         4.40792 
        2.85893         49.9086         4.34906 
        2.87462         49.2777         4.29137 
        2.89033         48.9085         4.23469 
        2.90605         48.2428         4.17898 
        2.92176         47.9103         4.12431 
        2.93747         47.3834         4.07064 
        2.95318         46.8709         4.01793 
        2.96891         46.1052         3.96613 
        2.98456         46.0566         3.91547 
        3.00023         45.4678         3.86563 
        3.01596         45.0957         3.81651 
        3.03164         44.4225         3.76838 
        3.04738         44.1792         3.72094 
         3.0631         43.6018         3.67435 
        3.07883         43.2102         3.62855 
        3.09456         42.7993         3.58354 
        3.11026         42.1947         3.53937 
        3.12596         41.9539         3.49595 
        3.14163         41.4475         3.45336 
        3.15734         40.8449         3.41138 
        3.17308         40.7468            3.37 
        3.18879         40.3589         3.32943 
        3.20447         39.7637         3.28959 
         3.2202          39.344         3.25027 
         3.2359         39.0131         3.21167 
        3.25157         38.5421          3.1738 
        3.26729         38.3228         3.13642 
        3.28304         37.8542         3.09957 
        3.29877         37.5417         3.06337 
        3.31446         37.2332         3.02782 
        3.33014         36.8617         2.99287 
        3.34585         36.4435         2.95842 
        3.36158         36.1552         2.92447 
        3.37727         35.7568         2.89116 
        3.39294         35.4177         2.85839 
        3.40867         35.0684         2.82602 
        3.42439         34.7149         2.79417 
        3.44008         34.6188         2.76288 
        3.45578         34.0033         2.73204 
        3.47153         33.7904         2.70161 
        3.48724         33.4211          2.6717 
        3.50292          33.132         2.64231 
        3.51859         32.7846         2.61338 
        3.53431         32.5612         2.58479 
        3.55007         32.2468         2.55656 
        3.56577         31.9299         2.52887 
        3.58146         31.6978          2.5016 
        3.59719         31.2933         2.47467 
        3.61292         31.0371         2.44815 
        3.62859         30.7197         2.42212 
        3.64429         30.3611         2.39642 
        3.66003         30.1667         2.37101 
        3.67578         29.8902         2.34599 
        3.69146         29.6544         2.32142 
        3.70712         29.3619         2.29724 
        3.72284         29.1542         2.27333 
        3.73853         28.8558         2.24979 
        3.75422         28.5954         2.22659 
        3.76993         28.4104         2.20369 
        3.78564         28.1267         2.18112 
        3.80137         27.8938         2.15884 
        3.81707         27.5899         2.13691 
        3.83279         27.3583         2.11527 
        3.84853         27.0177          2.0939 
        3.86424         26.7745         2.07286 
        3.87992         26.5689         2.05215 
        3.89561         26.3228         2.03172 
        3.91134         26.1301         2.01153 
        3.92704         25.8965         1.99163 
        3.94273         25.5932         1.97203 
        3.95845         25.4032         1.95265 
        3.97418          25.229         1.93353 
        3.98988         24.9115          1.9147 
        4.00554         24.7462         1.89617 
        4.02125         24.5911         1.87783 
        4.03698         24.2671          1.8597 
        4.05268          24.114         1.84186 
        4.06839         23.8721         1.82424 
         4.0841         23.7136         1.80685 
        4.09983         23.5301         1.78967 
        4.11555         23.2943         1.77272 
        4.13124         23.0445         1.75604 
        4.14693         22.8337         1.73955 
        4.16266         22.6336         1.72324 
        4.17839         22.4347         1.70716 
        4.19408         22.2391         1.69131 
        4.20977         22.1377         1.67566 
        4.22551         21.8831         1.66017 
        4.24123         21.7151         1.64489 
        4.25691         21.5373         1.62985 
        4.27259         21.3617         1.61499 
        4.28831         21.1766         1.60029 
        4.30404         20.9519         1.58575 
        4.31974         20.7908         1.57143 
        4.33543         20.6481          1.5573 
        4.35116         20.5401          1.5433 
        4.36688         20.3116         1.52949 
        4.38255         20.1578         1.51589 
        4.39825         19.9947         1.50243 
        4.41398         19.7971         1.48911 
         4.4297         19.6195         1.47596 
        4.44541         19.5021         1.46298 
        4.46111         19.3127         1.45016 
        4.47683         19.1776         1.43749 
        4.49251         19.0264           1.425 
        4.50819         18.8326         1.41265 
         4.5239         18.7249         1.40044 
        4.53962         18.5284         1.38836 
        4.55535         18.4213         1.37641 
        4.57106          18.218         1.36462 
        4.58678         18.1329         1.35297 
         4.6025         17.9589         1.34145 
        4.61821          17.803         1.33007 
        4.63391         17.6967         1.31883 
         4.6496         17.5076         1.30773 
        4.66532         17.3519         1.29674 
        4.68103         17.2386         1.28589 
        4.69673           17.15         1.27516 
        4.71241         16.9801         1.26457 
        4.72811         16.8183         1.25409 
        4.74384         16.7108         1.24371 
        4.75955         16.5794         1.23346 
        4.77525          16.464         1.22334 
        4.79096         16.3018         1.21331 
        4.80669         16.2209          1.2034 
         4.8224         16.0325          1.1936 
        4.83809         15.9072         1.18393 
        4.85379         15.7948         1.17436 
         4.8695         15.7258         1.16489 
        4.88521         15.5573         1.15552 
        4.90093         15.4889         1.14626 
        4.91663         15.3516         1.13711 
        4.93234         15.1805         1.12804 
        4.94807         15.0922         1.11908 
        4.96377         14.9625         1.11022 
        4.97943           14.87         1.10148 
        4.99514         14.7316         1.09281 
        5.01086         14.6398         1.08423 
        5.02654         14.5086         1.07577 
        5.04227         14.3789         1.06737 
          5.058         14.3238         1.05905 
        5.07371         14.1989         1.05084 
        5.08942         14.0928         1.04272 
        5.10513         13.9661         1.03468 
        5.12084         13.8683         1.02673 
        5.13656         13.7534         1.01885 
        5.15225         13.6555         1.01108 
        5.16796         13.5628         1.00337 
        5.18369         13.4359         0.99574 
         5.1994         13.3706        0.988201 
        5.21509         13.2435        0.980747 
        5.23079         13.1596        0.973361 
        5.24649         13.0593        0.966058 
        5.26217         12.9572        0.958834 
        5.27788         12.8545        0.951675 
        5.29359         12.7883        0.944587 
        5.30933          12.681        0.937562 
        5.32504          12.593         0.93062 
        5.34073         12.5091        0.923757 
        5.35646         12.4119        0.916949 
        5.37218         12.3154        0.910208 
        5.38789          12.242        0.903546 
        5.40357         12.1485        0.896959 
        5.41929         12.0503        0.890423 
        5.43502         11.9925        0.883952 
         5.4507         11.8702        0.877561 
        5.46639         11.7945        0.871232 
        5.48212         11.7166        0.864951 
        5.49786          11.639        0.858725 
        5.51353         11.5387        0.852591 
        5.52921         11.4621        0.846511 
        5.54495         11.3834        0.840472 
        5.56066         11.2854        0.834499 
        5.57637          11.207        0.828586 
        5.59207          11.152        0.822735 
        5.60778         11.0545        0.816938 
        5.62346         11.0095        0.811205 
        5.63916          10.901        0.805523 
        5.65487         10.8292        0.799892 
         5.6706         10.7629        0.794308 
        5.68633         10.6858        0.788776 
        5.70203         10.5995        0.783308 
        5.71773         10.5334        0.777893 
        5.73344         10.4508        0.772526 
        5.74916         10.3647        0.767206 
        5.76486         10.3132        0.761942 
        5.78054         10.2414        0.756737 
        5.79626         10.1662        0.751565 
          5.812         10.0924        0.746437 
         5.8277         10.0172        0.741372 
        5.84339         9.97363        0.736354 
        5.85911         9.88387        0.731373 
        5.87484         9.82597        0.726439 
        5.89053         9.75417        0.721561 
        5.90623         9.67958        0.716725 
        5.92195         9.62833        0.711926 
        5.93767          9.5546        0.707173 
        5.95336         9.51168        0.702471 
        5.96905         9.41515        0.697814 
        5.98476           9.377        0.693193 
        6.00048         9.28809        0.688612 
        6.01617         9.25047        0.684079 
        6.03185         9.17978        0.679593 
        6.04756          9.1072        0.675136 
        6.06331         9.06162        0.670709 
        6.07903         8.99257        0.666332 
        6.09473         8.94029        0.661998 
        6.11044         8.87024        0.657699 
        6.12616         8.80541        0.653439 
        6.14186         8.75023         0.64922 
        6.15755          8.6863         0.64504 
        6.17326         8.64723        0.640893 
        6.18898         8.58665        0.636781 
        6.20467         8.53817        0.632712 
        6.22036         8.45325        0.628679 
         6.2361         8.42226        0.624671 
         6.2518         8.36862        0.620704 
        6.26748         8.29988         0.61678 
        6.28319         8.25048         0.61288 
        6.29893         8.19692         0.60901 
        6.31463         8.15468        0.605181 
        6.33033         8.10067        0.601385 
        6.34604         8.05081        0.597619 
        6.36177         7.98755        0.593883 
        6.37747         7.94327        0.590185 
