# k  (h/Mpc)    Pcb(k)  (Mpc/h)^3    Pcb_linear(k) (Mpc/h)^3   ShotnoiseSubtracted = true
      0.0200456         14950.6         15199.3 
      0.0350414         11864.6         11571.6 
      0.0492313         8473.69          8620.1 
      0.0637834         6912.83         7241.31 
      0.0800726         5518.39         5843.27 
       0.096163         4432.32         4321.37 
       0.111083         3633.59         3467.56 
       0.126058         3018.44         3077.24 
       0.142273         2641.49         2635.59 
       0.158546         2189.35         2106.83 
        0.17375          1938.5         1778.37 
       0.188953         1813.87         1609.93 
       0.204907         1563.54         1434.88 
       0.220756         1411.44          1224.8 
        0.23588         1260.62         1067.02 
         0.2514         1135.93         968.972 
       0.267535            1104         880.965 
       0.283568         975.153         781.786 
       0.299022         933.685         697.892 
       0.314451         959.873         637.934 
       0.330372         833.933         586.876 
       0.346141         771.656         535.029 
       0.361624         741.063         487.389 
       0.377134         703.261         448.767 
       0.392932         679.882         415.987 
       0.408854         647.975         384.634 
       0.424564         630.893         355.296 
       0.440253         578.148         329.772 
       0.455999         554.543         307.672 
       0.471626         563.611         287.527 
        0.48727         534.003         268.572 
       0.502856          498.22         251.395 
       0.518488         495.964         236.054 
       0.534347         465.006         221.848 
       0.550082         448.495         208.742 
       0.565732          445.48         196.683 
       0.581496         433.122         185.607 
       0.597222         421.107         175.457 
       0.612804         412.228         166.123 
       0.628434         395.544         157.403 
       0.644267         381.233         149.226 
       0.660051         375.714         141.686 
       0.675724         371.251         134.718 
       0.691403         361.615         128.216 
       0.707174         348.685         122.108 
       0.722871         343.369         116.424 
        0.73838         339.832         111.164 
       0.754018         326.669         106.191 
       0.769845         325.066         101.469 
        0.78569         318.608         97.0319 
       0.801365         310.054         92.9053 
       0.817031         304.474         89.0234 
       0.832809         300.514         85.3406 
       0.848511         293.016         81.8847 
       0.864097          286.61         78.6457 
       0.879701         284.888         75.5805 
       0.895507         277.261         72.6438 
       0.911279         270.022         69.8708 
        0.92691         268.098         67.2668 
       0.942635         266.323         64.7823 
       0.958396         259.054         62.4192 
       0.974128         255.221         60.1793 
       0.989692         246.736         58.0724 
        1.00528         246.134         56.0641 
        1.02113          242.49         54.1201 
        1.03692         237.142         52.2763 
        1.05264         233.781         50.5276 
        1.06832           233.3         48.8623 
        1.08405         226.851         47.2682 
        1.09979         225.708         45.7449 
        1.11537         220.652         44.3044 
        1.13105         217.322         42.9178 
        1.14679         215.287         41.5857 
        1.16256         212.595         40.3081 
        1.17828         210.051         39.0887 
        1.19395         204.394         37.9243 
         1.2097          204.05         36.8018 
        1.22537         202.315         35.7305 
          1.241         197.746         34.7054 
        1.25666         194.806         33.7183 
        1.27241         190.808         32.7653 
        1.28819         189.341         31.8478 
        1.30392         186.226         30.9683 
        1.31957         182.526         30.1262 
        1.33529         180.616         29.3126 
        1.35108         178.514         28.5261 
        1.36674         175.816         27.7742 
         1.3824         174.474         27.0503 
        1.39811         170.796           26.35 
        1.41389         168.772          25.672 
        1.42964         166.273         25.0192 
        1.44531         164.487         24.3924 
        1.46101         161.337         23.7859 
        1.47667         160.856          23.202 
        1.49229         158.213         22.6394 
        1.50793          155.53         22.0949 
        1.52367         154.049          21.565 
        1.53953         151.229          21.049 
        1.55526         150.746         20.5541 
        1.57092         148.503         20.0773 
        1.58662         145.511         19.6145 
        1.60235         143.908         19.1656 
        1.61809         142.233         18.7305 
        1.63369         140.508         18.3129 
        1.64941          139.62         17.9052 
        1.66519         137.049         17.5085 
        1.68085         135.208         17.1266 
        1.69652         133.858         16.7562 
        1.71228         132.838         16.3946 
        1.72806         130.823         16.0435 
        1.74368          128.96         15.7063 
        1.75933         127.901         15.3782 
        1.77505         125.501         15.0579 
        1.79081         124.319         14.7463 
         1.8065         122.182         14.4448 
        1.82218         120.838         14.1521 
        1.83797         120.555         13.8656 
        1.85367         118.098         13.5886 
        1.86928         117.632         13.3209 
        1.88497         115.777          13.059 
        1.90073         114.769         12.8032 
        1.91647         112.855         12.5545 
        1.93218          111.52          12.313 
        1.94787         110.079         12.0783 
        1.96363         109.132         11.8487 
        1.97935         107.997         11.6257 
        1.99499         106.968         11.4096 
        2.01064          104.72         11.1988 
         2.0264         103.992          10.992 
        2.04216         102.128         10.7906 
        2.05781         101.528         10.5955 
        2.07353         100.139         10.4046 
        2.08928         98.8001          10.218 
        2.10499          97.607         10.0364 
        2.12065         97.3393          9.8599 
        2.13633          95.997         9.68748 
        2.15211          94.559         9.51809 
        2.16785         93.1958         9.35324 
        2.18349          91.957         9.19335 
        2.19916         91.2213         9.03688 
        2.21489         89.9243         8.88356 
        2.23063         89.0578         8.73371 
         2.2463         88.4253           8.588 
        2.26194         87.1744           8.446 
        2.27765         86.1972          8.3065 
        2.29341         85.2666          8.1698 
        2.30914         84.2028         8.03648 
        2.32486         82.4212         7.90622 
        2.34061         82.1408         7.77864 
        2.35635          81.152         7.65401 
        2.37203          80.102         7.53255 
        2.38768         79.2986           7.414 
        2.40339         78.3224         7.29758 
        2.41914          77.477         7.18339 
        2.43483         76.8363         7.07207 
         2.4505         75.6353         6.96331 
        2.46622         75.1562         6.85647 
        2.48195         74.0948         6.75187 
        2.49759         73.2559         6.65002 
        2.51328         72.4721         6.55003 
        2.52906         71.5242         6.45146 
        2.54479         70.8025          6.3553 
        2.56049         70.0499         6.26129 
        2.57618         69.0569         6.16928 
        2.59189         68.6863         6.07898 
        2.60758         67.7094         5.99065 
        2.62325         67.0257         5.90418 
        2.63898         66.1954         5.81913 
        2.65468         65.6333         5.73593 
        2.67044         64.9973         5.65402 
        2.68618         64.2639          5.5739 
        2.70184          63.327         5.49566 
        2.71755         62.7342         5.41874 
        2.73329         62.2376         5.34317 
        2.74897         61.7772          5.2693 
        2.76462          61.106         5.19699 
        2.78034         60.3248         5.12575 
        2.79607          59.388         5.05578 
        2.81179         58.8121          4.9872 
        2.82749         58.4144         4.91997 
        2.84321         57.9724         4.85391 
        2.85893         57.2034         4.78909 
        2.87462         56.4243         4.72557 
        2.89033         55.8282         4.66315 
        2.90605          55.253          4.6018 
        2.92176         54.6915          4.5416 
        2.93747         54.0598         4.48251 
        2.95318         53.7154         4.42446 
        2.96891         53.0009         4.36742 
        2.98456         52.5452         4.31163 
        3.00023         51.8027         4.25675 
        3.01596         51.4469         4.20266 
        3.03164         50.8571         4.14966 
        3.04738         50.3935         4.09743 
         3.0631         49.8869         4.04611 
        3.07883         49.4245         3.99568 
        3.09456         48.7728         3.94612 
        3.11026         48.2273         3.89747 
        3.12596         47.7928         3.84966 
        3.14163         47.4757         3.80276 
        3.15734         46.9232         3.75654 
        3.17308         46.6697         3.71098 
        3.18879         46.0724          3.6663 
        3.20447         45.4944         3.62242 
         3.2202         45.1054         3.57913 
         3.2359         44.7479         3.53663 
        3.25157         44.1508         3.49492 
        3.26729         43.8235         3.45376 
        3.28304         43.3589         3.41318 
        3.29877         42.8216         3.37331 
        3.31446         42.5649         3.33417 
        3.33014         42.0839         3.29569 
        3.34585          41.596         3.25775 
        3.36158          41.261         3.22036 
        3.37727         40.7925         3.18368 
        3.39294         40.3617          3.1476 
        3.40867         40.0988         3.11196 
        3.42439          39.644         3.07689 
        3.44008          39.309         3.04242 
        3.45578         38.9151         3.00847 
        3.47153         38.6732         2.97496 
        3.48724         38.2037         2.94202 
        3.50292         37.9024         2.90965 
        3.51859         37.5554         2.87779 
        3.53431         37.1583         2.84631 
        3.55007          36.693         2.81523 
        3.56577         36.4839         2.78474 
        3.58146         36.1214         2.75471 
        3.59719         35.7172         2.72506 
        3.61292         35.5135         2.69585 
        3.62859          35.024         2.66719 
        3.64429         34.8249         2.63888 
        3.66003         34.4856         2.61091 
        3.67578         34.1717         2.58335 
        3.69146         33.9927         2.55629 
        3.70712         33.4947         2.52968 
        3.72284         33.2994         2.50334 
        3.73853         33.0302         2.47743 
        3.75422         32.7152         2.45187 
        3.76993         32.3607         2.42666 
        3.78564          32.078         2.40181 
        3.80137         31.8321         2.37727 
        3.81707          31.499         2.35312 
        3.83279         31.1437         2.32929 
        3.84853         30.9535         2.30576 
        3.86424         30.4894         2.28259 
        3.87992         30.3561         2.25979 
        3.89561         30.1569         2.23729 
        3.91134          29.894         2.21505 
        3.92704         29.5033         2.19314 
        3.94273         29.2345         2.17156 
        3.95845         29.0909         2.15022 
        3.97418         28.7639         2.12917 
        3.98988          28.484         2.10843 
        4.00554         28.1671         2.08802 
        4.02125         28.0308         2.06782 
        4.03698         27.8046         2.04786 
        4.05268         27.4946         2.02822 
        4.06839         27.2641         2.00881 
         4.0841         27.1298         1.98967 
        4.09983         26.7401         1.97075 
        4.11555         26.5578         1.95208 
        4.13124         26.4488         1.93371 
        4.14693         26.1545         1.91556 
        4.16266         25.8661          1.8976 
        4.17839         25.8005         1.87988 
        4.19408         25.4421         1.86243 
        4.20977         25.2855          1.8452 
        4.22551         25.0788         1.82814 
        4.24123         24.8487         1.81132 
        4.25691          24.648         1.79475 
        4.27259         24.4202         1.77839 
        4.28831         24.2216          1.7622 
        4.30404         23.9653          1.7462 
        4.31974         23.7513         1.73043 
        4.33543         23.6389         1.71486 
        4.35116         23.4162         1.69945 
        4.36688         23.2305         1.68424 
        4.38255         23.0156         1.66927 
        4.39825         22.8408         1.65445 
        4.41398         22.6162         1.63978 
         4.4297         22.4547          1.6253 
        4.44541         22.1988           1.611 
        4.46111         22.0235         1.59689 
        4.47683         21.8433         1.58293 
        4.49251         21.7673         1.56918 
        4.50819         21.5566         1.55558 
         4.5239         21.3654         1.54213 
        4.53962         21.2165         1.52883 
        4.55535         21.0375         1.51567 
        4.57106         20.8569         1.50269 
        4.58678         20.6706         1.48986 
         4.6025         20.4662         1.47718 
        4.61821         20.3709         1.46464 
        4.63391         20.1942         1.45227 
         4.6496         20.0192         1.44005 
        4.66532         19.8692         1.42795 
        4.68103         19.7011         1.41599 
        4.69673         19.5288         1.40418 
        4.71241         19.4215         1.39252 
        4.72811         19.2405         1.38097 
        4.74384         19.0652         1.36954 
        4.75955         18.9511         1.35826 
        4.77525         18.7877         1.34711 
        4.79096         18.6153         1.33607 
        4.80669         18.4802         1.32516 
         4.8224         18.3319         1.31437 
        4.83809         18.1815         1.30372 
        4.85379         18.0717         1.29318 
         4.8695         17.9288         1.28275 
        4.88521          17.773         1.27244 
        4.90093         17.6289         1.26224 
        4.91663         17.4962         1.25216 
        4.93234         17.3278         1.24218 
        4.94807         17.2399          1.2323 
        4.96377         17.1186         1.22255 
        4.97943         16.9685         1.21293 
        4.99514         16.8547         1.20338 
        5.01086         16.7472         1.19394 
        5.02654         16.5786         1.18461 
        5.04227         16.4471         1.17536 
          5.058         16.3334         1.16621 
        5.07371         16.2043         1.15717 
        5.08942         16.1053         1.14822 
        5.10513         15.9847         1.13937 
        5.12084         15.8341         1.13061 
        5.13656         15.7443         1.12194 
        5.15225         15.5939         1.11338 
        5.16796         15.4638         1.10489 
        5.18369         15.3753         1.09649 
         5.1994         15.2365         1.08819 
        5.21509         15.1635         1.07998 
        5.23079         15.0324         1.07185 
        5.24649         14.9408          1.0638 
        5.26217         14.7892         1.05585 
        5.27788         14.6876         1.04796 
        5.29359          14.581         1.04016 
        5.30933         14.5081         1.03242 
        5.32504         14.3756         1.02478 
        5.34073         14.2993         1.01722 
        5.35646         14.1653         1.00972 
        5.37218         14.0701          1.0023 
        5.38789          13.948        0.994966 
        5.40357         13.8701        0.987713 
        5.41929         13.7714        0.980515 
        5.43502         13.6694        0.973389 
         5.4507         13.5583        0.966351 
        5.46639         13.4501        0.959382 
        5.48212          13.351        0.952466 
        5.49786         13.2996        0.945609 
        5.51353         13.1882        0.938855 
        5.52921          13.102        0.932159 
        5.54495         13.0097         0.92551 
        5.56066         12.9104        0.918933 
        5.57637         12.8341        0.912421 
        5.59207          12.715        0.905978 
        5.60778         12.6034        0.899595 
        5.62346          12.522        0.893282 
        5.63916         12.4448        0.887025 
        5.65487          12.365        0.880824 
         5.6706         12.2776        0.874675 
        5.68633         12.1783        0.868583 
        5.70203         12.1028        0.862562 
        5.71773          12.012        0.856599 
        5.73344         11.9512         0.85069 
        5.74916         11.8612        0.844831 
        5.76486         11.7961        0.839035 
        5.78054         11.6976        0.833303 
        5.79626         11.6301        0.827608 
          5.812         11.5128        0.821961 
         5.8277         11.4435        0.816383 
        5.84339         11.3426        0.810858 
        5.85911         11.2877        0.805373 
        5.87484         11.2084         0.79994 
        5.89053          11.133        0.794568 
        5.90623         11.0699        0.789243 
        5.92195         10.9934        0.783957 
        5.93767          10.906        0.778724 
        5.95336          10.824        0.773546 
        5.96905         10.7604        0.768418 
        5.98476         10.7023        0.763329 
        6.00048         10.6099        0.758285 
        6.01617         10.5247        0.753294 
        6.03185         10.4854        0.748353 
        6.04756          10.408        0.743445 
        6.06331         10.3476        0.738571 
        6.07903         10.2577        0.733751 
        6.09473         10.1929        0.728978 
        6.11044          10.126        0.724244 
        6.12616         10.0776        0.719553 
        6.14186         9.99207        0.714908 
        6.15755         9.94187        0.710304 
        6.17326         9.85471        0.705738 
        6.18898         9.80053        0.701209 
        6.20467          9.7238        0.696729 
        6.22036         9.66737        0.692288 
         6.2361         9.60396        0.687874 
         6.2518         9.55247        0.683506 
        6.26748         9.48549        0.679186 
        6.28319         9.43391        0.674891 
        6.29893         9.36122        0.670629 
        6.31463         9.30696        0.666412 
        6.33033         9.22072        0.662232 
        6.34604         9.17468        0.658086 
        6.36177         9.12731        0.653971 
        6.37747         9.05245        0.649899 
