# k  (h/Mpc)    Pcb(k)  (Mpc/h)^3    Pcb_linear(k) (Mpc/h)^3   ShotnoiseSubtracted = true
      0.0200456          8738.7         8907.53 
      0.0350414         6593.13         6781.49 
      0.0492313         5010.21         5051.79 
      0.0637834         4312.87         4243.76 
      0.0800726          3464.3         3424.44 
       0.096163         2472.36         2532.53 
       0.111083         1973.36         2032.16 
       0.126058         1819.35         1803.41 
       0.142273         1580.96         1544.58 
       0.158546          1322.7         1234.71 
        0.17375         1068.39         1042.21 
       0.188953         1025.49         943.497 
       0.204907         967.433          840.91 
       0.220756         823.002         717.792 
        0.23588         723.943         625.327 
         0.2514         635.586         567.864 
       0.267535         615.924         516.288 
       0.283568         560.306         458.164 
       0.299022         520.664         408.998 
       0.314451          486.22          373.86 
       0.330372         449.899         343.938 
       0.346141         408.359         313.552 
       0.361624         391.466         285.633 
       0.377134         366.486         262.999 
       0.392932         344.314         243.789 
       0.408854         330.734         225.414 
       0.424564         316.418         208.221 
       0.440253         302.877         193.262 
       0.455999         285.717          180.31 
       0.471626         264.909         168.504 
        0.48727         258.624         157.396 
       0.502856         249.341          147.33 
       0.518488         245.498         138.339 
       0.534347          232.26         130.013 
       0.550082         217.512         122.333 
       0.565732         213.261         115.265 
       0.581496         203.218         108.775 
       0.597222         197.719         102.826 
       0.612804         189.875          97.356 
       0.628434         184.678         92.2455 
       0.644267         178.562         87.4536 
       0.660051         176.157         83.0348 
       0.675724         172.116         78.9514 
       0.691403         167.001         75.1405 
       0.707174         159.887         71.5609 
       0.722871         158.501         68.2298 
        0.73838         155.275         65.1474 
       0.754018         149.581          62.233 
       0.769845         146.306         59.4658 
        0.78569         143.468         56.8654 
       0.801365         139.741          54.447 
       0.817031          134.88          52.172 
       0.832809         132.945         50.0137 
       0.848511         129.592         47.9884 
       0.864097          126.47         46.0902 
       0.879701          124.56         44.2938 
       0.895507         121.505         42.5728 
       0.911279          119.91         40.9476 
        0.92691         117.539         39.4216 
       0.942635          114.92         37.9656 
       0.958396         114.511         36.5806 
       0.974128         111.297          35.268 
       0.989692         108.542         34.0332 
        1.00528         106.505         32.8563 
        1.02113         105.441          31.717 
        1.03692         101.831         30.6364 
        1.05264         101.632         29.6116 
        1.06832          99.076         28.6356 
        1.08405         97.8664         27.7014 
        1.09979         97.1633         26.8087 
        1.11537         93.8915         25.9645 
        1.13105          94.044         25.1519 
        1.14679          92.678         24.3712 
        1.16256         91.2307         23.6225 
        1.17828         88.7445         22.9079 
        1.19395         88.2055         22.2255 
         1.2097         85.7865         21.5676 
        1.22537         86.0265         20.9398 
          1.241         83.9169          20.339 
        1.25666         82.3591         19.7606 
        1.27241         81.5318          19.202 
        1.28819         80.2023         18.6643 
        1.30392         78.9893         18.1489 
        1.31957         78.0682         17.6554 
        1.33529           76.85         17.1786 
        1.35108         76.3397         16.7177 
        1.36674         75.3155          16.277 
         1.3824         73.8885         15.8528 
        1.39811         73.2915         15.4424 
        1.41389         72.1159         15.0451 
        1.42964         71.3087         14.6625 
        1.44531         70.0117         14.2951 
        1.46101         69.0122         13.9397 
        1.47667         68.8064         13.5975 
        1.49229         67.6242         13.2678 
        1.50793         66.9401         12.9487 
        1.52367         65.9538         12.6381 
        1.53953         65.2403         12.3357 
        1.55526         64.4617         12.0457 
        1.57092         64.2022         11.7662 
        1.58662         63.0457          11.495 
        1.60235         62.4705         11.2319 
        1.61809         61.5541          10.977 
        1.63369         60.5275         10.7323 
        1.64941          59.919         10.4933 
        1.66519         59.0323         10.2608 
        1.68085          58.494          10.037 
        1.69652         57.7031         9.81992 
        1.71228          57.261         9.60804 
        1.72806         56.8335         9.40228 
        1.74368         55.9454         9.20465 
        1.75933         55.4553         9.01234 
        1.77505         54.8452         8.82465 
        1.79081         54.1107         8.64202 
         1.8065         53.6522         8.46536 
        1.82218         52.8779         8.29383 
        1.83797         52.3247          8.1259 
        1.85367          51.568         7.96358 
        1.86928         51.2011         7.80669 
        1.88497         50.6675          7.6532 
        1.90073         50.1992         7.50329 
        1.91647         49.6455         7.35756 
        1.93218         48.9177         7.21603 
        1.94787          48.606         7.07845 
        1.96363         47.9388         6.94393 
        1.97935         47.4692          6.8132 
        1.99499          46.853          6.6866 
        2.01064         46.6241         6.56305 
         2.0264         45.7718         6.44186 
        2.04216         45.2863         6.32381 
        2.05781         44.7581         6.20948 
        2.07353         44.3139         6.09759 
        2.08928          43.982         5.98822 
        2.10499         43.5284         5.88184 
        2.12065         43.0442         5.77838 
        2.13633         42.8882         5.67733 
        2.15211         42.1652         5.57806 
        2.16785         41.4507         5.48145 
        2.18349          41.259         5.38775 
        2.19916         40.9385         5.29605 
        2.21489         40.2929         5.20619 
        2.23063         39.9513         5.11837 
         2.2463           39.48         5.03298 
        2.26194         39.0323         4.94976 
        2.27765         38.6305         4.86801 
        2.29341         38.2709          4.7879 
        2.30914          37.924         4.70976 
        2.32486         37.4015         4.63342 
        2.34061         37.1615         4.55866 
        2.35635         36.7851         4.48562 
        2.37203         36.4428         4.41444 
        2.38768         36.0139         4.34496 
        2.40339          35.825         4.27673 
        2.41914         35.4766         4.20981 
        2.43483         34.8572         4.14457 
         2.4505         34.6166         4.08083 
        2.46622         34.3754         4.01822 
        2.48195         34.0316         3.95692 
        2.49759         33.6125         3.89723 
        2.51328         33.2034         3.83863 
        2.52906         33.0765         3.78086 
        2.54479         32.5997         3.72451 
        2.56049          32.277         3.66942 
        2.57618         31.8923         3.61549 
        2.59189         31.7366         3.56258 
        2.60758          31.483         3.51081 
        2.62325         30.9757         3.46013 
        2.63898         30.8826         3.41029 
        2.65468         30.3834         3.36153 
        2.67044         30.1892         3.31353 
        2.68618         29.8426         3.26657 
        2.70184         29.5601         3.22072 
        2.71755          29.403         3.17564 
        2.73329         29.0624         3.13135 
        2.74897         28.7202         3.08806 
        2.76462         28.4865         3.04569 
        2.78034         28.2838         3.00394 
        2.79607         27.9421         2.96293 
        2.81179         27.7737         2.92274 
        2.82749         27.4721         2.88334 
        2.84321         27.1002         2.84462 
        2.85893         26.8695         2.80664 
        2.87462         26.6143         2.76941 
        2.89033         26.4448         2.73283 
        2.90605         26.2435         2.69688 
        2.92176         26.0003         2.66159 
        2.93747         25.7401         2.62696 
        2.95318          25.358         2.59294 
        2.96891         25.2549         2.55951 
        2.98456         24.8638         2.52682 
        3.00023         24.7402         2.49466 
        3.01596          24.477         2.46296 
        3.03164         24.2124          2.4319 
        3.04738         24.0727         2.40129 
         3.0631         23.8335         2.37122 
        3.07883          23.608         2.34166 
        3.09456         23.3657         2.31261 
        3.11026         23.1622         2.28411 
        3.12596          22.956         2.25609 
        3.14163         22.8407          2.2286 
        3.15734         22.5718         2.20151 
        3.17308         22.3976         2.17481 
        3.18879         22.1454         2.14863 
        3.20447         21.9499         2.12291 
         3.2202         21.7412         2.09754 
         3.2359         21.5109         2.07263 
        3.25157         21.4795         2.04819 
        3.26729         21.2771         2.02407 
        3.28304         21.0063         2.00029 
        3.29877          20.676         1.97692 
        3.31446         20.6363         1.95398 
        3.33014          20.416         1.93143 
        3.34585         20.1442          1.9092 
        3.36158         20.0909         1.88729 
        3.37727         19.8427         1.86579 
        3.39294         19.6204         1.84465 
        3.40867         19.4951         1.82376 
        3.42439           19.29          1.8032 
        3.44008         19.0871         1.78301 
        3.45578         18.9568         1.76311 
        3.47153         18.8002         1.74347 
        3.48724         18.6203         1.72416 
        3.50292         18.4752          1.7052 
        3.51859         18.3091         1.68653 
        3.53431         18.1275         1.66808 
        3.55007         17.9815         1.64986 
        3.56577         17.8323         1.63199 
        3.58146          17.688         1.61439 
        3.59719         17.5054         1.59701 
        3.61292         17.3531          1.5799 
        3.62859         17.1748          1.5631 
        3.64429         17.0407         1.54651 
        3.66003         16.9057         1.53012 
        3.67578         16.7858         1.51397 
        3.69146         16.6126         1.49811 
        3.70712         16.4631         1.48251 
        3.72284         16.3888         1.46708 
        3.73853         16.2455         1.45189 
        3.75422         15.9981         1.43691 
        3.76993         15.8994         1.42214 
        3.78564         15.7602         1.40757 
        3.80137         15.6233         1.39319 
        3.81707         15.5028         1.37904 
        3.83279         15.3081         1.36508 
        3.84853         15.2354         1.35128 
        3.86424         15.0832         1.33771 
        3.87992         14.9477         1.32434 
        3.89561         14.8559         1.31116 
        3.91134         14.7204         1.29813 
        3.92704         14.5543         1.28529 
        3.94273         14.4736         1.27264 
        3.95845         14.3492         1.26013 
        3.97418         14.2629         1.24779 
        3.98988         14.1147         1.23564 
        4.00554         13.9708         1.22368 
        4.02125         13.8202         1.21184 
        4.03698         13.7868         1.20015 
        4.05268         13.6364         1.18863 
        4.06839         13.5233         1.17726 
         4.0841         13.4105         1.16604 
        4.09983         13.2881         1.15495 
        4.11555         13.1726         1.14401 
        4.13124         13.0601         1.13325 
        4.14693         12.9793         1.12261 
        4.16266         12.8802         1.11209 
        4.17839         12.7517          1.1017 
        4.19408         12.6515         1.09148 
        4.20977         12.5461         1.08138 
        4.22551         12.4575         1.07138 
        4.24123         12.3496         1.06152 
        4.25691         12.2213         1.05181 
        4.27259         12.1477         1.04222 
        4.28831         12.0415         1.03273 
        4.30404         11.9263         1.02336 
        4.31974         11.8459         1.01411 
        4.33543         11.7456         1.00499 
        4.35116         11.6474        0.995961 
        4.36688         11.5331        0.987044 
        4.38255         11.4784        0.978271 
        4.39825         11.4007        0.969585 
        4.41398         11.2811        0.960988 
         4.4297         11.1833        0.952504 
        4.44541         11.0723        0.944125 
        4.46111         11.0089        0.935854 
        4.47683         10.9336        0.927675 
        4.49251         10.8482        0.919612 
        4.50819         10.7607        0.911647 
         4.5239         10.6845        0.903765 
        4.53962          10.613        0.895966 
        4.55535         10.4947        0.888257 
        4.57106         10.4118        0.880649 
        4.58678         10.3142        0.873129 
         4.6025         10.2526        0.865696 
        4.61821         10.1691         0.85835 
        4.63391         10.0729          0.8511 
         4.6496         10.0308        0.843936 
        4.66532         9.93407        0.836845 
        4.68103         9.85411        0.829838 
        4.69673          9.7739        0.822918 
        4.71241         9.68916        0.816084 
        4.72811         9.62258        0.809317 
        4.74384          9.5623        0.802618 
        4.75955          9.4873        0.796006 
        4.77525         9.41249        0.789472 
        4.79096         9.36373        0.783003 
        4.80669         9.28261        0.776605 
         4.8224         9.22402        0.770285 
        4.83809         9.13879        0.764042 
        4.85379         9.04641        0.757865 
         4.8695          9.0112        0.751752 
        4.88521         8.92398        0.745708 
        4.90093         8.87128        0.739731 
        4.91663         8.79003        0.733824 
        4.93234         8.73993        0.727976 
        4.94807         8.64935        0.722188 
        4.96377         8.60345        0.716474 
        4.97943         8.54585        0.710835 
        4.99514         8.48987        0.705241 
        5.01086         8.40178        0.699704 
        5.02654         8.33385         0.69424 
        5.04227         8.30491        0.688819 
          5.058         8.22752        0.683453 
        5.07371         8.18341        0.678155 
        5.08942         8.10307        0.672913 
        5.10513         8.03773        0.667726 
        5.12084          7.9933        0.662591 
        5.13656         7.94262        0.657511 
        5.15225         7.86202        0.652494 
        5.16796         7.81856         0.64752 
        5.18369         7.76082        0.642595 
         5.1994         7.68301        0.637729 
        5.21509         7.62921        0.632919 
        5.23079         7.58205        0.628153 
        5.24649         7.52109        0.623439 
        5.26217         7.47837        0.618778 
        5.27788         7.41422        0.614157 
        5.29359         7.37417        0.609584 
        5.30933         7.33741         0.60505 
        5.32504         7.27308         0.60057 
        5.34073         7.21702         0.59614 
        5.35646         7.16511        0.591747 
        5.37218         7.10777        0.587397 
        5.38789         7.07281        0.583098 
        5.40357         7.01721        0.578847 
        5.41929         6.96081        0.574629 
        5.43502         6.90633        0.570453 
         5.4507         6.87053        0.566328 
        5.46639         6.82357        0.562244 
        5.48212         6.78441        0.558191 
        5.49786         6.73978        0.554172 
        5.51353         6.67956        0.550214 
        5.52921         6.64062         0.54629 
        5.54495          6.5855        0.542393 
        5.56066          6.5416        0.538539 
        5.57637         6.49069        0.534722 
        5.59207         6.45386        0.530947 
        5.60778         6.40235        0.527206 
        5.62346          6.3645        0.523506 
        5.63916           6.318        0.519839 
        5.65487         6.28089        0.516205 
         5.6706         6.24666        0.512602 
        5.68633         6.19624        0.509032 
        5.70203         6.15096        0.505503 
        5.71773          6.1228        0.502008 
        5.73344         6.06876        0.498545 
        5.74916         6.02377        0.495111 
        5.76486         5.99181        0.491715 
        5.78054         5.95365        0.488355 
        5.79626         5.91173        0.485018 
          5.812         5.86538        0.481709 
         5.8277         5.82312         0.47844 
        5.84339         5.80022        0.475202 
        5.85911         5.74941        0.471987 
        5.87484         5.72518        0.468803 
        5.89053          5.6748        0.465655 
        5.90623         5.64614        0.462534 
        5.92195          5.6047        0.459437 
        5.93767         5.54532        0.456369 
        5.95336         5.53031        0.453335 
        5.96905          5.4975         0.45033 
        5.98476         5.47074        0.447348 
        6.00048         5.42922        0.444392 
        6.01617         5.38485        0.441466 
        6.03185         5.35609        0.438571 
        6.04756         5.32876        0.435695 
        6.06331         5.29478        0.432838 
        6.07903           5.251        0.430013 
        6.09473         5.21064        0.427216 
        6.11044         5.18728        0.424442 
        6.12616          5.1533        0.421692 
        6.14186         5.11163         0.41897 
        6.15755         5.09051        0.416272 
        6.17326         5.05042        0.413596 
        6.18898         5.02219        0.410942 
        6.20467          4.9951        0.408317 
        6.22036         4.95698        0.405714 
         6.2361         4.92711        0.403127 
         6.2518         4.89487        0.400567 
        6.26748         4.85765        0.398035 
        6.28319         4.83328        0.395518 
        6.29893         4.81546        0.393021 
        6.31463         4.77512        0.390549 
        6.33033         4.74993          0.3881 
        6.34604         4.72092         0.38567 
        6.36177         4.69347        0.383258 
        6.37747          4.6581        0.380872 
