# k  (h/Mpc)    Pcb(k)  (Mpc/h)^3    Pcb_linear(k) (Mpc/h)^3   ShotnoiseSubtracted = true
      0.0200456         4255.33         4327.18 
      0.0350414         3236.85         3294.37 
      0.0492313         2449.76         2454.11 
      0.0637834         2090.85         2061.57 
      0.0800726         1682.34         1663.55 
       0.096163         1213.24         1230.27 
       0.111083         967.346           987.2 
       0.126058         883.849         876.076 
       0.142273          765.47          750.34 
       0.158546         625.233         599.807 
        0.17375         511.001         506.295 
       0.188953           480.7         458.341 
       0.204907         449.781         408.505 
       0.220756         378.584         348.696 
        0.23588         331.336         303.777 
         0.2514         294.035         275.862 
       0.267535         276.798         250.807 
       0.283568         250.701         222.571 
       0.299022         229.842         198.687 
       0.314451         208.634         181.617 
       0.330372         194.235         167.081 
       0.346141         176.001          152.32 
       0.361624         165.853         138.758 
       0.377134         156.471         127.762 
       0.392932         141.241          118.43 
       0.408854         136.111         109.504 
       0.424564         130.237         101.151 
       0.440253          121.13         93.8848 
       0.455999         114.443         87.5929 
       0.471626         106.066         81.8576 
        0.48727         102.861         76.4614 
       0.502856         97.6508         71.5711 
       0.518488         94.1587         67.2036 
       0.534347         90.4386         63.1591 
       0.550082         83.4902          59.428 
       0.565732         79.4322         55.9947 
       0.581496         76.9203         52.8415 
       0.597222         74.5046         49.9518 
       0.612804         70.3467         47.2945 
       0.628434         68.5877         44.8119 
       0.644267         66.6691          42.484 
       0.660051         64.1916         40.3374 
       0.675724         61.3887         38.3538 
       0.691403         59.5623         36.5025 
       0.707174         57.8869         34.7635 
       0.722871         55.8418         33.1453 
        0.73838         54.4131         31.6479 
       0.754018          51.933         30.2321 
       0.769845         50.7801         28.8879 
        0.78569         49.3383         27.6246 
       0.801365         47.6736         26.4497 
       0.817031         46.5844         25.3446 
       0.832809         45.8002         24.2961 
       0.848511         43.3028         23.3122 
       0.864097         42.5113         22.3901 
       0.879701         41.8315         21.5174 
       0.895507         41.1494         20.6814 
       0.911279         39.9077         19.8919 
        0.92691          38.899         19.1506 
       0.942635         37.5755         18.4433 
       0.958396         37.2072         17.7705 
       0.974128         36.1264         17.1328 
       0.989692         35.6862          16.533 
        1.00528         34.9024         15.9612 
        1.02113         33.6877         15.4078 
        1.03692         33.1034         14.8828 
        1.05264         32.5108          14.385 
        1.06832         31.8424         13.9109 
        1.08405         31.1992         13.4571 
        1.09979         30.5727         13.0234 
        1.11537         29.8366         12.6133 
        1.13105         29.6103         12.2185 
        1.14679         29.2134         11.8393 
        1.16256         28.2641         11.4755 
        1.17828         28.0481         11.1284 
        1.19395         27.3008         10.7969 
         1.2097         27.1313         10.4773 
        1.22537         26.5311         10.1723 
          1.241         26.1091         9.88049 
        1.25666         25.4142         9.59947 
        1.27241         25.1235         9.32814 
        1.28819          24.544         9.06693 
        1.30392         24.3658         8.81655 
        1.31957         24.1316         8.57682 
        1.33529         23.8133         8.34519 
        1.35108         23.2523         8.12126 
        1.36674         22.9085          7.9072 
         1.3824         22.4722         7.70112 
        1.39811          22.214         7.50175 
        1.41389         21.9989         7.30872 
        1.42964         21.6852         7.12287 
        1.44531         21.5014         6.94442 
        1.46101         20.9139         6.77176 
        1.47667         20.6876         6.60552 
        1.49229         20.4855         6.44535 
        1.50793          20.195         6.29034 
        1.52367         19.9797         6.13946 
        1.53953         19.7151         5.99256 
        1.55526         19.3809         5.85166 
        1.57092         19.1324         5.71591 
        1.58662         18.9192         5.58417 
        1.60235         18.6623         5.45636 
        1.61809         18.4541          5.3325 
        1.63369          18.215         5.21362 
        1.64941         17.8883         5.09753 
        1.66519         17.8008         4.98459 
        1.68085         17.5374         4.87589 
        1.69652         17.3031         4.77041 
        1.71228         17.1061         4.66748 
        1.72806         17.0006         4.56753 
        1.74368         16.7383         4.47152 
        1.75933          16.534          4.3781 
        1.77505         16.3348         4.28692 
        1.79081         16.1157          4.1982 
         1.8065         16.0336         4.11238 
        1.82218         15.7369         4.02905 
        1.83797         15.5999         3.94748 
        1.85367         15.4057         3.86862 
        1.86928         15.3549         3.79241 
        1.88497           15.07         3.71784 
        1.90073         15.0279         3.64502 
        1.91647         14.8486         3.57422 
        1.93218         14.7192         3.50547 
        1.94787          14.534         3.43863 
        1.96363         14.4275         3.37329 
        1.97935         14.2288         3.30978 
        1.99499         14.0468         3.24828 
        2.01064         13.8936         3.18826 
         2.0264         13.7735         3.12939 
        2.04216         13.6353         3.07204 
        2.05781         13.4222          3.0165 
        2.07353         13.3501         2.96214 
        2.08928          13.218         2.90901 
        2.10499         13.1348         2.85733 
        2.12065         12.9256         2.80707 
        2.13633         12.8932         2.75799 
        2.15211         12.7161         2.70976 
        2.16785         12.6768         2.66283 
        2.18349         12.5732         2.61731 
        2.19916         12.3819         2.57276 
        2.21489         12.2825         2.52911 
        2.23063         12.1541         2.48645 
         2.2463         12.0142         2.44497 
        2.26194         11.9184         2.40454 
        2.27765          11.869         2.36483 
        2.29341         11.7266         2.32591 
        2.30914         11.5526         2.28795 
        2.32486         11.5139         2.25087 
        2.34061         11.3965         2.21455 
        2.35635          11.319         2.17907 
        2.37203          11.211         2.14449 
        2.38768         11.0622         2.11073 
        2.40339         10.9608         2.07759 
        2.41914         10.8478         2.04508 
        2.43483         10.8182         2.01339 
         2.4505         10.7377         1.98242 
        2.46622         10.6099         1.95201 
        2.48195         10.5343         1.92223 
        2.49759         10.4479         1.89323 
        2.51328         10.3297         1.86477 
        2.52906         10.2562          1.8367 
        2.54479          10.161         1.80933 
        2.56049         10.0859         1.78256 
        2.57618         10.0457         1.75637 
        2.59189         9.89492         1.73066 
        2.60758         9.86897         1.70551 
        2.62325         9.77935          1.6809 
        2.63898         9.63321         1.65668 
        2.65468         9.55535           1.633 
        2.67044         9.50242         1.60968 
        2.68618          9.4228         1.58687 
        2.70184         9.34734         1.56459 
        2.71755          9.2502         1.54269 
        2.73329         9.18232         1.52118 
        2.74897         9.10642         1.50015 
        2.76462         9.07988         1.47956 
        2.78034         8.95976         1.45928 
        2.79607         8.90011         1.43936 
        2.81179           8.843         1.41983 
        2.82749          8.7787         1.40069 
        2.84321         8.73909         1.38189 
        2.85893          8.6441         1.36343 
        2.87462         8.55649         1.34535 
        2.89033           8.485         1.32758 
        2.90605         8.41813         1.31011 
        2.92176         8.35331         1.29297 
        2.93747         8.29077         1.27615 
        2.95318         8.27029         1.25962 
        2.96891         8.17495         1.24338 
        2.98456         8.10171          1.2275 
        3.00023         8.02924         1.21188 
        3.01596         8.00043         1.19648 
        3.03164          7.9376         1.18139 
        3.04738         7.90424         1.16652 
         3.0631         7.80094         1.15191 
        3.07883         7.73816         1.13755 
        3.09456         7.69505         1.12344 
        3.11026         7.64265         1.10959 
        3.12596         7.58873         1.09598 
        3.14163         7.50713         1.08263 
        3.15734         7.45886         1.06947 
        3.17308          7.4131          1.0565 
        3.18879         7.33433         1.04378 
        3.20447         7.30361         1.03129 
         3.2202         7.22893         1.01896 
         3.2359         7.20741         1.00686 
        3.25157         7.14078        0.994989 
        3.26729         7.11432         0.98327 
        3.28304         7.03147        0.971719 
        3.29877         6.96887        0.960368 
        3.31446         6.93267        0.949225 
        3.33014         6.89455        0.938269 
        3.34585         6.83271        0.927469 
        3.36158          6.7956        0.916824 
        3.37727         6.74902         0.90638 
        3.39294         6.71377         0.89611 
        3.40867         6.63482        0.885961 
        3.42439         6.61075        0.875977 
        3.44008         6.55324        0.866166 
        3.45578         6.50337        0.856498 
        3.47153         6.46567        0.846958 
        3.48724         6.43136         0.83758 
        3.50292         6.37608        0.828366 
        3.51859          6.3283        0.819296 
        3.53431         6.27058        0.810334 
        3.55007         6.24426        0.801485 
        3.56577         6.21717        0.792803 
        3.58146         6.17179        0.784254 
        3.59719          6.1165        0.775812 
        3.61292         6.08718        0.767498 
        3.62859         6.02537        0.759337 
        3.64429         5.99337        0.751279 
        3.66003         5.94734        0.743315 
        3.67578         5.90767        0.735469 
        3.69146         5.84215        0.727766 
        3.70712         5.83074        0.720188 
        3.72284         5.78489        0.712691 
        3.73853         5.75386        0.705313 
        3.75422         5.70666        0.698038 
        3.76993         5.67952        0.690859 
        3.78564         5.62194        0.683784 
        3.80137         5.59455        0.676798 
        3.81707         5.55598        0.669924 
        3.83279         5.52192         0.66314 
        3.84853          5.4603         0.65644 
        3.86424         5.43246        0.649845 
        3.87992         5.40542        0.643351 
        3.89561         5.37537        0.636946 
        3.91134         5.32203        0.630616 
        3.92704         5.28145        0.624379 
        3.94273         5.26181        0.618233 
        3.95845         5.23774        0.612159 
        3.97418         5.19134        0.606165 
        3.98988         5.16701         0.60026 
        4.00554         5.12748         0.59445 
        4.02125         5.09749          0.5887 
        4.03698         5.04052        0.583018 
        4.05268         5.01016        0.577425 
        4.06839         4.99275          0.5719 
         4.0841         4.93837         0.56645 
        4.09983         4.90522        0.561063 
        4.11555         4.86963        0.555749 
        4.13124         4.83464        0.550519 
        4.14693         4.80039        0.545352 
        4.16266         4.77873        0.540239 
        4.17839         4.74629        0.535195 
        4.19408         4.70129        0.530227 
        4.20977         4.67457        0.525321 
        4.22551         4.64433        0.520465 
        4.24123         4.61663        0.515675 
        4.25691         4.58602        0.510959 
        4.27259         4.56774        0.506301 
        4.28831         4.52954        0.501691 
        4.30404         4.49509        0.497135 
        4.31974         4.46253        0.492646 
        4.33543         4.41424        0.488214 
        4.35116         4.39675        0.483827 
        4.36688         4.36614        0.479496 
        4.38255          4.3363        0.475233 
        4.39825         4.32687        0.471014 
        4.41398         4.30325        0.466838 
         4.4297          4.2696        0.462716 
        4.44541         4.23369        0.458646 
        4.46111         4.20835        0.454628 
        4.47683         4.17651        0.450655 
        4.49251         4.14922        0.446738 
        4.50819         4.12925        0.442868 
         4.5239         4.11281        0.439039 
        4.53962         4.08163        0.435251 
        4.55535         4.05426        0.431506 
        4.57106         4.02544         0.42781 
        4.58678         3.99369        0.424157 
         4.6025         3.97891        0.420546 
        4.61821         3.95626        0.416977 
        4.63391           3.931        0.413455 
         4.6496         3.91116        0.409975 
        4.66532         3.86397         0.40653 
        4.68103         3.84422        0.403126 
        4.69673         3.82553        0.399765 
        4.71241         3.79554        0.396445 
        4.72811         3.77483        0.393158 
        4.74384         3.76014        0.389903 
        4.75955         3.73431        0.386691 
        4.77525         3.70895        0.383517 
        4.79096         3.67551        0.380375 
        4.80669         3.65878        0.377266 
         4.8224         3.64411        0.374196 
        4.83809         3.61708        0.371163 
        4.85379          3.5906        0.368163 
         4.8695         3.57169        0.365193 
        4.88521         3.55278        0.362257 
        4.90093         3.52845        0.359353 
        4.91663         3.51139        0.356484 
        4.93234         3.49031        0.353643 
        4.94807         3.46936        0.350831 
        4.96377          3.4469        0.348056 
        4.97943         3.42457        0.345316 
        4.99514         3.39544        0.342599 
        5.01086         3.38091        0.339909 
        5.02654         3.36049        0.337254 
        5.04227         3.34429        0.334621 
          5.058          3.3312        0.332014 
        5.07371         3.30368        0.329441 
        5.08942         3.28739        0.326894 
        5.10513         3.26852        0.324374 
        5.12084         3.25116         0.32188 
        5.13656         3.23175        0.319412 
        5.15225         3.21005        0.316974 
        5.16796         3.18171        0.314559 
        5.18369          3.1754        0.312166 
         5.1994         3.15371        0.309802 
        5.21509         3.13568        0.307465 
        5.23079         3.11523         0.30515 
        5.24649          3.1032         0.30286 
        5.26217         3.08464        0.300596 
        5.27788         3.05688        0.298351 
        5.29359         3.04291        0.296129 
        5.30933         3.03206        0.293927 
        5.32504         3.00284         0.29175 
        5.34073         2.99111        0.289599 
        5.35646         2.97568        0.287464 
        5.37218         2.95637        0.285351 
        5.38789         2.94443        0.283263 
        5.40357         2.92533        0.281198 
        5.41929         2.90509        0.279149 
        5.43502         2.88922         0.27712 
         5.4507         2.87274        0.275116 
        5.46639         2.85519        0.273132 
        5.48212         2.84444        0.271163 
        5.49786         2.82587        0.269211 
        5.51353         2.80695        0.267288 
        5.52921         2.79715        0.265382 
        5.54495         2.78178        0.263489 
        5.56066         2.76416        0.261616 
        5.57637          2.7463        0.259762 
        5.59207         2.73357        0.257928 
        5.60778         2.71831        0.256111 
        5.62346          2.6996        0.254314 
        5.63916         2.68532        0.252532 
        5.65487         2.67621        0.250767 
         5.6706         2.65781        0.249016 
        5.68633         2.64363        0.247282 
        5.70203         2.62909        0.245568 
        5.71773         2.61453         0.24387 
        5.73344         2.59464        0.242188 
        5.74916         2.58539         0.24052 
        5.76486         2.57291         0.23887 
        5.78054         2.56149        0.237238 
        5.79626         2.55054        0.235617 
          5.812         2.52463        0.234009 
         5.8277         2.51645        0.232421 
        5.84339         2.50298        0.230848 
        5.85911         2.49381        0.229286 
        5.87484         2.47546         0.22774 
        5.89053         2.46641         0.22621 
        5.90623         2.45129        0.224694 
        5.92195         2.43708        0.223189 
        5.93767         2.42717        0.221699 
        5.95336         2.41028        0.220225 
        5.96905         2.39911        0.218765 
        5.98476         2.38285        0.217317 
        6.00048         2.37436        0.215881 
        6.01617         2.36238         0.21446 
        6.03185         2.34787        0.213053 
        6.04756         2.33883        0.211656 
        6.06331         2.32042        0.210268 
        6.07903         2.31157        0.208896 
        6.09473          2.3026        0.207537 
        6.11044         2.28829        0.206189 
        6.12616         2.27461        0.204854 
        6.14186         2.26762        0.203531 
        6.15755         2.25672        0.202221 
        6.17326         2.24092        0.200921 
        6.18898          2.2337        0.199631 
        6.20467         2.22139        0.198356 
        6.22036         2.20887        0.197092 
         6.2361         2.19416        0.195835 
         6.2518         2.18651        0.194591 
        6.26748         2.17755        0.193361 
        6.28319         2.16274        0.192139 
        6.29893          2.1561        0.190925 
        6.31463         2.14476        0.189725 
        6.33033         2.13065        0.188535 
        6.34604         2.12431        0.187354 
        6.36177         2.11369        0.186183 
        6.37747         2.10004        0.185024 
