# k  (h/Mpc)    Pcb(k)  (Mpc/h)^3    Pcb_linear(k) (Mpc/h)^3   ShotnoiseSubtracted = true
      0.0200456         2148.44         2182.03 
      0.0350414         1642.67         1661.22 
      0.0492313         1238.96         1237.51 
      0.0637834         1051.25         1039.57 
      0.0800726         846.362         838.864 
       0.096163         615.368         620.379 
       0.111083         491.068         497.805 
       0.126058         444.707          441.77 
       0.142273         383.692         378.367 
       0.158546         310.043         302.459 
        0.17375         255.807         255.304 
       0.188953         237.079         231.123 
       0.204907         219.471         205.993 
       0.220756         184.397         175.833 
        0.23588         161.026         153.183 
         0.2514         143.932         139.106 
       0.267535         133.213         126.472 
       0.283568         119.817         112.234 
       0.299022         108.869          100.19 
       0.314451         97.6931         91.5822 
       0.330372         91.0578         84.2524 
       0.346141         82.8987         76.8091 
       0.361624          77.003           69.97 
       0.377134         72.4102         64.4253 
       0.392932          64.465         59.7195 
       0.408854         62.1843         55.2183 
       0.424564         58.5693         51.0066 
       0.440253          54.006         47.3424 
       0.455999         51.0607         44.1696 
       0.471626         47.8348         41.2775 
        0.48727         45.5677         38.5565 
       0.502856          42.739         36.0905 
       0.518488         40.9158         33.8881 
       0.534347         39.2664         31.8486 
       0.550082         35.9851         29.9672 
       0.565732         33.5834         28.2359 
       0.581496          32.911         26.6459 
       0.597222         31.7973         25.1887 
       0.612804         29.6886         23.8487 
       0.628434         28.6421         22.5969 
       0.644267         27.8674          21.423 
       0.660051         26.4135         20.3405 
       0.675724         25.0788         19.3403 
       0.691403          24.289         18.4067 
       0.707174         23.4247         17.5299 
       0.722871         22.4847         16.7139 
        0.73838         21.7063         15.9588 
       0.754018         20.8875         15.2448 
       0.769845         20.1582          14.567 
        0.78569         19.5272           13.93 
       0.801365         18.7901         13.3376 
       0.817031         18.2867         12.7803 
       0.832809         17.8826         12.2516 
       0.848511         16.7992         11.7554 
       0.864097          16.467         11.2904 
       0.879701         16.0152         10.8504 
       0.895507         15.4368         10.4288 
       0.911279         15.1175         10.0307 
        0.92691         14.6717         9.65688 
       0.942635         14.0589          9.3002 
       0.958396         13.7176         8.96095 
       0.974128         13.3624         8.63939 
       0.989692         13.2311         8.33692 
        1.00528         12.8042         8.04861 
        1.02113         12.2888         7.76953 
        1.03692         12.0446         7.50483 
        1.05264         11.7557         7.25378 
        1.06832         11.4998         7.01471 
        1.08405         11.1135         6.78586 
        1.09979         10.8799         6.56717 
        1.11537         10.6999         6.36037 
        1.13105         10.4292         6.16132 
        1.14679         10.2452         5.97008 
        1.16256         9.91419         5.78666 
        1.17828         9.83467         5.61161 
        1.19395         9.48705         5.44444 
         1.2097         9.29455         5.28329 
        1.22537         9.06689          5.1295 
          1.241         8.93794         4.98234 
        1.25666         8.80997         4.84063 
        1.27241         8.55194         4.70381 
        1.28819         8.36242         4.57209 
        1.30392         8.26117         4.44584 
        1.31957          8.0908         4.32495 
        1.33529         7.95141         4.20815 
        1.35108         7.73635         4.09523 
        1.36674         7.70573         3.98729 
         1.3824         7.43718         3.88337 
        1.39811         7.34537         3.78283 
        1.41389         7.23118          3.6855 
        1.42964         7.11649         3.59178 
        1.44531         6.99192          3.5018 
        1.46101         6.84894         3.41473 
        1.47667         6.72536          3.3309 
        1.49229         6.66096         3.25013 
        1.50793         6.48474         3.17197 
        1.52367         6.43137         3.09589 
        1.53953         6.29458         3.02181 
        1.55526         6.18969         2.95076 
        1.57092         6.14048         2.88231 
        1.58662         5.99711         2.81588 
        1.60235         5.92217         2.75142 
        1.61809         5.82212         2.68897 
        1.63369         5.72571         2.62902 
        1.64941          5.6518         2.57048 
        1.66519         5.58586         2.51353 
        1.68085         5.47565         2.45871 
        1.69652         5.38551         2.40553 
        1.71228         5.31926         2.35363 
        1.72806         5.24474         2.30322 
        1.74368         5.15284         2.25481 
        1.75933         5.10724          2.2077 
        1.77505         5.03435         2.16172 
        1.79081         4.92903         2.11698 
         1.8065         4.89404         2.07371 
        1.82218          4.8319         2.03169 
        1.83797         4.78492         1.99055 
        1.85367         4.69644         1.95079 
        1.86928         4.65337         1.91236 
        1.88497         4.57677         1.87476 
        1.90073         4.50203         1.83804 
        1.91647         4.45263         1.80234 
        1.93218         4.41442         1.76767 
        1.94787         4.36923         1.73397 
        1.96363          4.3009         1.70101 
        1.97935         4.24124         1.66899 
        1.99499         4.17178         1.63798 
        2.01064         4.13978         1.60771 
         2.0264         4.08688         1.57803 
        2.04216         4.05563         1.54911 
        2.05781         3.99621          1.5211 
        2.07353         3.94979         1.49369 
        2.08928         3.91916          1.4669 
        2.10499         3.86476         1.44084 
        2.12065         3.83462          1.4155 
        2.13633         3.77904         1.39074 
        2.15211         3.73406         1.36642 
        2.16785         3.69727         1.34276 
        2.18349         3.66021          1.3198 
        2.19916         3.59163         1.29734 
        2.21489         3.58099         1.27533 
        2.23063          3.5273         1.25382 
         2.2463         3.50173          1.2329 
        2.26194         3.45644         1.21251 
        2.27765         3.43342         1.19249 
        2.29341         3.38963         1.17286 
        2.30914         3.35546         1.15372 
        2.32486         3.33218         1.13502 
        2.34061         3.29516         1.11671 
        2.35635         3.24357         1.09882 
        2.37203         3.23503         1.08138 
        2.38768         3.19571         1.06436 
        2.40339         3.16959         1.04765 
        2.41914         3.12764         1.03125 
        2.43483         3.10966         1.01527 
         2.4505         3.05949        0.999658 
        2.46622         3.05499         0.98432 
        2.48195         3.00483        0.969304 
        2.49759         2.98262        0.954683 
        2.51328         2.95591        0.940327 
        2.52906          2.9458        0.926177 
        2.54479         2.90193        0.912372 
        2.56049         2.88041        0.898876 
        2.57618         2.85093        0.885666 
        2.59189         2.84579        0.872704 
        2.60758          2.8019        0.860022 
        2.62325         2.78178        0.847609 
        2.63898         2.74448        0.835398 
        2.65468         2.72515        0.823455 
        2.67044         2.70951        0.811695 
        2.68618         2.67937        0.800194 
        2.70184         2.65851        0.788961 
        2.71755         2.64056        0.777918 
        2.73329         2.61225         0.76707 
        2.74897         2.59992        0.756465 
        2.76462         2.56993        0.746085 
        2.78034         2.55509        0.735857 
        2.79607         2.52279        0.725812 
        2.81179         2.50853        0.715966 
        2.82749         2.48927        0.706315 
        2.84321         2.46743        0.696831 
        2.85893         2.45417        0.687526 
        2.87462         2.42883        0.678406 
        2.89033         2.40488        0.669445 
        2.90605         2.38745        0.660638 
        2.92176         2.37221        0.651995 
        2.93747         2.35009        0.643512 
        2.95318          2.3336        0.635179 
        2.96891         2.32107         0.62699 
        2.98456          2.3004        0.618982 
        3.00023         2.28375        0.611103 
        3.01596         2.26623        0.603337 
        3.03164         2.24991        0.595728 
        3.04738         2.22858         0.58823 
         3.0631         2.20966        0.580863 
        3.07883         2.19931        0.573623 
        3.09456         2.18724        0.566508 
        3.11026         2.16438        0.559524 
        3.12596         2.15225         0.55266 
        3.14163         2.13552        0.545928 
        3.15734         2.12423        0.539292 
        3.17308          2.1023        0.532751 
        3.18879         2.09767        0.526337 
        3.20447         2.08044        0.520038 
         3.2202         2.06064        0.513823 
         3.2359         2.04722        0.507721 
        3.25157         2.03838        0.501733 
        3.26729         2.01521        0.495824 
        3.28304         2.01433        0.489999 
        3.29877         1.99027        0.484276 
        3.31446         1.97384        0.478656 
        3.33014         1.97206        0.473132 
        3.34585         1.95758        0.467686 
        3.36158         1.93847        0.462318 
        3.37727         1.93055        0.457052 
        3.39294         1.91043        0.451872 
        3.40867          1.8945        0.446755 
        3.42439         1.88944         0.44172 
        3.44008         1.87955        0.436773 
        3.45578         1.87072        0.431898 
        3.47153         1.85151        0.427087 
        3.48724         1.84012        0.422358 
        3.50292         1.83127        0.417712 
        3.51859         1.82339        0.413138 
        3.53431         1.80779        0.408619 
        3.55007         1.79566        0.404157 
        3.56577         1.78503        0.399779 
        3.58146         1.77936        0.395468 
        3.59719         1.76433        0.391211 
        3.61292           1.759        0.387019 
        3.62859         1.74303        0.382903 
        3.64429         1.73207         0.37884 
        3.66003         1.71942        0.374824 
        3.67578         1.70993        0.370868 
        3.69146         1.70304        0.366983 
        3.70712         1.68401        0.363162 
        3.72284         1.68289        0.359381 
        3.73853         1.66976        0.355661 
        3.75422         1.66314        0.351993 
        3.76993         1.65219        0.348373 
        3.78564         1.64154        0.344805 
        3.80137         1.62677        0.341282 
        3.81707         1.62262        0.337816 
        3.83279         1.61055        0.334395 
        3.84853         1.60438        0.331016 
        3.86424         1.59144        0.327691 
        3.87992         1.58902        0.324417 
        3.89561          1.5762        0.321187 
        3.91134         1.56797        0.317995 
        3.92704         1.55574        0.314849 
        3.94273         1.55252         0.31175 
        3.95845         1.54219        0.308687 
        3.97418         1.53308        0.305665 
        3.98988         1.52061        0.302687 
        4.00554         1.51045        0.299757 
        4.02125         1.50596        0.296858 
        4.03698         1.49304        0.293993 
        4.05268         1.48348        0.291172 
        4.06839         1.46952        0.288386 
         4.0841         1.46445        0.285638 
        4.09983         1.45383        0.282922 
        4.11555         1.44429        0.280242 
        4.13124         1.43634        0.277605 
        4.14693         1.42225        0.274999 
        4.16266         1.41374        0.272421 
        4.17839         1.40661        0.269878 
        4.19408         1.39945        0.267373 
        4.20977         1.38977        0.264898 
        4.22551         1.38248         0.26245 
        4.24123         1.37577        0.260034 
        4.25691         1.36282        0.257656 
        4.27259         1.35916        0.255307 
        4.28831         1.34884        0.252983 
        4.30404         1.34498        0.250685 
        4.31974           1.329        0.248422 
        4.33543         1.32624        0.246187 
        4.35116         1.32012        0.243975 
        4.36688         1.30879        0.241791 
        4.38255         1.30195        0.239641 
        4.39825         1.29717        0.237514 
        4.41398         1.29076        0.235408 
         4.4297         1.28446        0.233329 
        4.44541         1.27591        0.231277 
        4.46111          1.2726        0.229251 
        4.47683         1.26734        0.227247 
        4.49251         1.25808        0.225272 
        4.50819         1.25388        0.223321 
         4.5239         1.24538         0.22139 
        4.53962         1.24046         0.21948 
        4.55535         1.23075        0.217591 
        4.57106         1.22926        0.215728 
        4.58678         1.22237        0.213885 
         4.6025         1.21725        0.212064 
        4.61821         1.21129        0.210265 
        4.63391         1.20402        0.208489 
         4.6496         1.19806        0.206734 
        4.66532         1.19359        0.204997 
        4.68103         1.18941        0.203281 
        4.69673         1.18384        0.201585 
        4.71241         1.17818        0.199911 
        4.72811         1.17484        0.198254 
        4.74384          1.1664        0.196613 
        4.75955         1.16248        0.194993 
        4.77525         1.15646        0.193392 
        4.79096          1.1518        0.191808 
        4.80669         1.14862         0.19024 
         4.8224         1.14352        0.188692 
        4.83809          1.1399        0.187163 
        4.85379          1.1335         0.18565 
         4.8695         1.13121        0.184152 
        4.88521         1.12281        0.182672 
        4.90093         1.12105        0.181208 
        4.91663         1.11995        0.179761 
        4.93234         1.10994        0.178328 
        4.94807         1.10594         0.17691 
        4.96377         1.10286        0.175511 
        4.97943         1.09964        0.174129 
        4.99514         1.09471        0.172759 
        5.01086         1.09148        0.171402 
        5.02654         1.08932        0.170064 
        5.04227         1.08085        0.168736 
          5.058         1.07954        0.167422 
        5.07371         1.07748        0.166124 
        5.08942         1.06984         0.16484 
        5.10513          1.0686        0.163569 
        5.12084         1.06569        0.162311 
        5.13656         1.06301        0.161067 
        5.15225         1.05941        0.159838 
        5.16796         1.05479        0.158619 
        5.18369         1.05085        0.157413 
         5.1994         1.04722        0.156221 
        5.21509         1.04417        0.155042 
        5.23079         1.04247        0.153875 
        5.24649         1.03941         0.15272 
        5.26217         1.03107        0.151578 
        5.27788         1.03238        0.150447 
        5.29359         1.02813        0.149326 
        5.30933         1.02362        0.148216 
        5.32504          1.0238        0.147118 
        5.34073         1.02019        0.146033 
        5.35646         1.01542        0.144957 
        5.37218         1.01415        0.143891 
        5.38789         1.01295        0.142838 
        5.40357         1.00464        0.141797 
        5.41929          1.0057        0.140764 
        5.43502         1.00132        0.139741 
         5.4507         1.00034         0.13873 
        5.46639        0.995491         0.13773 
        5.48212        0.993291        0.136737 
        5.49786        0.990792        0.135752 
        5.51353        0.987033        0.134783 
        5.52921        0.984811        0.133822 
        5.54495        0.982708        0.132867 
        5.56066        0.981026        0.131923 
        5.57637        0.980952        0.130988 
        5.59207        0.975725        0.130063 
        5.60778        0.970935        0.129147 
        5.62346        0.972215         0.12824 
        5.63916        0.968632        0.127342 
        5.65487         0.96736        0.126452 
         5.6706        0.967008        0.125569 
        5.68633        0.963234        0.124694 
        5.70203        0.961156         0.12383 
        5.71773        0.958845        0.122974 
        5.73344        0.954367        0.122126 
        5.74916        0.954987        0.121285 
        5.76486        0.951092        0.120452 
        5.78054        0.949247         0.11963 
        5.79626        0.947173        0.118812 
          5.812        0.945007        0.118001 
         5.8277         0.94265        0.117201 
        5.84339        0.940603        0.116407 
        5.85911        0.938726         0.11562 
        5.87484        0.936894         0.11484 
        5.89053        0.935199        0.114069 
        5.90623        0.933175        0.113304 
        5.92195        0.930333        0.112546 
        5.93767        0.927517        0.111794 
        5.95336        0.926206        0.111051 
        5.96905        0.923224        0.110315 
        5.98476        0.921045        0.109584 
        6.00048        0.921076         0.10886 
        6.01617        0.917222        0.108143 
        6.03185        0.915848        0.107434 
        6.04756        0.915124         0.10673 
        6.06331         0.91339         0.10603 
        6.07903        0.910877        0.105338 
        6.09473        0.908563        0.104653 
        6.11044        0.908521        0.103973 
        6.12616         0.90382          0.1033 
        6.14186        0.903231        0.102633 
        6.15755        0.902167        0.101972 
        6.17326        0.900432        0.101316 
        6.18898        0.898368        0.100666 
        6.20467        0.896553        0.100023 
        6.22036        0.892819       0.0993854 
         6.2361        0.893382       0.0987518 
         6.2518        0.890371       0.0981247 
        6.26748        0.888672       0.0975044 
        6.28319        0.886995       0.0968878 
        6.29893        0.884949       0.0962761 
        6.31463        0.883742       0.0956706 
        6.33033        0.882405       0.0950706 
        6.34604        0.881949       0.0944753 
        6.36177        0.878421       0.0938846 
        6.37747        0.879364          0.0933 
