# k  (h/Mpc)    Pcb(k)  (Mpc/h)^3    Pcb_linear(k) (Mpc/h)^3   ShotnoiseSubtracted = true
      0.0200456         1341.03         1358.98 
      0.0350414         1046.34         1034.62 
      0.0492313         772.472          770.73 
      0.0637834         640.164         647.452 
      0.0800726         514.839         522.452 
       0.096163         392.126         386.377 
       0.111083         317.141         310.037 
       0.126058         273.493         275.138 
       0.142273         233.639          235.65 
       0.158546         189.978         188.374 
        0.17375         162.633         159.006 
       0.188953         146.192         143.945 
       0.204907         126.545         128.294 
       0.220756         111.244          109.51 
        0.23588         97.2507         95.4035 
         0.2514          88.224         86.6366 
       0.267535         81.3091         78.7678 
       0.283568         71.9127         69.9002 
       0.299022          65.176         62.3991 
       0.314451         61.0459         57.0382 
       0.330372         55.0557         52.4731 
       0.346141         50.3912         47.8374 
       0.361624         46.1073         43.5779 
       0.377134         42.2512         40.1246 
       0.392932         40.7364         37.1938 
       0.408854         37.0034         34.3904 
       0.424564          35.274         31.7673 
       0.440253         32.2418         29.4852 
       0.455999         29.5481         27.5092 
       0.471626         27.8688          25.708 
        0.48727         26.9618         24.0133 
       0.502856          25.233         22.4774 
       0.518488         23.4094         21.1058 
       0.534347         21.9763         19.8356 
       0.550082         21.1197         18.6638 
       0.565732         20.2501         17.5856 
       0.581496         19.0911         16.5953 
       0.597222          17.987         15.6877 
       0.612804         17.0474         14.8532 
       0.628434         16.5881         14.0735 
       0.644267         15.7426         13.3424 
       0.660051         14.9308         12.6683 
       0.675724         14.1646         12.0453 
       0.691403         13.7654         11.4639 
       0.707174          13.142         10.9177 
       0.722871         12.7852         10.4095 
        0.73838         12.0044         9.93926 
       0.754018          11.468         9.49462 
       0.769845         11.0047         9.07245 
        0.78569         10.7128          8.6757 
       0.801365         10.2638         8.30674 
       0.817031         9.93606         7.95966 
       0.832809          9.4832         7.63038 
       0.848511         9.23686         7.32138 
       0.864097         8.89835         7.03178 
       0.879701         8.69909         6.75771 
       0.895507         8.36341         6.49515 
       0.911279         8.04306         6.24721 
        0.92691          7.8274         6.01438 
       0.942635          7.5625         5.79224 
       0.958396         7.29989         5.58095 
       0.974128         7.13319         5.38068 
       0.989692         6.80836          5.1923 
        1.00528         6.71755         5.01274 
        1.02113         6.50559         4.83893 
        1.03692          6.3389         4.67407 
        1.05264         6.11781         4.51771 
        1.06832         5.97161         4.36882 
        1.08405         5.82166         4.22629 
        1.09979         5.67854         4.09009 
        1.11537          5.5234         3.96129 
        1.13105         5.36647         3.83732 
        1.14679         5.23937         3.71822 
        1.16256         5.07978         3.60398 
        1.17828         5.01284         3.49495 
        1.19395          4.8443         3.39084 
         1.2097         4.70973         3.29048 
        1.22537         4.58019         3.19469 
          1.241         4.48554         3.10304 
        1.25666         4.44129         3.01478 
        1.27241         4.34385         2.92957 
        1.28819         4.17156         2.84754 
        1.30392          4.0853          2.7689 
        1.31957         4.02991         2.69361 
        1.33529         3.90319         2.62087 
        1.35108         3.82817         2.55054 
        1.36674         3.73465         2.48332 
         1.3824         3.69128         2.41859 
        1.39811          3.5932         2.35598 
        1.41389         3.51162         2.29536 
        1.42964           3.453         2.23699 
        1.44531         3.39488         2.18095 
        1.46101         3.32588         2.12672 
        1.47667         3.26177         2.07451 
        1.49229         3.15947         2.02421 
        1.50793         3.09108         1.97553 
        1.52367         3.04127         1.92814 
        1.53953         2.97296         1.88201 
        1.55526          2.9762         1.83776 
        1.57092         2.89512         1.79512 
        1.58662         2.86519         1.75375 
        1.60235         2.77826         1.71361 
        1.61809         2.73799         1.67471 
        1.63369         2.68883         1.63738 
        1.64941         2.64324         1.60092 
        1.66519         2.60841         1.56545 
        1.68085         2.54984         1.53131 
        1.69652         2.50944         1.49818 
        1.71228         2.46282         1.46586 
        1.72806         2.43218         1.43447 
        1.74368         2.39082         1.40431 
        1.75933         2.35524         1.37497 
        1.77505         2.31276         1.34634 
        1.79081         2.27246         1.31848 
         1.8065          2.2425         1.29152 
        1.82218         2.19662         1.26535 
        1.83797         2.16097         1.23973 
        1.85367         2.13031         1.21497 
        1.86928         2.10166         1.19103 
        1.88497         2.06053         1.16762 
        1.90073         2.04521         1.14475 
        1.91647         2.00106         1.12251 
        1.93218         1.97772         1.10092 
        1.94787         1.94746         1.07993 
        1.96363         1.92254         1.05941 
        1.97935         1.89026         1.03946 
        1.99499          1.8645         1.02015 
        2.01064         1.84106          1.0013 
         2.0264         1.80913        0.982808 
        2.04216         1.79031        0.964797 
        2.05781         1.75666        0.947354 
        2.07353          1.7482        0.930282 
        2.08928         1.71561        0.913597 
        2.10499         1.69015        0.897367 
        2.12065         1.67182        0.881582 
        2.13633         1.64747        0.866166 
        2.15211         1.62035         0.85102 
        2.16785         1.60541        0.836281 
        2.18349         1.57957        0.821985 
        2.19916         1.56794        0.807995 
        2.21489         1.54765        0.794287 
        2.23063         1.51673        0.780888 
         2.2463         1.49739         0.76786 
        2.26194         1.48511        0.755164 
        2.27765         1.45863        0.742691 
        2.29341           1.446        0.730469 
        2.30914          1.4212        0.718548 
        2.32486         1.41427        0.706901 
        2.34061         1.39722        0.695495 
        2.35635         1.37958        0.684351 
        2.37203         1.35973        0.673492 
        2.38768         1.34513        0.662892 
        2.40339         1.33554        0.652482 
        2.41914         1.31797        0.642273 
        2.43483         1.30211         0.63232 
         2.4505         1.28455        0.622595 
        2.46622         1.26786        0.613042 
        2.48195         1.25561         0.60369 
        2.49759         1.24006        0.594584 
        2.51328         1.22731        0.585643 
        2.52906         1.21789         0.57683 
        2.54479         1.19929        0.568232 
        2.56049          1.1885        0.559827 
        2.57618         1.17425          0.5516 
        2.59189         1.16475        0.543527 
        2.60758         1.14998        0.535629 
        2.62325         1.13688        0.527898 
        2.63898         1.12677        0.520293 
        2.65468         1.10973        0.512855 
        2.67044         1.10477        0.505531 
        2.68618         1.09548        0.498367 
        2.70184          1.0785        0.491372 
        2.71755         1.07362        0.484494 
        2.73329         1.05952        0.477737 
        2.74897         1.04757        0.471132 
        2.76462         1.03655        0.464668 
        2.78034         1.03215        0.458298 
        2.79607         1.01932        0.452041 
        2.81179         1.00614        0.445909 
        2.82749        0.998253        0.439899 
        2.84321        0.989191        0.433992 
        2.85893        0.976668        0.428197 
        2.87462        0.969666        0.422517 
        2.89033        0.962981        0.416936 
        2.90605        0.955121        0.411451 
        2.92176        0.944138        0.406068 
        2.93747         0.93619        0.400785 
        2.95318        0.925617        0.395595 
        2.96891         0.92217        0.390494 
        2.98456        0.906033        0.385507 
        3.00023        0.900913          0.3806 
        3.01596        0.893342        0.375763 
        3.03164        0.887049        0.371025 
        3.04738         0.87778        0.366354 
         3.0631        0.867268        0.361766 
        3.07883        0.863315        0.357257 
        3.09456        0.856743        0.352826 
        3.11026        0.848383        0.348476 
        3.12596        0.840692        0.344201 
        3.14163        0.837799        0.340008 
        3.15734         0.82921        0.335875 
        3.17308        0.820213        0.331802 
        3.18879        0.817761        0.327807 
        3.20447        0.809152        0.323884 
         3.2202        0.797277        0.320013 
         3.2359        0.795169        0.316213 
        3.25157        0.786597        0.312484 
        3.26729        0.782796        0.308803 
        3.28304        0.777248        0.305175 
        3.29877        0.769019        0.301611 
        3.31446        0.767195        0.298111 
        3.33014        0.755664         0.29467 
        3.34585        0.751497        0.291279 
        3.36158        0.746938        0.287935 
        3.37727        0.743095        0.284655 
        3.39294        0.737204         0.28143 
        3.40867        0.731063        0.278243 
        3.42439        0.726237        0.275107 
        3.44008        0.719882        0.272026 
        3.45578        0.714704         0.26899 
        3.47153        0.710788        0.265993 
        3.48724        0.704691        0.263048 
        3.50292        0.698459        0.260154 
        3.51859        0.697256        0.257306 
        3.53431         0.69057        0.254491 
        3.55007         0.68644        0.251712 
        3.56577        0.681783        0.248986 
        3.58146        0.677583        0.246301 
        3.59719        0.671956         0.24365 
        3.61292        0.665356        0.241038 
        3.62859        0.662841        0.238475 
        3.64429        0.657676        0.235945 
        3.66003        0.652713        0.233443 
        3.67578        0.649364        0.230979 
        3.69146        0.645388         0.22856 
        3.70712        0.642553         0.22618 
        3.72284        0.637543        0.223826 
        3.73853        0.632505        0.221509 
        3.75422        0.629692        0.219224 
        3.76993         0.62383        0.216969 
        3.78564        0.620215        0.214748 
        3.80137        0.617151        0.212553 
        3.81707        0.612016        0.210395 
        3.83279        0.608349        0.208264 
        3.84853          0.6039         0.20616 
        3.86424        0.600026        0.204089 
        3.87992        0.598034        0.202049 
        3.89561        0.593496        0.200038 
        3.91134        0.588096         0.19805 
        3.92704        0.584657        0.196091 
        3.94273        0.581517        0.194161 
        3.95845        0.579765        0.192253 
        3.97418         0.57663        0.190371 
        3.98988        0.571692        0.188516 
        4.00554        0.566035        0.186691 
        4.02125        0.563412        0.184886 
        4.03698         0.55893        0.183101 
        4.05268        0.552414        0.181344 
        4.06839        0.549595        0.179609 
         4.0841        0.543642        0.177898 
        4.09983        0.540198        0.176206 
        4.11555        0.536553        0.174537 
        4.13124        0.532182        0.172895 
        4.14693        0.528494        0.171272 
        4.16266        0.521919        0.169666 
        4.17839        0.518889        0.168082 
        4.19408        0.517415        0.166522 
        4.20977        0.512401        0.164981 
        4.22551        0.509992        0.163456 
        4.24123        0.504821        0.161952 
        4.25691        0.502211         0.16047 
        4.27259        0.498466        0.159007 
        4.28831        0.495718         0.15756 
        4.30404        0.492464        0.156129 
        4.31974        0.489334        0.154719 
        4.33543         0.48556        0.153327 
        4.35116        0.482968        0.151949 
        4.36688        0.479619        0.150589 
        4.38255        0.477112        0.149251 
        4.39825        0.474219        0.147925 
        4.41398        0.471569        0.146614 
         4.4297        0.469584         0.14532 
        4.44541        0.466297        0.144041 
        4.46111        0.463755        0.142779 
        4.47683        0.462675        0.141531 
        4.49251        0.459397        0.140301 
        4.50819         0.45813        0.139086 
         4.5239        0.455043        0.137884 
        4.53962        0.451993        0.136694 
        4.55535        0.451401        0.135518 
        4.57106        0.450038        0.134357 
        4.58678        0.446949         0.13321 
         4.6025        0.445553        0.132075 
        4.61821        0.443502        0.130955 
        4.63391        0.442607        0.129849 
         4.6496        0.440471        0.128756 
        4.66532        0.438768        0.127674 
        4.68103        0.436617        0.126605 
        4.69673        0.434933        0.125549 
        4.71241        0.433838        0.124506 
        4.72811        0.433567        0.123474 
        4.74384        0.431759        0.122452 
        4.75955        0.430192        0.121443 
        4.77525        0.428418        0.120446 
        4.79096         0.42819        0.119459 
        4.80669        0.426959        0.118483 
         4.8224        0.425157        0.117519 
        4.83809        0.424218        0.116567 
        4.85379        0.423842        0.115624 
         4.8695        0.423434        0.114692 
        4.88521        0.422787         0.11377 
        4.90093        0.421582        0.112858 
        4.91663        0.421024        0.111956 
        4.93234        0.419135        0.111064 
        4.94807        0.419162        0.110181 
        4.96377        0.418806        0.109309 
        4.97943        0.418203        0.108449 
        4.99514        0.416743        0.107596 
        5.01086        0.418074        0.106751 
        5.02654        0.416725        0.105917 
        5.04227        0.415883         0.10509 
          5.058        0.416928        0.104271 
        5.07371        0.415356        0.103463 
        5.08942        0.417254        0.102663 
        5.10513        0.415984        0.101872 
        5.12084        0.415663        0.101089 
        5.13656        0.415171        0.100314 
        5.15225        0.415857       0.0995482 
        5.16796        0.415667       0.0987894 
        5.18369        0.414204       0.0980379 
         5.1994        0.416307       0.0972956 
        5.21509        0.416257       0.0965617 
        5.23079        0.415307       0.0958346 
        5.24649        0.416554       0.0951155 
        5.26217         0.41549       0.0944043 
        5.27788        0.417484       0.0936994 
        5.29359        0.417572       0.0930015 
        5.30933        0.417324       0.0923099 
        5.32504        0.418383       0.0916264 
        5.34073        0.418664       0.0909506 
        5.35646        0.418603       0.0902803 
        5.37218        0.419689       0.0896167 
        5.38789          0.4187       0.0889608 
        5.40357        0.420829       0.0883122 
        5.41929        0.421372       0.0876687 
        5.43502        0.421487       0.0870316 
         5.4507        0.422876       0.0864023 
        5.46639        0.422898       0.0857792 
        5.48212         0.42362       0.0851608 
        5.49786        0.424127       0.0845477 
        5.51353         0.42588       0.0839438 
        5.52921        0.426129       0.0833452 
        5.54495        0.427118       0.0827506 
        5.56066        0.427785       0.0821626 
        5.57637        0.428426       0.0815803 
        5.59207        0.429456       0.0810042 
        5.60778        0.430372       0.0804335 
        5.62346        0.431905       0.0798691 
        5.63916        0.432413       0.0793096 
        5.65487        0.432799       0.0787552 
         5.6706        0.433975       0.0782055 
        5.68633        0.435003       0.0776608 
        5.70203        0.437472       0.0771224 
        5.71773        0.436701       0.0765893 
        5.73344        0.439605       0.0760609 
        5.74916        0.440166        0.075537 
        5.76486        0.441224       0.0750188 
        5.78054        0.441765       0.0745063 
        5.79626        0.442785       0.0739971 
          5.812        0.445515       0.0734922 
         5.8277        0.445872       0.0729935 
        5.84339         0.44627       0.0724995 
        5.85911        0.449707       0.0720091 
        5.87484        0.448786       0.0715233 
        5.89053        0.451038        0.071043 
        5.90623         0.45287       0.0705669 
        5.92195        0.452454       0.0700943 
        5.93767        0.454823       0.0696263 
        5.95336        0.455281       0.0691634 
        5.96905        0.456346       0.0687049 
        5.98476        0.457193       0.0682499 
        6.00048        0.458486       0.0677989 
        6.01617        0.460778       0.0673526 
        6.03185        0.461463       0.0669109 
        6.04756        0.462393       0.0664721 
        6.06331        0.464705       0.0660362 
        6.07903         0.46534       0.0656053 
        6.09473        0.466132       0.0651785 
        6.11044         0.46684       0.0647553 
        6.12616        0.468824       0.0643358 
        6.14186        0.468217       0.0639205 
        6.15755        0.472098       0.0635089 
        6.17326        0.472403       0.0631006 
        6.18898        0.473876       0.0626957 
        6.20467        0.475404       0.0622951 
        6.22036        0.474998       0.0618981 
         6.2361        0.476684       0.0615034 
         6.2518        0.478387       0.0611128 
        6.26748        0.478954       0.0607266 
        6.28319        0.481646       0.0603425 
        6.29893        0.483402       0.0599615 
        6.31463        0.483376       0.0595845 
        6.33033          0.4848       0.0592108 
        6.34604        0.486039         0.05884 
        6.36177        0.486759       0.0584721 
        6.37747        0.487612        0.058108 
