#  k  (h/Mpc)          P(k)  (Mpc/h)^3     P_linear(k) (Mpc/h)^3
      0.0200456         19056.9           19344 
      0.0350414           12561         12062.3 
      0.0492313          7848.6         7895.27 
      0.0637834         6230.73         6435.56 
      0.0800726         4857.74         5087.25 
       0.096163         3683.88         3453.47 
       0.111083         2844.79         2597.82 
       0.126058            2365         2323.21 
       0.142273         2074.27          2004.1 
       0.158546         1658.36         1524.36 
        0.17375         1422.84         1226.22 
       0.188953         1332.01         1111.77 
       0.204907         1140.16         1004.98 
       0.220756         1019.89         838.674 
        0.23588         895.747         704.921 
         0.2514         796.105          634.08 
       0.267535         771.752         581.857 
       0.283568         674.979          512.42 
       0.299022          639.28          447.25 
       0.314451         654.981         403.629 
       0.330372         560.256         371.953 
       0.346141         515.294         338.432 
       0.361624         491.011         304.533 
       0.377134         464.298         277.152 
       0.392932          442.83         256.052 
       0.408854          423.07         236.377 
       0.424564         409.514         216.946 
       0.440253         371.789         199.641 
       0.455999         353.924         185.311 
       0.471626         358.704         172.737 
        0.48727         336.341         160.689 
       0.502856         314.267         149.564 
       0.518488         310.232         139.737 
       0.534347         292.338         130.885 
       0.550082         278.896         122.743 
       0.565732         277.031         115.178 
       0.581496         265.792         108.237 
       0.597222         258.039         101.968 
       0.612804         249.615         96.2465 
       0.628434         241.435         90.9034 
       0.644267         230.973         85.8822 
       0.660051         228.352         81.2812 
       0.675724         222.648          77.059 
       0.691403         218.359          73.131 
       0.707174             210         69.4518 
       0.722871         206.351         66.0376 
        0.73838         202.984         62.8871 
       0.754018         194.986         59.9165 
       0.769845         195.132          57.104 
        0.78569         188.556         54.4683 
       0.801365         182.666         52.0239 
       0.817031         181.396         49.7308 
       0.832809         176.937         47.5613 
       0.848511         172.906         45.5311 
       0.864097         167.754         43.6334 
       0.879701         167.644         41.8423 
       0.895507          163.68         40.1307 
       0.911279         159.465         38.5184 
        0.92691         156.346         37.0082 
       0.942635         154.967         35.5706 
       0.958396         151.245         34.2064 
       0.974128         149.408         32.9162 
       0.989692         144.133         31.7052 
        1.00528         144.048         30.5534 
        1.02113         141.308         29.4407 
        1.03692          138.36         28.3876 
        1.05264         135.593         27.3906 
        1.06832         135.187         26.4431 
        1.08405          131.75         25.5378 
        1.09979          130.29         24.6743 
        1.11537         128.898         23.8592 
        1.13105         126.189         23.0761 
        1.14679         125.015          22.325 
        1.16256         122.217         21.6058 
        1.17828          121.31         20.9207 
        1.19395          118.68         20.2675 
         1.2097         117.847         19.6389 
        1.22537         116.681         19.0399 
          1.241         113.279         18.4676 
        1.25666         112.608         17.9175 
        1.27241         110.115         17.3871 
        1.28819         109.232         16.8773 
        1.30392         108.043         16.3894 
        1.31957         105.984         15.9229 
        1.33529         103.963         15.4728 
        1.35108         103.251         15.0383 
        1.36674         101.523         14.6236 
         1.3824         100.688         14.2249 
        1.39811         99.4718         13.8397 
        1.41389         97.5202         13.4673 
        1.42964         96.1081         13.1091 
        1.44531         95.4203         12.7658 
        1.46101         93.5289         12.4339 
        1.47667         93.3723         12.1149 
        1.49229         92.2275         11.8078 
        1.50793         90.5851         11.5111 
        1.52367         89.3984         11.2226 
        1.53953         88.4461          10.942 
        1.55526         87.4935         10.6733 
        1.57092         86.8686         10.4146 
        1.58662         85.4219         10.1639 
        1.60235         84.4747         9.92098 
        1.61809         83.5812         9.68583 
        1.63369         82.1784         9.46037 
        1.64941          82.135         9.24046 
        1.66519         80.7817         9.02673 
        1.68085         79.4173         8.82127 
        1.69652         78.6184         8.62212 
        1.71228         77.3862         8.42798 
        1.72806         77.3461         8.23964 
        1.74368         75.8849         8.05894 
        1.75933         75.0672         7.88327 
        1.77505         74.5039         7.71201 
        1.79081         73.2961         7.54553 
         1.8065         72.3271         7.38465 
        1.82218         71.7742          7.2286 
        1.83797         71.3772         7.07597 
        1.85367         69.9354         6.92858 
        1.86928         69.6154         6.78627 
        1.88497         68.5538         6.64716 
        1.90073         67.9269         6.51143 
        1.91647         67.1666          6.3796 
        1.93218         66.4198         6.25169 
        1.94787         65.4413         6.12746 
        1.96363         64.7213         6.00611 
        1.97935         64.2545         5.88828 
        1.99499         63.6663         5.77427 
        2.01064         62.6531         5.66311 
         2.0264         61.9282         5.55417 
        2.04216         61.1767         5.44813 
        2.05781         60.5541         5.34553 
        2.07353          59.977         5.24519 
        2.08928           59.53         5.14721 
        2.10499         58.5653         5.05198 
        2.12065         58.3644         4.95944 
        2.13633         57.4213         4.86913 
        2.15211           56.76         4.78048 
        2.16785         55.8721         4.69427 
        2.18349         55.5422         4.61073 
        2.19916         55.0001         4.52904 
        2.21489         54.3022         4.44905 
        2.23063          53.516         4.37093 
         2.2463         53.3487         4.29503 
        2.26194         52.8951         4.22112 
        2.27765         52.0415         4.14856 
        2.29341         51.6085         4.07751 
        2.30914         50.8829         4.00827 
        2.32486         50.6459         3.94067 
        2.34061         49.7894         3.87451 
        2.35635         49.5036         3.80992 
        2.37203         48.7357         3.74703 
        2.38768         48.4878         3.68568 
        2.40339         47.8913         3.62547 
        2.41914         47.0929         3.56647 
        2.43483         47.0182         3.50898 
         2.4505         46.5764         3.45285 
        2.46622         45.9645         3.39775 
        2.48195         45.3884         3.34385 
        2.49759         44.9944          3.2914 
        2.51328         44.5375         3.23993 
        2.52906         44.2253         3.18924 
        2.54479         43.6474         3.13981 
        2.56049         42.9064         3.09152 
        2.57618         42.6543         3.04429 
        2.59189         42.2863         2.99797 
        2.60758         41.7918         2.95268 
        2.62325         41.5599         2.90838 
        2.63898         41.0916         2.86483 
        2.65468         40.7058         2.82226 
        2.67044         40.2514         2.78037 
        2.68618         39.9216         2.73943 
        2.70184         39.3776         2.69947 
        2.71755         38.9227          2.6602 
        2.73329         38.6773         2.62165 
        2.74897          38.286         2.58399 
        2.76462         38.0352         2.54715 
        2.78034         37.5795         2.51087 
        2.79607         37.0476         2.47525 
        2.81179         36.6086         2.44037 
        2.82749         36.4295         2.40619 
        2.84321         36.1551         2.37263 
        2.85893         35.6391         2.33972 
        2.87462         35.2851         2.30748 
        2.89033         34.8211         2.27582 
        2.90605         34.6036         2.24473 
        2.92176          34.278         2.21423 
        2.93747         33.9424         2.18431 
        2.95318         33.6538         2.15493 
        2.96891         33.2509         2.12608 
        2.98456         33.0628         2.09788 
        3.00023         32.7501         2.07015 
        3.01596         32.3425         2.04283 
        3.03164         32.0316         2.01608 
        3.04738         31.7407         1.98973 
         3.0631         31.5604         1.96386 
        3.07883         31.1656         1.93845 
        3.09456          30.804         1.91349 
        3.11026          30.393           1.889 
        3.12596         30.2287         1.86494 
        3.14163         29.9937         1.84136 
        3.15734         29.6419         1.81813 
        3.17308         29.4303         1.79524 
        3.18879         29.1328          1.7728 
        3.20447         28.7576         1.75078 
         3.2202         28.5766         1.72907 
         3.2359         28.3529         1.70776 
        3.25157         27.9926         1.68686 
        3.26729         27.7462         1.66624 
        3.28304         27.4627         1.64593 
        3.29877         27.1664         1.62598 
        3.31446         26.9124          1.6064 
        3.33014         26.6873         1.58716 
        3.34585         26.4443          1.5682 
        3.36158         26.2033         1.54953 
        3.37727          26.011         1.53122 
        3.39294         25.7528         1.51321 
        3.40867           25.52         1.49544 
        3.42439          25.323         1.47795 
        3.44008         25.0799         1.46078 
        3.45578         24.8511         1.44387 
        3.47153         24.6695         1.42718 
        3.48724          24.364         1.41079 
        3.50292         24.1933         1.39469 
        3.51859         23.9795         1.37885 
        3.53431         23.7043         1.36321 
        3.55007         23.4586         1.34777 
        3.56577         23.3075         1.33263 
        3.58146         23.0241         1.31772 
        3.59719         22.9013         1.30301 
        3.61292         22.7074         1.28853 
        3.62859         22.4439         1.27432 
        3.64429          22.228          1.2603 
        3.66003         22.0472         1.24645 
        3.67578         21.8535          1.2328 
        3.69146         21.6894         1.21942 
        3.70712         21.4866         1.20625 
        3.72284          21.345         1.19323 
        3.73853          21.155         1.18042 
        3.75422         20.9187          1.1678 
        3.76993         20.7881         1.15535 
        3.78564         20.5218         1.14308 
        3.80137         20.3527         1.13097 
        3.81707         20.1609         1.11907 
        3.83279         19.9561         1.10732 
        3.84853         19.8793         1.09572 
        3.86424         19.6383         1.08431 
        3.87992         19.4611         1.07308 
        3.89561         19.3134           1.062 
        3.91134         19.1861         1.05106 
        3.92704         18.9867         1.04029 
        3.94273         18.7938         1.02968 
        3.95845          18.641         1.01919 
        3.97418         18.5246         1.00885 
        3.98988          18.275        0.998662 
        4.00554         18.1912        0.988645 
        4.02125         17.9977        0.978735 
        4.03698         17.8472        0.968945 
        4.05268         17.6509        0.959311 
        4.06839         17.5339          0.9498 
         4.0841         17.3856        0.940421 
        4.09983         17.2959        0.931154 
        4.11555         17.1153        0.922016 
        4.13124         16.9064        0.913024 
        4.14693         16.8159        0.904144 
        4.16266          16.689        0.895362 
        4.17839         16.5452        0.886701 
        4.19408         16.3823        0.878173 
        4.20977         16.2656        0.869754 
        4.22551         16.0807        0.861424 
        4.24123         15.9469        0.853211 
        4.25691         15.8351        0.845128 
        4.27259         15.6898        0.837146 
        4.28831         15.5446        0.829251 
        4.30404         15.4471        0.821449 
        4.31974         15.2932        0.813764 
        4.33543         15.1991        0.806182 
        4.35116         15.0702        0.798678 
        4.36688         14.9401        0.791271 
        4.38255         14.8016        0.783986 
        4.39825         14.7331        0.776776 
        4.41398         14.5779        0.769642 
         4.4297         14.4486        0.762605 
        4.44541         14.3232        0.755657 
        4.46111         14.2097          0.7488 
        4.47683         14.0762        0.742023 
        4.49251         13.9673        0.735344 
        4.50819         13.8582        0.728747 
         4.5239         13.7638        0.722222 
        4.53962         13.6326        0.715769 
        4.55535         13.5424        0.709391 
        4.57106         13.4089        0.703099 
        4.58678         13.3015        0.696882 
         4.6025         13.2132        0.690738 
        4.61821         13.1027        0.684669 
        4.63391         12.9483        0.678681 
         4.6496         12.8502        0.672766 
        4.66532         12.7808        0.666912 
        4.68103         12.6628        0.661131 
        4.69673         12.5731        0.655423 
        4.71241         12.4874        0.649787 
        4.72811         12.3881        0.644209 
        4.74384         12.2897        0.638688 
        4.75955         12.1549        0.633241 
        4.77525           12.05        0.627859 
        4.79096         11.9821        0.622533 
        4.80669         11.8459        0.617267 
         4.8224         11.7973        0.612066 
        4.83809         11.7011        0.606931 
        4.85379         11.6226        0.601852 
         4.8695         11.5167        0.596826 
        4.88521         11.4481         0.59186 
        4.90093         11.3247        0.586949 
        4.91663         11.2505        0.582098 
        4.93234         11.1956        0.577296 
        4.94807         11.0755        0.572545 
        4.96377         10.9897        0.567856 
        4.97943         10.9176        0.563229 
        4.99514         10.7788        0.558642 
        5.01086         10.7145        0.554102 
        5.02654         10.6436        0.549624 
        5.04227         10.5578        0.545182 
          5.058         10.4816        0.540787 
        5.07371         10.3931        0.536449 
        5.08942         10.3634        0.532157 
        5.10513         10.2436        0.527912 
        5.12084         10.1753         0.52371 
        5.13656         10.0968        0.519555 
        5.15225         10.0085        0.515452 
        5.16796         9.96061        0.511387 
        5.18369         9.86093        0.507361 
         5.1994         9.79203        0.503386 
        5.21509         9.70872        0.499457 
        5.23079         9.62808        0.495565 
        5.24649         9.56256        0.491717 
        5.26217         9.49967        0.487913 
        5.27788         9.40894        0.484143 
        5.29359         9.34443        0.480413 
        5.30933         9.27847        0.476716 
        5.32504         9.20688        0.473064 
        5.34073         9.12967        0.469454 
        5.35646         9.04742        0.465874 
        5.37218         8.99745        0.462331 
        5.38789         8.92548         0.45883 
        5.40357         8.87456        0.455369 
        5.41929         8.81979        0.451936 
        5.43502         8.75051        0.448538 
         5.4507         8.67148        0.445183 
        5.46639         8.59877        0.441862 
        5.48212         8.55751        0.438566 
        5.49786         8.47347          0.4353 
        5.51353         8.41085        0.432084 
        5.52921         8.37118        0.428896 
        5.54495         8.31051        0.425731 
        5.56066         8.24189        0.422602 
        5.57637         8.17294        0.419504 
        5.59207         8.09817         0.41644 
        5.60778         8.05697        0.413405 
        5.62346         7.99192        0.410404 
        5.63916         7.93626         0.40743 
        5.65487         7.89264        0.404484 
         5.6706         7.83022        0.401564 
        5.68633         7.75531        0.398671 
        5.70203         7.73173        0.395813 
        5.71773         7.65126        0.392982 
        5.73344         7.60289        0.390178 
        5.74916         7.53979        0.387399 
        5.76486         7.50167         0.38465 
        5.78054         7.44618        0.381932 
        5.79626         7.37536        0.379233 
          5.812         7.32793        0.376557 
         5.8277           7.292        0.373914 
        5.84339         7.24538        0.371297 
        5.85911         7.18224          0.3687 
        5.87484         7.12331        0.366127 
        5.89053         7.07297        0.363585 
        5.90623         7.04473        0.361065 
        5.92195         6.97473        0.358565 
        5.93767         6.93448        0.356089 
        5.95336          6.8852        0.353641 
        5.96905          6.8313        0.351217 
        5.98476         6.80034        0.348812 
        6.00048          6.7349        0.346428 
        6.01617         6.68232         0.34407 
        6.03185         6.64563        0.341737 
        6.04756         6.59427        0.339419 
        6.06331         6.54238        0.337118 
        6.07903         6.50349        0.334843 
        6.09473         6.44824        0.332591 
        6.11044         6.41611        0.330358 
        6.12616         6.38193        0.328146 
        6.14186         6.33539        0.325955 
        6.15755         6.29695        0.323785 
        6.17326         6.25403        0.321633 
        6.18898         6.19816        0.319499 
        6.20467         6.15644        0.317389 
        6.22036         6.11339        0.315297 
         6.2361         6.07729        0.313219 
         6.2518         6.03356        0.311163 
        6.26748         5.98964        0.309129 
        6.28319         5.94368        0.307108 
        6.29893         5.90386        0.305103 
        6.31463         5.85599         0.30312 
        6.33033         5.82072        0.301155 
        6.34604         5.79163        0.299205 
        6.36177         5.73432        0.297271 
        6.37747         5.70091        0.295358 
