# k  (h/Mpc)    Pcb(k)  (Mpc/h)^3    Pcb_linear(k) (Mpc/h)^3   ShotnoiseSubtracted = true
      0.0200456         7698.83         7812.53 
      0.0350414         6187.77         6064.79 
      0.0492313         4636.05         4677.64 
      0.0637834         3839.02          3972.7 
      0.0800726         3017.73         3132.85 
       0.096163         2393.59         2341.82 
       0.111083         2024.68         1957.45 
       0.126058         1701.81         1737.58 
       0.142273         1431.97         1433.88 
       0.158546         1192.79         1157.86 
        0.17375         1068.39         1018.66 
       0.188953          978.99         919.882 
       0.204907         825.011         793.264 
       0.220756         742.532         679.662 
        0.23588         668.461         611.164 
         0.2514         602.169         556.821 
       0.267535         576.653         494.731 
       0.283568         504.791         438.523 
       0.299022          481.14         399.297 
       0.314451         478.298         367.002 
       0.330372         413.284         333.435 
       0.346141         384.108         302.963 
       0.361624         365.995         278.873 
       0.377134         338.834         258.208 
       0.392932         330.921          238.14 
       0.408854         313.349         219.499 
       0.424564         301.421         203.732 
       0.440253         272.526         189.869 
       0.455999         259.782         176.906 
       0.471626         256.181         165.053 
        0.48727         245.732         154.449 
       0.502856         224.921         144.947 
       0.518488         224.014         136.141 
       0.534347         209.164         127.878 
       0.550082         204.666         120.405 
       0.565732         201.757         113.612 
       0.581496         187.886         107.287 
       0.597222         183.805         101.436 
       0.612804         178.644         96.0772 
       0.628434         172.843         91.1123 
       0.644267         164.844         86.4452 
       0.660051         160.203          82.118 
       0.675724          158.94         78.1145 
       0.691403         154.482         74.3773 
       0.707174          149.65         70.8659 
       0.722871         146.974         67.5974 
        0.73838         144.363         64.5719 
       0.754018         135.548         61.7105 
       0.769845         135.023         58.9928 
        0.78569         131.459          56.438 
       0.801365          127.85         54.0611 
       0.817031         123.747         51.8244 
       0.832809         121.688         49.7012 
       0.848511         118.934         47.7079 
       0.864097         116.916         45.8388 
       0.879701         114.995         44.0691 
       0.895507         110.885         42.3729 
       0.911279         109.317         40.7705 
        0.92691         106.055         39.2651 
       0.942635         104.174         37.8282 
       0.958396         103.062         36.4609 
       0.974128         100.785         35.1644 
       0.989692         98.8309         33.9444 
        1.00528         96.9303         32.7811 
        1.02113         94.5668         31.6546 
        1.03692         94.2463         30.5858 
        1.05264         92.7005         29.5717 
        1.06832         89.5513         28.6058 
        1.08405         88.9943         27.6808 
        1.09979         88.1038         26.7966 
        1.11537         85.7584         25.9602 
        1.13105         84.2666         25.1549 
        1.14679         82.8882          24.381 
        1.16256         81.3445         23.6384 
        1.17828         80.4037         22.9296 
        1.19395         78.2181         22.2525 
         1.2097         78.4072         21.5995 
        1.22537         76.5278         20.9762 
          1.241         75.8524         20.3796 
        1.25666         73.5955         19.8049 
        1.27241         73.3973         19.2499 
        1.28819         72.3625         18.7155 
        1.30392         70.9779         18.2031 
        1.31957         70.5537         17.7123 
        1.33529         69.3608          17.238 
        1.35108         68.3751         16.7793 
        1.36674         67.5631         16.3408 
         1.3824         66.3577         15.9185 
        1.39811         65.2422         15.5098 
        1.41389         64.2244         15.1141 
        1.42964         63.6678         14.7329 
        1.44531         62.5599         14.3669 
        1.46101         61.9688         14.0127 
        1.47667         61.0982         13.6715 
        1.49229          60.291         13.3428 
        1.50793         59.5045         13.0245 
        1.52367         58.9209         12.7147 
        1.53953         57.8887          12.413 
        1.55526         57.2387         12.1235 
        1.57092         56.6289         11.8446 
        1.58662         55.7794         11.5738 
        1.60235         55.0949         11.3111 
        1.61809         54.2555         11.0564 
        1.63369         53.5694          10.812 
        1.64941         52.9904         10.5732 
        1.66519         52.0283         10.3408 
        1.68085         51.7139         10.1171 
        1.69652         50.5189         9.90007 
        1.71228         50.4888         9.68818 
        1.72806          49.456         9.48239 
        1.74368         48.9916         9.28468 
        1.75933         48.5077         9.09226 
        1.77505         48.1414         8.90443 
        1.79081         47.3212         8.72163 
         1.8065         46.5912         8.54477 
        1.82218         45.7326         8.37302 
        1.83797         45.3981         8.20484 
        1.85367         44.9063         8.04225 
        1.86928         44.7573         7.88508 
        1.88497         43.6816         7.73128 
        1.90073         43.2479         7.58105 
        1.91647         42.9869         7.43497 
        1.93218         42.8703         7.29309 
        1.94787         42.0873         7.15514 
        1.96363         41.2613         7.02024 
        1.97935         41.0115         6.88912 
        1.99499         40.5339         6.76212 
        2.01064         40.0303         6.63815 
         2.0264         39.6172         6.51654 
        2.04216         39.1762         6.39806 
        2.05781         38.6215          6.2833 
        2.07353         38.2143         6.17096 
        2.08928         38.0023         6.06114 
        2.10499         37.5931         5.95431 
        2.12065          37.086         5.85039 
        2.13633         36.7488         5.74888 
        2.15211         36.0908         5.64914 
        2.16785         35.6829         5.55206 
        2.18349         35.3053         5.45789 
        2.19916         34.9589         5.36572 
        2.21489         34.5982         5.27539 
        2.23063         34.3748         5.18709 
         2.2463         34.0066         5.10122 
        2.26194         33.4222         5.01752 
        2.27765         33.0882         4.93529 
        2.29341         32.8187          4.8547 
        2.30914         32.4377         4.77608 
        2.32486         31.9742         4.69927 
        2.34061         31.7885         4.62402 
        2.35635         31.4156          4.5505 
        2.37203         31.1388         4.47885 
        2.38768         30.8874         4.40889 
        2.40339         30.6167         4.34019 
        2.41914         30.1943          4.2728 
        2.43483         30.0235         4.20709 
         2.4505         29.5165         4.14288 
        2.46622         29.2056          4.0798 
        2.48195         28.9047         4.01804 
        2.49759         28.4941         3.95789 
        2.51328         28.3751         3.89883 
        2.52906         28.1142          3.8406 
        2.54479         27.7618         3.78379 
        2.56049         27.6217         3.72825 
        2.57618         27.2732         3.67387 
        2.59189         26.8301         3.62051 
        2.60758         26.7619          3.5683 
        2.62325         26.3181         3.51718 
        2.63898         26.1965          3.4669 
        2.65468          25.885         3.41771 
        2.67044         25.5964         3.36927 
        2.68618         25.2725         3.32188 
        2.70184         25.0215         3.27561 
        2.71755         24.8919          3.2301 
        2.73329         24.4893          3.1854 
        2.74897         24.3649         3.14169 
        2.76462         24.1406          3.0989 
        2.78034         23.7735         3.05674 
        2.79607         23.5805         3.01532 
        2.81179         23.3792         2.97473 
        2.82749         23.1805         2.93493 
        2.84321         22.9801         2.89581 
        2.85893         22.6287         2.85743 
        2.87462         22.4851         2.81981 
        2.89033         22.3022         2.78284 
        2.90605         21.9774         2.74651 
        2.92176         21.7243         2.71084 
        2.93747         21.5808         2.67584 
        2.95318         21.4617         2.64144 
        2.96891         21.1508         2.60764 
        2.98456         21.0062         2.57458 
        3.00023         20.6948         2.54205 
        3.01596         20.5086         2.50999 
        3.03164         20.2936         2.47857 
        3.04738         20.1433          2.4476 
         3.0631         19.9596         2.41718 
        3.07883         19.7357         2.38727 
        3.09456         19.5428         2.35788 
        3.11026          19.351         2.32903 
        3.12596         19.1224         2.30067 
        3.14163         18.9636         2.27285 
        3.15734         18.7867         2.24543 
        3.17308         18.6747         2.21839 
        3.18879         18.4016         2.19188 
        3.20447         18.2559         2.16584 
         3.2202         18.0701         2.14015 
         3.2359         17.9217         2.11492 
        3.25157         17.7769         2.09016 
        3.26729         17.5659         2.06573 
        3.28304          17.459         2.04164 
        3.29877         17.3153         2.01796 
        3.31446         17.0992         1.99472 
        3.33014         16.9507         1.97186 
        3.34585         16.8303         1.94933 
        3.36158          16.645         1.92713 
        3.37727         16.4375         1.90533 
        3.39294         16.3502          1.8839 
        3.40867         16.1868         1.86272 
        3.42439         16.0109         1.84188 
        3.44008         15.8718          1.8214 
        3.45578         15.7073         1.80122 
        3.47153         15.5873         1.78131 
        3.48724         15.4262         1.76173 
        3.50292          15.336         1.74249 
        3.51859         15.1616         1.72355 
        3.53431         15.0299         1.70483 
        3.55007         14.8625         1.68635 
        3.56577          14.783         1.66821 
        3.58146         14.6299         1.65036 
        3.59719         14.4854         1.63272 
        3.61292         14.3657         1.61535 
        3.62859          14.207          1.5983 
        3.64429         14.0875         1.58146 
        3.66003         13.9607         1.56482 
        3.67578         13.8599         1.54842 
        3.69146         13.7817         1.53232 
        3.70712         13.5909         1.51648 
        3.72284         13.4845         1.50081 
        3.73853          13.376         1.48538 
        3.75422         13.2318         1.47017 
        3.76993         13.1079         1.45516 
        3.78564         13.0235         1.44037 
        3.80137         12.8913         1.42576 
        3.81707         12.7635         1.41138 
        3.83279          12.692         1.39719 
        3.84853          12.524         1.38317 
        3.86424         12.4511         1.36938 
        3.87992         12.3268         1.35579 
        3.89561         12.2433         1.34239 
        3.91134         12.1434         1.32915 
        3.92704         12.0311          1.3161 
        3.94273         11.9334         1.30323 
        3.95845         11.8249         1.29052 
        3.97418         11.6915         1.27798 
        3.98988         11.6121         1.26561 
        4.00554         11.5222         1.25345 
        4.02125         11.4068         1.24142 
        4.03698         11.3355         1.22952 
        4.05268         11.2158         1.21781 
        4.06839          11.092         1.20624 
         4.0841         11.0318         1.19483 
        4.09983         10.9338         1.18355 
        4.11555         10.8489         1.17242 
        4.13124         10.7283         1.16146 
        4.14693         10.6358         1.15064 
        4.16266         10.5726         1.13993 
        4.17839         10.4768         1.12936 
        4.19408         10.3929         1.11895 
        4.20977         10.2853         1.10867 
        4.22551         10.2148         1.09849 
        4.24123         10.1408         1.08846 
        4.25691         10.0298         1.07857 
        4.27259         9.95346         1.06881 
        4.28831         9.86327         1.05915 
        4.30404          9.8193          1.0496 
        4.31974          9.7086         1.04019 
        4.33543         9.62492          1.0309 
        4.35116         9.55275          1.0217 
        4.36688         9.46914         1.01262 
        4.38255          9.3963         1.00368 
        4.39825         9.29422        0.994831 
        4.41398         9.23499        0.986072 
         4.4297         9.16492        0.977429 
        4.44541         9.07891        0.968891 
        4.46111         8.99581        0.960463 
        4.47683         8.93099        0.952129 
        4.49251         8.86966        0.943911 
        4.50819         8.80755        0.935793 
         4.5239         8.74022         0.92776 
        4.53962         8.63741        0.919811 
        4.55535         8.58078        0.911952 
        4.57106         8.49897        0.904196 
        4.58678         8.45024         0.89653 
         4.6025         8.36792        0.888951 
        4.61821         8.30642        0.881461 
        4.63391         8.24264        0.874068 
         4.6496         8.18008        0.866763 
        4.66532         8.11314        0.859531 
        4.68103         8.02837        0.852384 
        4.69673         7.98536        0.845326 
        4.71241         7.89462        0.838356 
        4.72811         7.84576        0.831453 
        4.74384         7.80168        0.824619 
        4.75955         7.73481        0.817873 
        4.77525         7.67151        0.811207 
        4.79096         7.60469        0.804607 
        4.80669          7.5513        0.798078 
         4.8224         7.48407        0.791629 
        4.83809         7.44153        0.785258 
        4.85379         7.38344        0.778954 
         4.8695         7.34354        0.772714 
        4.88521         7.26781        0.766546 
        4.90093         7.19865        0.760445 
        4.91663         7.16493        0.754415 
        4.93234         7.10103        0.748445 
        4.94807          7.0503        0.742536 
        4.96377         6.99215        0.736703 
        4.97943         6.92722        0.730944 
        4.99514         6.88042        0.725232 
        5.01086         6.83766        0.719578 
        5.02654         6.77379        0.713998 
        5.04227          6.7197        0.708462 
          5.058         6.66252        0.702981 
        5.07371          6.6361         0.69757 
        5.08942         6.59303        0.692216 
        5.10513         6.54012        0.686917 
        5.12084          6.4718        0.681671 
        5.13656         6.42671        0.676482 
        5.15225         6.38355        0.671355 
        5.16796         6.35062        0.666274 
        5.18369         6.29283        0.661241 
         5.1994         6.24901         0.65627 
        5.21509         6.19265        0.651354 
        5.23079         6.16975        0.646483 
        5.24649          6.1051        0.641666 
        5.26217         6.08121        0.636901 
        5.27788         6.01183        0.632179 
        5.29359          5.9918        0.627503 
        5.30933         5.92505        0.622869 
        5.32504          5.8906        0.618289 
        5.34073         5.84915        0.613761 
        5.35646         5.81205        0.609269 
        5.37218         5.76837        0.604821 
        5.38789         5.71712        0.600425 
        5.40357         5.67995        0.596078 
        5.41929         5.64032        0.591765 
        5.43502         5.60123        0.587494 
         5.4507         5.56171        0.583276 
        5.46639         5.51126        0.579099 
        5.48212         5.49027        0.574953 
        5.49786         5.44695        0.570843 
        5.51353         5.40884        0.566793 
        5.52921         5.37033        0.562779 
        5.54495         5.32589        0.558793 
        5.56066         5.28391        0.554849 
        5.57637         5.26335        0.550944 
        5.59207         5.21749        0.547081 
        5.60778         5.18807        0.543253 
        5.62346         5.15743        0.539467 
        5.63916          5.1153        0.535715 
        5.65487         5.07294        0.531995 
         5.6706          5.0454        0.528308 
        5.68633         5.01701        0.524653 
        5.70203         4.97287        0.521042 
        5.71773         4.94159        0.517465 
        5.73344         4.89857        0.513919 
        5.74916         4.88148        0.510404 
        5.76486         4.85384        0.506927 
        5.78054         4.80304        0.503488 
        5.79626         4.76848        0.500071 
          5.812         4.74704        0.496682 
         5.8277         4.71561        0.493335 
        5.84339         4.68467        0.490019 
        5.85911         4.64833        0.486727 
        5.87484         4.61219        0.483466 
        5.89053         4.57967        0.480242 
        5.90623         4.55285        0.477046 
        5.92195         4.53081        0.473873 
        5.93767         4.48684        0.470731 
        5.95336         4.47168        0.467623 
        5.96905         4.43425        0.464545 
        5.98476         4.41228        0.461489 
        6.00048         4.37688        0.458461 
        6.01617         4.34501        0.455464 
        6.03185         4.32221        0.452497 
        6.04756         4.29091         0.44955 
        6.06331         4.27062        0.446623 
        6.07903         4.23483        0.443728 
        6.09473         4.20728        0.440862 
        6.11044         4.17465        0.438018 
        6.12616         4.15978          0.4352 
        6.14186         4.13149         0.43241 
        6.15755          4.1043        0.429645 
        6.17326         4.07835        0.426902 
        6.18898         4.04622        0.424182 
        6.20467         4.01697         0.42149 
        6.22036         3.99575        0.418822 
         6.2361         3.97721         0.41617 
         6.2518         3.95112        0.413545 
        6.26748         3.92696        0.410949 
        6.28319         3.89962        0.408368 
        6.29893         3.87836        0.405807 
        6.31463         3.85367        0.403273 
        6.33033         3.82718        0.400761 
        6.34604         3.80864        0.398269 
        6.36177         3.78199        0.395796 
        6.37747         3.76546        0.393348 
