# k  (h/Mpc)    Pcb(k)  (Mpc/h)^3    Pcb_linear(k) (Mpc/h)^3   ShotnoiseSubtracted = true
      0.0200456         21451.2         22020.4 
      0.0350414         16225.9         17094.2 
      0.0492313         12782.6         13184.4 
      0.0637834         11265.5         11197.5 
      0.0800726         8844.63         8830.28 
       0.096163         6270.29         6600.65 
       0.111083         5209.09         5517.27 
       0.126058         4813.57         4897.56 
       0.142273         4101.89         4041.53 
       0.158546         3664.73         3263.54 
        0.17375         2993.15          2871.2 
       0.188953         2929.34         2592.79 
       0.204907         2740.58          2235.9 
       0.220756         2398.29          1915.7 
        0.23588         2155.03         1722.63 
         0.2514         1888.84         1569.46 
       0.267535         1897.64         1394.45 
       0.283568         1723.86         1236.02 
       0.299022         1635.08         1125.46 
       0.314451         1559.91         1034.43 
       0.330372         1431.63         939.823 
       0.346141          1389.8         853.934 
       0.361624         1334.39         786.034 
       0.377134         1243.16         727.788 
       0.392932            1198         671.222 
       0.408854         1175.38         618.682 
       0.424564         1086.61         574.241 
       0.440253         1064.27         535.167 
       0.455999         1039.61         498.629 
       0.471626         997.523          465.22 
        0.48727          960.35         435.331 
       0.502856         927.694         408.549 
       0.518488          921.14         383.728 
       0.534347         864.777         360.439 
       0.550082         846.573         339.374 
       0.565732         838.453         320.227 
       0.581496         797.421           302.4 
       0.597222         778.491         285.908 
       0.612804         765.021         270.804 
       0.628434         744.295          256.81 
       0.644267         722.455         243.655 
       0.660051         702.571         231.458 
       0.675724         696.033         220.174 
       0.691403         672.333          209.64 
       0.707174         651.553         199.743 
       0.722871         639.623          190.53 
        0.73838         625.948         182.003 
       0.754018         615.246         173.938 
       0.769845         601.832         166.278 
        0.78569         590.661         159.076 
       0.801365         574.141         152.377 
       0.817031         560.527         146.072 
       0.832809         553.831         140.088 
       0.848511         540.678          134.47 
       0.864097         523.425         129.201 
       0.879701         515.491         124.213 
       0.895507         514.135         119.432 
       0.911279         498.872         114.916 
        0.92691         491.873         110.673 
       0.942635         476.924         106.623 
       0.958396         463.658         102.769 
       0.974128         457.584         99.1145 
       0.989692          452.87         95.6758 
        1.00528         438.476         92.3969 
        1.02113         436.774         89.2218 
        1.03692         423.617         86.2092 
        1.05264         418.518         83.3511 
        1.06832         407.536         80.6284 
        1.08405         403.318         78.0213 
        1.09979         395.824         75.5291 
        1.11537         386.786         73.1717 
        1.13105         381.073         70.9018 
        1.14679         371.533         68.7204 
        1.16256         360.578         66.6275 
        1.17828          361.47         64.6295 
        1.19395         352.201         62.7209 
         1.2097         344.423         60.8806 
        1.22537          337.23         59.1236 
          1.241         332.424          57.442 
        1.25666         327.187         55.8223 
        1.27241         321.136          54.258 
        1.28819         314.842         52.7515 
        1.30392         308.614         51.3072 
        1.31957         304.887          49.924 
        1.33529         300.481         48.5871 
        1.35108         293.745         47.2943 
        1.36674         287.278         46.0583 
         1.3824         284.605         44.8679 
        1.39811         278.967         43.7161 
        1.41389         275.581         42.6007 
        1.42964         271.871         41.5264 
        1.44531           267.3         40.4947 
        1.46101         260.752         39.4962 
        1.47667         257.839         38.5347 
        1.49229         253.809          37.608 
        1.50793         247.215          36.711 
        1.52367         245.519         35.8378 
        1.53953          240.74         34.9873 
        1.55526         236.019         34.1715 
        1.57092         234.327         33.3852 
        1.58662         230.693         32.6221 
        1.60235         225.931         31.8815 
        1.61809         222.409         31.1637 
        1.63369         219.807         30.4746 
        1.64941           215.6         29.8016 
        1.66519         212.474         29.1467 
        1.68085         210.356         28.5162 
        1.69652         205.754         27.9044 
        1.71228         200.957         27.3072 
        1.72806         198.252         26.7271 
        1.74368         195.485         26.1699 
        1.75933         192.162         25.6275 
        1.77505         190.509         25.0981 
        1.79081         187.466         24.5828 
         1.8065         183.706         24.0843 
        1.82218         181.427         23.6002 
        1.83797         180.307         23.1262 
        1.85367          176.24         22.6679 
        1.86928         173.078         22.2249 
        1.88497         170.667         21.7914 
        1.90073         168.429          21.368 
        1.91647         166.232         20.9563 
        1.93218         163.275         20.5563 
        1.94787         159.877         20.1675 
        1.96363         157.722         19.7873 
        1.97935         156.503         19.4177 
        1.99499         153.801         19.0597 
        2.01064         151.597         18.7103 
         2.0264         150.258         18.3676 
        2.04216         147.743         18.0336 
        2.05781         145.022         17.7101 
        2.07353         142.843         17.3935 
        2.08928         140.935          17.084 
        2.10499          139.15         16.7828 
        2.12065         136.984         16.4899 
        2.13633         135.142         16.2038 
        2.15211         132.818         15.9227 
        2.16785         131.578         15.6491 
        2.18349         129.556         15.3836 
        2.19916          127.92         15.1238 
        2.21489         126.438         14.8692 
        2.23063         124.521         14.6204 
         2.2463         121.918         14.3783 
        2.26194         120.502         14.1424 
        2.27765         119.214         13.9106 
        2.29341         117.994         13.6835 
        2.30914         116.223         13.4619 
        2.32486         114.563         13.2454 
        2.34061         112.798         13.0333 
        2.35635         111.293         12.8261 
        2.37203         110.176         12.6241 
        2.38768         108.603         12.4269 
        2.40339         106.983         12.2333 
        2.41914         105.534         12.0433 
        2.43483         104.536         11.8581 
         2.4505         103.136         11.6772 
        2.46622         101.626         11.4994 
        2.48195         99.9784         11.3253 
        2.49759         98.6948         11.1557 
        2.51328         97.8617         10.9893 
        2.52906         96.4097         10.8251 
        2.54479         95.0272          10.665 
        2.56049         93.8591         10.5085 
        2.57618          92.634         10.3552 
        2.59189         92.0516         10.2048 
        2.60758         90.5421         10.0576 
        2.62325         89.2195         9.91355 
        2.63898         88.0129         9.77182 
        2.65468         86.9304         9.63317 
        2.67044          85.944         9.49664 
        2.68618         84.8802         9.36308 
        2.70184         84.1821         9.23264 
        2.71755         82.8143         9.10438 
        2.73329          81.553         8.97838 
        2.74897         81.0007         8.85518 
        2.76462         79.7527         8.73458 
        2.78034         78.9357         8.61574 
        2.79607         78.0044         8.49901 
        2.81179         77.2008         8.38458 
        2.82749          76.136          8.2724 
        2.84321          75.151         8.16216 
        2.85893          74.132         8.05398 
        2.87462           73.26         7.94795 
        2.89033         72.6008         7.84374 
        2.90605          71.766         7.74133 
        2.92176         70.7366          7.6408 
        2.93747         70.0795         7.54213 
        2.95318         69.3013         7.44518 
        2.96891         68.6064         7.34991 
        2.98456         67.5628         7.25673 
        3.00023          66.753         7.16505 
        3.01596         65.8523         7.07467 
        3.03164         65.3486         6.98612 
        3.04738         64.3794         6.89883 
         3.0631         63.6742         6.81307 
        3.07883         63.0478         6.72878 
        3.09456          62.608         6.64593 
        3.11026         61.6707         6.56462 
        3.12596         61.0959         6.48468 
        3.14163         60.2551         6.40626 
        3.15734         59.6857         6.32897 
        3.17308         58.9391         6.25277 
        3.18879         58.2718         6.17805 
        3.20447         57.7982         6.10465 
         3.2202         56.9761         6.03224 
         3.2359         56.2191         5.96113 
        3.25157         55.6791         5.89134 
        3.26729         55.1926         5.82247 
        3.28304         54.6483         5.75457 
        3.29877         53.9522         5.68784 
        3.31446         53.3179         5.62233 
        3.33014         52.6928         5.55791 
        3.34585         52.1354         5.49441 
        3.36158         51.5762         5.43181 
        3.37727         51.2342         5.37038 
        3.39294         50.5545         5.30997 
        3.40867         50.0502         5.25028 
        3.42439         49.4245         5.19154 
        3.44008         49.0109         5.13382 
        3.45578         48.2807         5.07694 
        3.47153         47.9122          5.0208 
        3.48724          47.534         4.96561 
        3.50292         47.0548         4.91138 
        3.51859         46.5025           4.858 
        3.53431         46.0024         4.80525 
        3.55007         45.6214         4.75315 
        3.56577         45.1342         4.70204 
        3.58146         44.5149          4.6517 
        3.59719         44.1862         4.60199 
        3.61292         43.6165         4.55303 
        3.62859         43.1879         4.50497 
        3.64429         42.8274         4.45751 
        3.66003         42.4818          4.4106 
        3.67578         42.1021         4.36438 
        3.69146         41.5754           4.319 
        3.70712         41.0887         4.27436 
        3.72284         40.7772         4.23018 
        3.73853         40.4298         4.18671 
        3.75422         39.9237         4.14383 
        3.76993         39.4586         4.10152 
        3.78564           39.11         4.05982 
        3.80137         38.7455         4.01864 
        3.81707         38.3748         3.97812 
        3.83279         37.9645         3.93813 
        3.84853         37.7645         3.89862 
        3.86424         37.3735         3.85974 
        3.87992         36.8712         3.82145 
        3.89561         36.5964         3.78368 
        3.91134         36.2274         3.74634 
        3.92704         35.9992         3.70955 
        3.94273         35.4678          3.6733 
        3.95845         35.1431         3.63747 
        3.97418         34.9399         3.60211 
        3.98988         34.5724         3.56727 
        4.00554         34.2323         3.53299 
        4.02125         33.8832         3.49906 
        4.03698         33.5592         3.46553 
        4.05268          33.164         3.43252 
        4.06839         32.9239         3.39991 
         4.0841         32.6807         3.36774 
        4.09983         32.4031         3.33595 
        4.11555         32.0391         3.30458 
        4.13124         31.7246          3.2737 
        4.14693         31.5398         3.24319 
        4.16266         31.2052           3.213 
        4.17839         30.9401         3.18322 
        4.19408         30.5664         3.15388 
        4.20977         30.3143          3.1249 
        4.22551         29.9817         3.09622 
        4.24123         29.7373         3.06793 
        4.25691         29.4928         3.04007 
        4.27259         29.1905         3.01255 
        4.28831         28.9497         2.98532 
        4.30404         28.7548          2.9584 
        4.31974          28.442         2.93188 
        4.33543         28.1152         2.90569 
        4.35116         27.9569         2.87976 
        4.36688          27.804         2.85417 
        4.38255         27.4535         2.82898 
        4.39825         27.2087         2.80404 
        4.41398         26.9652         2.77935 
         4.4297         26.7104         2.75499 
        4.44541         26.5724         2.73092 
        4.46111         26.2832         2.70717 
        4.47683         25.9953         2.68368 
        4.49251         25.7955         2.66051 
        4.50819         25.5361         2.63763 
         4.5239         25.3826         2.61499 
        4.53962         25.1342         2.59258 
        4.55535         24.9333         2.57043 
        4.57106         24.6868         2.54857 
        4.58678         24.5024         2.52696 
         4.6025          24.231          2.5056 
        4.61821         24.0684         2.48449 
        4.63391         23.8438         2.46365 
         4.6496          23.607         2.44306 
        4.66532          23.463         2.42268 
        4.68103         23.3434         2.40254 
        4.69673         23.0223         2.38264 
        4.71241         22.8917           2.363 
        4.72811         22.6307         2.34354 
        4.74384         22.4799         2.32428 
        4.75955          22.253         2.30526 
        4.77525         22.1078         2.28647 
        4.79096         21.9801         2.26787 
        4.80669         21.6799         2.24947 
         4.8224         21.5618         2.23129 
        4.83809         21.3896         2.21333 
        4.85379         21.1788         2.19556 
         4.8695          20.988         2.17798 
        4.88521         20.8136         2.16059 
        4.90093         20.6839         2.14339 
        4.91663         20.4963          2.1264 
        4.93234         20.3347         2.10957 
        4.94807         20.1834         2.09292 
        4.96377         20.0044         2.07647 
        4.97943         19.8351         2.06024 
        4.99514         19.6862         2.04414 
        5.01086         19.4748         2.02821 
        5.02654         19.3561         2.01248 
        5.04227         19.2197         1.99687 
          5.058         19.0908         1.98143 
        5.07371         18.8891         1.96618 
        5.08942         18.7067         1.95108 
        5.10513         18.5984         1.93615 
        5.12084         18.4319         1.92136 
        5.13656         18.3143         1.90674 
        5.15225          18.177         1.89229 
        5.16796         18.0241         1.87796 
        5.18369         17.8499         1.86378 
         5.1994         17.7179         1.84977 
        5.21509         17.6087         1.83591 
        5.23079         17.4391         1.82218 
        5.24649         17.2868          1.8086 
        5.26217         17.1252         1.79517 
        5.27788         17.0588         1.78186 
        5.29359         16.9417         1.76868 
        5.30933         16.8153         1.75562 
        5.32504          16.654         1.74271 
        5.34073         16.5179         1.72995 
        5.35646         16.4379         1.71729 
        5.37218         16.2506         1.70475 
        5.38789         16.1241         1.69236 
        5.40357         16.0019         1.68011 
        5.41929         15.8934         1.66795 
        5.43502         15.7826         1.65591 
         5.4507         15.6405         1.64402 
        5.46639         15.5411         1.63225 
        5.48212         15.4167         1.62057 
        5.49786         15.3328         1.60898 
        5.51353         15.1578         1.59757 
        5.52921         15.0504         1.58625 
        5.54495         14.9505         1.57502 
        5.56066         14.8239          1.5639 
        5.57637          14.706          1.5529 
        5.59207          14.598         1.54201 
        5.60778         14.4912         1.53122 
        5.62346         14.3881         1.52055 
        5.63916         14.3164         1.50997 
        5.65487         14.1731         1.49949 
         5.6706         14.0958         1.48909 
        5.68633          13.977         1.47879 
        5.70203         13.8558         1.46861 
        5.71773         13.7751         1.45853 
        5.73344          13.672         1.44854 
        5.74916         13.5643         1.43863 
        5.76486         13.4486         1.42883 
        5.78054         13.3661         1.41913 
        5.79626         13.2664          1.4095 
          5.812         13.1781         1.39995 
         5.8277         13.1096         1.39052 
        5.84339         12.9994         1.38117 
        5.85911         12.9048         1.37189 
        5.87484         12.8012          1.3627 
        5.89053         12.7124         1.35361 
        5.90623         12.6314          1.3446 
        5.92195         12.5372         1.33566 
        5.93767         12.4376         1.32681 
        5.95336         12.3698         1.31805 
        5.96905         12.2701         1.30937 
        5.98476         12.1853         1.30076 
        6.00048         12.1052         1.29222 
        6.01617         12.0262         1.28377 
        6.03185         11.9272         1.27541 
        6.04756         11.8378          1.2671 
        6.06331         11.7621         1.25885 
        6.07903          11.675         1.25069 
        6.09473         11.5843         1.24262 
        6.11044         11.4985          1.2346 
        6.12616          11.427         1.22666 
        6.14186         11.3418         1.21879 
        6.15755         11.2717           1.211 
        6.17326         11.1906         1.20327 
        6.18898         11.1279          1.1956 
        6.20467         11.0516         1.18801 
        6.22036         10.9564         1.18049 
         6.2361         10.8934         1.17302 
         6.2518         10.7933         1.16562 
        6.26748         10.7335          1.1583 
        6.28319         10.6699         1.15103 
        6.29893         10.5815         1.14381 
        6.31463         10.4985         1.13667 
        6.33033         10.4558         1.12959 
        6.34604         10.3554         1.12256 
        6.36177         10.2959         1.11559 
        6.37747         10.2274         1.10869 
