# k  (h/Mpc)    Pcb(k)  (Mpc/h)^3    Pcb_linear(k) (Mpc/h)^3   ShotnoiseSubtracted = true
      0.0200456         196.641          199.31 
      0.0350414         155.648         154.722 
      0.0492313         119.661         119.334 
      0.0637834         100.792          101.35 
      0.0800726         79.5541          79.924 
       0.096163         60.3029         59.7434 
       0.111083         50.4154         49.9375 
       0.126058         44.1037         44.3285 
       0.142273         36.4582         36.5804 
       0.158546         29.6466         29.5387 
        0.17375          26.135         25.9876 
       0.188953         23.4488         23.4676 
       0.204907         20.0212         20.2374 
       0.220756         17.3689         17.3392 
        0.23588         15.5847         15.5918 
         0.2514         14.1971         14.2054 
       0.267535         12.6649         12.6214 
       0.283568         11.2201         11.1874 
       0.299022         10.2138         10.1867 
       0.314451         9.47465          9.3628 
       0.330372         8.55973         8.50646 
       0.346141         7.78392         7.72907 
       0.361624         7.14419          7.1145 
       0.377134          6.5941          6.5873 
       0.392932         6.19868         6.07531 
       0.408854         5.62894         5.59977 
       0.424564         5.29266         5.19753 
       0.440253         4.89574         4.84387 
       0.455999         4.52585         4.51315 
       0.471626         4.22513         4.21076 
        0.48727         4.00785         3.94023 
       0.502856         3.76398         3.69783 
       0.518488         3.49002         3.47317 
       0.534347         3.26596         3.26238 
       0.550082         3.11525         3.07172 
       0.565732         2.96665         2.89842 
       0.581496         2.78087         2.73706 
       0.597222         2.62676         2.58779 
       0.612804         2.48479         2.45108 
       0.628434         2.35927         2.32442 
       0.644267          2.2504         2.20535 
       0.660051         2.13908         2.09496 
       0.675724         2.02113         1.99282 
       0.691403         1.92777         1.89748 
       0.707174         1.83759          1.8079 
       0.722871         1.78285         1.72451 
        0.73838         1.67269         1.64733 
       0.754018         1.59893         1.57433 
       0.769845         1.51747           1.505 
        0.78569         1.46824         1.43982 
       0.801365         1.40953         1.37918 
       0.817031         1.35508         1.32212 
       0.832809         1.29006         1.26796 
       0.848511         1.24346          1.2171 
       0.864097         1.20072         1.16942 
       0.879701         1.16045         1.12427 
       0.895507         1.10228           1.081 
       0.911279         1.06964         1.04012 
        0.92691         1.03777         1.00171 
       0.942635        0.987104        0.965055 
       0.958396        0.955181        0.930174 
       0.974128        0.922878        0.897098 
       0.989692        0.891172        0.865974 
        1.00528        0.856195        0.836296 
        1.02113        0.836229        0.807558 
        1.03692        0.809341        0.780291 
        1.05264        0.776055        0.754421 
        1.06832         0.75363        0.729777 
        1.08405        0.726022         0.70618 
        1.09979        0.706567        0.683624 
        1.11537        0.680614        0.662286 
        1.13105        0.656578        0.641741 
        1.14679        0.641213        0.621997 
        1.16256        0.623677        0.603054 
        1.17828        0.606359        0.584969 
        1.19395        0.588408        0.567695 
         1.2097        0.569413        0.551038 
        1.22537        0.551006        0.535135 
          1.241        0.536814        0.519915 
        1.25666        0.525125        0.505254 
        1.27241        0.508081        0.491096 
        1.28819        0.493068        0.477461 
        1.30392        0.481837        0.464388 
        1.31957        0.467749        0.451868 
        1.33529        0.456319        0.439768 
        1.35108        0.442613        0.428067 
        1.36674        0.431582        0.416879 
         1.3824        0.421866        0.406105 
        1.39811         0.40883         0.39568 
        1.41389        0.401184        0.385584 
        1.42964        0.390241         0.37586 
        1.44531        0.379731        0.366523 
        1.46101        0.369046        0.357485 
        1.47667        0.361569        0.348782 
        1.49229        0.352173        0.340395 
        1.50793        0.344845        0.332276 
        1.52367        0.335358        0.324372 
        1.53953        0.327228        0.316674 
        1.55526        0.320088         0.30929 
        1.57092        0.315296        0.302174 
        1.58662        0.307267        0.295267 
        1.60235          0.2999        0.288564 
        1.61809        0.292289        0.282067 
        1.63369        0.285558         0.27583 
        1.64941         0.28018        0.269738 
        1.66519        0.274478         0.26381 
        1.68085        0.267194        0.258104 
        1.69652        0.262273        0.252566 
        1.71228        0.256002        0.247161 
        1.72806        0.251487         0.24191 
        1.74368        0.245671        0.236867 
        1.75933        0.241314        0.231958 
        1.77505        0.236719        0.227166 
        1.79081        0.230578        0.222502 
         1.8065        0.226855         0.21799 
        1.82218           0.221        0.213609 
        1.83797        0.216508        0.209318 
        1.85367        0.212529         0.20517 
        1.86928        0.207625        0.201161 
        1.88497        0.203779        0.197237 
        1.90073        0.199621        0.193404 
        1.91647        0.197108        0.189678 
        1.93218        0.194107        0.186058 
        1.94787        0.188534        0.182539 
        1.96363        0.185388        0.179097 
        1.97935         0.18193        0.175752 
        1.99499        0.178305        0.172512 
        2.01064        0.175313         0.16935 
         2.0264        0.172347        0.166247 
        2.04216        0.168717        0.163225 
        2.05781        0.165435        0.160297 
        2.07353        0.163019        0.157431 
        2.08928        0.160405        0.154629 
        2.10499        0.156845        0.151904 
        2.12065        0.154391        0.149253 
        2.13633        0.151841        0.146663 
        2.15211         0.14938        0.144118 
        2.16785        0.146006        0.141642 
        2.18349        0.143953        0.139239 
        2.19916         0.14098        0.136888 
        2.21489        0.138591        0.134583 
        2.23063        0.136516        0.132331 
         2.2463        0.134407         0.13014 
        2.26194        0.132337        0.128005 
        2.27765        0.130034        0.125907 
        2.29341        0.127363        0.123851 
        2.30914        0.125381        0.121845 
        2.32486        0.123246        0.119886 
        2.34061        0.121278        0.117966 
        2.35635        0.119315         0.11609 
        2.37203        0.118677        0.114262 
        2.38768        0.116032        0.112478 
        2.40339        0.114187        0.110725 
        2.41914        0.112006        0.109006 
        2.43483        0.110738        0.107329 
         2.4505        0.108675        0.105691 
        2.46622        0.107072        0.104082 
        2.48195        0.105552        0.102506 
        2.49759        0.104004        0.100972 
        2.51328        0.101602       0.0994652 
        2.52906        0.100665       0.0979798 
        2.54479         0.09918       0.0965304 
        2.56049       0.0974607       0.0951134 
        2.57618       0.0965124       0.0937263 
        2.59189       0.0944481       0.0923649 
        2.60758       0.0936367       0.0910328 
        2.62325       0.0917451       0.0897288 
        2.63898       0.0908524        0.088446 
        2.65468       0.0891156        0.087191 
        2.67044        0.087969       0.0859553 
        2.68618       0.0866882       0.0847464 
        2.70184       0.0857949       0.0835658 
        2.71755       0.0844045       0.0824049 
        2.73329        0.083221       0.0812644 
        2.74897       0.0821365       0.0801493 
        2.76462       0.0806284       0.0790578 
        2.78034       0.0797516       0.0779822 
        2.79607       0.0788037       0.0769256 
        2.81179       0.0775393       0.0758899 
        2.82749       0.0767029       0.0748745 
        2.84321        0.075352       0.0738767 
        2.85893       0.0742592       0.0728976 
        2.87462       0.0735493       0.0719379 
        2.89033       0.0724222       0.0709947 
        2.90605       0.0715359       0.0700677 
        2.92176       0.0708085       0.0691579 
        2.93747       0.0695264       0.0682647 
        2.95318       0.0689604       0.0673873 
        2.96891       0.0678613       0.0665249 
        2.98456       0.0669459       0.0656816 
        3.00023       0.0664638       0.0648517 
        3.01596       0.0650503       0.0640337 
        3.03164        0.064401       0.0632322 
        3.04738       0.0636314       0.0624422 
         3.0631       0.0625075        0.061666 
        3.07883       0.0620442        0.060903 
        3.09456       0.0613613       0.0601532 
        3.11026       0.0604228       0.0594172 
        3.12596       0.0599927       0.0586936 
        3.14163       0.0589503       0.0579839 
        3.15734       0.0585127       0.0572843 
        3.17308       0.0576274       0.0565946 
        3.18879       0.0568824       0.0559183 
        3.20447       0.0561509        0.055254 
         3.2202       0.0555817       0.0545985 
         3.2359       0.0549708       0.0539549 
        3.25157       0.0543379       0.0533233 
        3.26729       0.0536547       0.0526999 
        3.28304       0.0531595       0.0520853 
        3.29877       0.0523766       0.0514814 
        3.31446        0.051725       0.0508884 
        3.33014       0.0513007       0.0503053 
        3.34585       0.0506818       0.0497306 
        3.36158       0.0501167        0.049164 
        3.37727       0.0494232        0.048608 
        3.39294       0.0489759       0.0480612 
        3.40867       0.0485253       0.0475209 
        3.42439        0.047966       0.0469893 
        3.44008       0.0475141       0.0464668 
        3.45578       0.0469513        0.045952 
        3.47153        0.046517       0.0454439 
        3.48724       0.0458846       0.0449444 
        3.50292       0.0457111       0.0444536 
        3.51859        0.045024       0.0439704 
        3.53431       0.0444747       0.0434929 
        3.55007       0.0441469       0.0430214 
        3.56577        0.043643       0.0425588 
        3.58146        0.043214       0.0421032 
        3.59719       0.0428492       0.0416532 
        3.61292       0.0422579       0.0412101 
        3.62859       0.0418622       0.0407751 
        3.64429       0.0415442       0.0403455 
        3.66003       0.0411723       0.0399209 
        3.67578       0.0408369       0.0395026 
        3.69146       0.0403927       0.0390919 
        3.70712       0.0400617       0.0386877 
        3.72284       0.0395311       0.0382879 
        3.73853       0.0393137       0.0378944 
        3.75422       0.0387974       0.0375063 
        3.76993       0.0385505       0.0371234 
        3.78564       0.0380994        0.036746 
        3.80137       0.0378073       0.0363732 
        3.81707       0.0373964       0.0360065 
        3.83279       0.0369819       0.0356445 
        3.84853       0.0366913       0.0352869 
        3.86424       0.0365179        0.034935 
        3.87992       0.0362257       0.0345884 
        3.89561         0.03574       0.0342465 
        3.91134       0.0355071       0.0339086 
        3.92704       0.0351106       0.0335756 
        3.94273       0.0348384       0.0332475 
        3.95845        0.034563       0.0329232 
        3.97418       0.0342174       0.0326031 
        3.98988       0.0337951       0.0322878 
        4.00554       0.0336505       0.0319775 
        4.02125       0.0332197       0.0316705 
        4.03698       0.0328704        0.031367 
        4.05268       0.0326131       0.0310682 
        4.06839       0.0321938        0.030773 
         4.0841       0.0317034       0.0304819 
        4.09983       0.0313147       0.0301941 
        4.11555       0.0310075       0.0299102 
        4.13124       0.0306316       0.0296307 
        4.14693       0.0303498       0.0293545 
        4.16266       0.0299503       0.0290813 
        4.17839        0.029626       0.0288117 
        4.19408       0.0293151       0.0285462 
        4.20977       0.0290315       0.0282839 
        4.22551       0.0287123       0.0280243 
        4.24123       0.0284523       0.0277682 
        4.25691       0.0282298       0.0275161 
        4.27259       0.0279221        0.027267 
        4.28831        0.027716       0.0270205 
        4.30404       0.0274379       0.0267769 
        4.31974       0.0272144       0.0265368 
        4.33543       0.0269891       0.0262998 
        4.35116       0.0266856       0.0260651 
        4.36688       0.0266322       0.0258334 
        4.38255       0.0263202       0.0256054 
        4.39825       0.0262856       0.0253797 
        4.41398       0.0260906       0.0251562 
         4.4297       0.0259777       0.0249357 
        4.44541       0.0257398       0.0247179 
        4.46111       0.0255111       0.0245029 
        4.47683       0.0255179       0.0242903 
        4.49251       0.0253632       0.0240806 
        4.50819       0.0253519       0.0238735 
         4.5239       0.0251269       0.0236686 
        4.53962       0.0251291       0.0234658 
        4.55535       0.0249928       0.0232653 
        4.57106       0.0249955       0.0230675 
        4.58678       0.0248551       0.0228719 
         4.6025       0.0248488       0.0226785 
        4.61821       0.0248149       0.0224874 
        4.63391       0.0247871       0.0222988 
         4.6496       0.0246992       0.0221125 
        4.66532       0.0246763        0.021928 
        4.68103       0.0247457       0.0217457 
        4.69673       0.0246995       0.0215656 
        4.71241       0.0248177       0.0213878 
        4.72811        0.024749       0.0212117 
        4.74384       0.0247907       0.0210373 
        4.75955       0.0248145       0.0208652 
        4.77525       0.0249009       0.0206952 
        4.79096       0.0249649       0.0205268 
        4.80669       0.0251051       0.0203602 
         4.8224       0.0251454       0.0201957 
        4.83809       0.0252842       0.0200332 
        4.85379       0.0254659       0.0198723 
         4.8695       0.0255073       0.0197132 
        4.88521       0.0255879       0.0195558 
        4.90093       0.0257175       0.0194001 
        4.91663       0.0258829       0.0192463 
        4.93234       0.0260202        0.019094 
        4.94807       0.0262413       0.0189433 
        4.96377       0.0263146       0.0187944 
        4.97943       0.0267254       0.0186475 
        4.99514       0.0268129       0.0185018 
        5.01086       0.0270808       0.0183576 
        5.02654        0.027262       0.0182152 
        5.04227       0.0274477        0.018074 
          5.058       0.0277681       0.0179342 
        5.07371        0.027886       0.0177961 
        5.08942       0.0282448       0.0176595 
        5.10513       0.0285771       0.0175243 
        5.12084       0.0288591       0.0173905 
        5.13656       0.0292214       0.0172581 
        5.15225       0.0295188       0.0171273 
        5.16796         0.02989       0.0169977 
        5.18369       0.0301058       0.0168693 
         5.1994       0.0305504       0.0167425 
        5.21509       0.0309032        0.016617 
        5.23079       0.0314004       0.0164928 
        5.24649       0.0316995       0.0163699 
        5.26217       0.0321894       0.0162483 
        5.27788       0.0326166       0.0161279 
        5.29359       0.0330019       0.0160086 
        5.30933       0.0335623       0.0158904 
        5.32504       0.0340174       0.0157735 
        5.34073        0.034576        0.015658 
        5.35646       0.0350156       0.0155434 
        5.37218         0.03553       0.0154299 
        5.38789       0.0359116       0.0153178 
        5.40357       0.0368467       0.0152069 
        5.41929       0.0373687       0.0150969 
        5.43502       0.0379015       0.0149879 
         5.4507       0.0384745       0.0148803 
        5.46639       0.0391829       0.0147737 
        5.48212       0.0397678       0.0146679 
        5.49786       0.0405542       0.0145631 
        5.51353       0.0414007       0.0144598 
        5.52921       0.0417953       0.0143574 
        5.54495       0.0427569       0.0142557 
        5.56066       0.0435963       0.0141551 
        5.57637       0.0443093       0.0140555 
        5.59207       0.0450531       0.0139569 
        5.60778         0.04581       0.0138592 
        5.62346       0.0467352       0.0137627 
        5.63916       0.0475742       0.0136669 
        5.65487       0.0486589        0.013572 
         5.6706       0.0493953        0.013478 
        5.68633       0.0504698       0.0133847 
        5.70203       0.0514245       0.0132926 
        5.71773       0.0526957       0.0132013 
        5.73344       0.0533715       0.0131109 
        5.74916       0.0545634       0.0130212 
        5.76486       0.0560362       0.0129325 
        5.78054       0.0572604       0.0128448 
        5.79626       0.0579097       0.0127576 
          5.812       0.0596069       0.0126711 
         5.8277       0.0605497       0.0125857 
        5.84339       0.0619795       0.0125011 
        5.85911       0.0634224       0.0124172 
        5.87484       0.0642523        0.012334 
        5.89053       0.0662844       0.0122517 
        5.90623       0.0673063       0.0121702 
        5.92195        0.069063       0.0120892 
        5.93767       0.0707603       0.0120091 
        5.95336       0.0717004       0.0119298 
        5.96905       0.0735491       0.0118513 
        5.98476       0.0746745       0.0117733 
        6.00048       0.0770951        0.011696 
        6.01617        0.078651       0.0116196 
        6.03185       0.0801682       0.0115439 
        6.04756       0.0821962       0.0114687 
        6.06331       0.0844977        0.011394 
        6.07903       0.0860152       0.0113202 
        6.09473       0.0879383       0.0112471 
        6.11044       0.0901755       0.0111745 
        6.12616         0.09196       0.0111026 
        6.14186       0.0942973       0.0110315 
        6.15755       0.0964594       0.0109609 
        6.17326       0.0987587       0.0108909 
        6.18898        0.101465       0.0108215 
        6.20467        0.103836       0.0107529 
        6.22036        0.106297       0.0106848 
         6.2361        0.108692       0.0106171 
         6.2518        0.111649       0.0105502 
        6.26748        0.112841        0.010484 
        6.28319        0.116858       0.0104181 
        6.29893        0.118795       0.0103528 
        6.31463        0.122503       0.0102881 
        6.33033           0.125        0.010224 
        6.34604        0.128662       0.0101605 
        6.36177        0.130777       0.0100974 
        6.37747        0.133778       0.0100349 
