# k  (h/Mpc)    Pcb(k)  (Mpc/h)^3    Pcb_linear(k) (Mpc/h)^3   ShotnoiseSubtracted = true
      0.0200456         2154.34         2183.46 
      0.0350414          1717.5         1694.99 
      0.0492313         1307.16         1307.31 
      0.0637834         1092.05         1110.29 
      0.0800726         860.911         875.574 
       0.096163         665.785         654.494 
       0.111083         560.145          547.07 
       0.126058         480.685         485.622 
       0.142273         398.684         400.741 
       0.158546         328.163         323.599 
        0.17375         291.754         284.696 
       0.188953         262.503          257.09 
       0.204907         220.459         221.703 
       0.220756         195.703         189.953 
        0.23588          175.64         170.809 
         0.2514         159.614         155.621 
       0.267535         146.241         138.268 
       0.283568         128.897         122.559 
       0.299022         119.481         111.596 
       0.314451         113.355          102.57 
       0.330372         100.758          93.189 
       0.346141         92.4207         84.6726 
       0.361624         85.6894         77.9399 
       0.377134         78.6575         72.1644 
       0.392932         76.2025         66.5556 
       0.408854         69.7235         61.3459 
       0.424564         66.8323         56.9394 
       0.440253         61.1846          53.065 
       0.455999         56.1548          49.442 
       0.471626         53.2054         46.1293 
        0.48727         51.8562         43.1656 
       0.502856         48.4323           40.51 
       0.518488         45.4998         38.0489 
       0.534347         42.9379         35.7396 
       0.550082         41.3484          33.651 
       0.565732         39.8573         31.7524 
       0.581496         37.5292         29.9848 
       0.597222         35.5229         28.3495 
       0.612804         34.0171         26.8518 
       0.628434         33.3497         25.4642 
       0.644267         31.6148         24.1598 
       0.660051         30.0996         22.9505 
       0.675724         28.7593         21.8316 
       0.691403         28.2085         20.7871 
       0.707174         27.1415         19.8057 
       0.722871         26.2562         18.8922 
        0.73838          24.887         18.0467 
       0.754018         23.7372         17.2469 
       0.769845         23.1042         16.4874 
        0.78569         22.4038         15.7734 
       0.801365         21.5994         15.1091 
       0.817031         20.8989         14.4839 
       0.832809         20.2651         13.8906 
       0.848511         19.6706         13.3335 
       0.864097           19.04         12.8111 
       0.879701         18.7333         12.3165 
       0.895507         18.0505         11.8424 
       0.911279         17.3394         11.3946 
        0.92691         17.0041         10.9739 
       0.942635         16.6127         10.5723 
       0.958396         16.0316         10.1901 
       0.974128         15.6721         9.82778 
       0.989692         15.0186         9.48682 
        1.00528         14.9216          9.1617 
        1.02113         14.4332         8.84686 
        1.03692         14.1061         8.54815 
        1.05264         13.7845         8.26475 
        1.06832         13.4879         7.99478 
        1.08405         13.1512         7.73627 
        1.09979           12.84         7.48916 
        1.11537         12.5415          7.2554 
        1.13105         12.3102         7.03033 
        1.14679          12.047         6.81403 
        1.16256         11.7694          6.6065 
        1.17828         11.5484         6.40839 
        1.19395         11.3246         6.21915 
         1.2097         10.9666         6.03667 
        1.22537         10.7874         5.86246 
          1.241         10.5351         5.69572 
        1.25666         10.5004         5.53511 
        1.27241         10.2677            5.38 
        1.28819         9.87465         5.23063 
        1.30392         9.79763         5.08742 
        1.31957         9.60709         4.95025 
        1.33529         9.47404          4.8177 
        1.35108         9.26278         4.68951 
        1.36674         9.06314         4.56695 
         1.3824         8.97289         4.44892 
        1.39811         8.79575         4.33471 
        1.41389         8.59401         4.22411 
        1.42964         8.50757         4.11759 
        1.44531         8.33939         4.01529 
        1.46101           8.239         3.91628 
        1.47667         8.07088         3.82094 
        1.49229          7.8982         3.72905 
        1.50793         7.79554         3.64011 
        1.52367         7.66541         3.55352 
        1.53953          7.5151          3.4692 
        1.55526         7.48276          3.3883 
        1.57092         7.32651         3.31034 
        1.58662          7.2256         3.23467 
        1.60235         7.11431         3.16124 
        1.61809         7.02283         3.09007 
        1.63369         6.88854         3.02174 
        1.64941         6.79273         2.95501 
        1.66519         6.70357         2.89006 
        1.68085         6.59661         2.82755 
        1.69652         6.53194         2.76688 
        1.71228         6.45164         2.70767 
        1.72806         6.33223         2.65015 
        1.74368         6.28361          2.5949 
        1.75933          6.1877         2.54112 
        1.77505          6.0683         2.48862 
        1.79081         6.03991         2.43753 
         1.8065         5.96073          2.3881 
        1.82218         5.86283          2.3401 
        1.83797          5.7661          2.2931 
        1.85367         5.69455         2.24766 
        1.86928         5.66898         2.20373 
        1.88497         5.54367         2.16075 
        1.90073         5.49747         2.11876 
        1.91647         5.42697         2.07794 
        1.93218         5.36212         2.03828 
        1.94787         5.29352         1.99973 
        1.96363         5.23913         1.96203 
        1.97935         5.18355         1.92538 
        1.99499          5.1236         1.88989 
        2.01064         5.07541         1.85524 
         2.0264         4.99503         1.82125 
        2.04216         4.94738         1.78814 
        2.05781         4.88026         1.75606 
        2.07353         4.85351         1.72467 
        2.08928          4.7592         1.69398 
        2.10499         4.72174         1.66412 
        2.12065         4.72241         1.63507 
        2.13633         4.64079          1.6067 
        2.15211         4.57288         1.57883 
        2.16785          4.5244          1.5517 
        2.18349         4.49123         1.52538 
        2.19916         4.45068         1.49962 
        2.21489         4.39354         1.47437 
        2.23063         4.33808         1.44969 
         2.2463         4.29566          1.4257 
        2.26194         4.24959          1.4023 
        2.27765         4.17844         1.37932 
        2.29341         4.14912          1.3568 
        2.30914         4.10719         1.33483 
        2.32486         4.08599         1.31336 
        2.34061         4.04397         1.29233 
        2.35635         4.00647         1.27178 
        2.37203         3.97944         1.25175 
        2.38768         3.94692          1.2322 
        2.40339         3.88378           1.213 
        2.41914         3.84266         1.19417 
        2.43483         3.80742          1.1758 
         2.4505         3.78774         1.15786 
        2.46622         3.74293         1.14023 
        2.48195         3.71635         1.12297 
        2.49759         3.67565         1.10616 
        2.51328           3.643         1.08965 
        2.52906         3.61301         1.07338 
        2.54479         3.57518          1.0575 
        2.56049         3.54346         1.04198 
        2.57618         3.51571         1.02678 
        2.59189         3.50841         1.01187 
        2.60758         3.45969        0.997272 
        2.62325         3.41498        0.982987 
        2.63898         3.38418        0.968933 
        2.65468         3.35657        0.955186 
        2.67044         3.35395        0.941648 
        2.68618         3.31373        0.928405 
        2.70184          3.2831        0.915471 
        2.71755         3.24936        0.902753 
        2.73329         3.21591        0.890259 
        2.74897          3.1968        0.878043 
        2.76462         3.16129        0.866085 
        2.78034         3.15561        0.854302 
        2.79607         3.11285        0.842727 
        2.81179         3.08918         0.83138 
        2.82749         3.06362        0.820257 
        2.84321         3.04561        0.809326 
        2.85893         3.00954        0.798599 
        2.87462         3.00222        0.788086 
        2.89033         2.97419        0.777753 
        2.90605         2.95566        0.767598 
        2.92176         2.92705        0.757631 
        2.93747         2.89694        0.747846 
        2.95318         2.87858        0.738234 
        2.96891         2.86844        0.728787 
        2.98456          2.8468        0.719548 
        3.00023         2.82333        0.710457 
        3.01596         2.78955        0.701495 
        3.03164         2.76945        0.692715 
        3.04738         2.75734         0.68406 
         3.0631         2.73433        0.675556 
        3.07883         2.71601        0.667198 
        3.09456         2.68721        0.658983 
        3.11026         2.67611         0.65092 
        3.12596         2.65374        0.642994 
        3.14163         2.64103        0.635219 
        3.15734         2.61806        0.627555 
        3.17308         2.60606        0.619999 
        3.18879         2.58354         0.61259 
        3.20447         2.55535        0.605313 
         3.2202         2.55717        0.598132 
         3.2359          2.5286        0.591081 
        3.25157         2.50672        0.584161 
        3.26729         2.49083        0.577332 
        3.28304         2.47233        0.570599 
        3.29877         2.45471        0.563983 
        3.31446         2.44292        0.557487 
        3.33014         2.41724        0.551099 
        3.34585         2.41281        0.544803 
        3.36158         2.38781        0.538596 
        3.37727         2.38208        0.532505 
        3.39294         2.35905        0.526515 
        3.40867         2.35023        0.520596 
        3.42439         2.33265        0.514772 
        3.44008         2.31242        0.509048 
        3.45578         2.29838        0.503408 
        3.47153         2.28519        0.497842 
        3.48724         2.26873        0.492369 
        3.50292         2.25083        0.486993 
        3.51859         2.24772        0.481699 
        3.53431         2.22283        0.476468 
        3.55007          2.2161        0.471303 
        3.56577         2.19933        0.466235 
        3.58146         2.19197        0.461244 
        3.59719         2.17122        0.456315 
        3.61292         2.16036         0.45146 
        3.62859         2.14186        0.446694 
        3.64429         2.12895        0.441989 
        3.66003          2.1187        0.437337 
        3.67578          2.1045        0.432754 
        3.69146         2.08713        0.428255 
        3.70712         2.07524        0.423828 
        3.72284         2.06439        0.419447 
        3.73853         2.05696        0.415137 
        3.75422         2.03831        0.410885 
        3.76993         2.02774         0.40669 
        3.78564         2.01398        0.402556 
        3.80137         2.00164        0.398472 
        3.81707         1.98903        0.394454 
        3.83279         1.98434        0.390489 
        3.84853         1.96991        0.386571 
        3.86424         1.95152        0.382716 
        3.87992         1.94506        0.378919 
        3.89561         1.92674        0.375174 
        3.91134         1.92335        0.371472 
        3.92704         1.90989        0.367824 
        3.94273         1.89889        0.364229 
        3.95845         1.88528        0.360676 
        3.97418         1.88089         0.35717 
        3.98988         1.86952        0.353716 
        4.00554         1.85442        0.350317 
        4.02125         1.84602        0.346953 
        4.03698         1.83069        0.343628 
        4.05268         1.82085        0.340354 
        4.06839         1.80748        0.337121 
         4.0841         1.79222        0.333932 
        4.09983          1.7822        0.330779 
        4.11555         1.77347        0.327668 
        4.13124         1.75556        0.324606 
        4.14693          1.7497        0.321581 
        4.16266         1.74017        0.318588 
        4.17839         1.72806        0.315635 
        4.19408          1.7212        0.312726 
        4.20977         1.70898        0.309853 
        4.22551         1.70104        0.307009 
        4.24123         1.68673        0.304203 
        4.25691         1.67427        0.301441 
        4.27259         1.66465        0.298713 
        4.28831         1.66048        0.296012 
        4.30404          1.6466        0.293343 
        4.31974         1.63458        0.290713 
        4.33543         1.63066        0.288116 
        4.35116         1.62115        0.285546 
        4.36688         1.60852        0.283007 
        4.38255         1.59883         0.28051 
        4.39825         1.59396        0.278037 
        4.41398         1.58284        0.275589 
         4.4297         1.57133        0.273173 
        4.44541         1.56493        0.270787 
        4.46111         1.55134        0.268431 
        4.47683         1.54763        0.266102 
        4.49251          1.5406        0.263806 
        4.50819         1.53149        0.261537 
         4.5239         1.52407        0.259292 
        4.53962         1.51306         0.25707 
        4.55535         1.50744        0.254874 
        4.57106         1.49762        0.252706 
        4.58678         1.49559        0.250563 
         4.6025          1.4832        0.248445 
        4.61821         1.48027        0.246352 
        4.63391         1.46987        0.244286 
         4.6496         1.46048        0.242244 
        4.66532         1.45522        0.240223 
        4.68103         1.44875        0.238226 
        4.69673         1.44433        0.236253 
        4.71241          1.4337        0.234305 
        4.72811         1.43016        0.232376 
        4.74384         1.42341        0.230466 
        4.75955         1.41923         0.22858 
        4.77525         1.40651        0.226717 
        4.79096          1.4008        0.224873 
        4.80669         1.39846        0.223048 
         4.8224         1.38854        0.221246 
        4.83809         1.38361        0.219465 
        4.85379         1.37698        0.217703 
         4.8695         1.37048        0.215959 
        4.88521         1.36637        0.214235 
        4.90093         1.35824         0.21253 
        4.91663         1.35346        0.210845 
        4.93234         1.35015        0.209177 
        4.94807          1.3413        0.207525 
        4.96377         1.33681        0.205895 
        4.97943         1.33289        0.204285 
        4.99514         1.32707        0.202689 
        5.01086         1.31799        0.201109 
        5.02654         1.31345        0.199549 
        5.04227         1.30963        0.198002 
          5.058         1.30515         0.19647 
        5.07371         1.29829        0.194958 
        5.08942         1.29347        0.193461 
        5.10513          1.2932        0.191981 
        5.12084         1.28354        0.190514 
        5.13656         1.27686        0.189064 
        5.15225          1.2715        0.187631 
        5.16796         1.26856        0.186211 
        5.18369         1.26352        0.184805 
         5.1994         1.26253        0.183415 
        5.21509         1.25296        0.182041 
        5.23079          1.2509         0.18068 
        5.24649         1.24429        0.179334 
        5.26217         1.24178        0.178002 
        5.27788         1.23378        0.176682 
        5.29359         1.23194        0.175376 
        5.30933         1.22718         0.17408 
        5.32504         1.22124          0.1728 
        5.34073         1.21769        0.171535 
        5.35646          1.2133        0.170279 
        5.37218         1.20929        0.169036 
        5.38789         1.20738        0.167808 
        5.40357         1.20231        0.166593 
        5.41929         1.19856        0.165387 
        5.43502         1.19381        0.164194 
         5.4507         1.18709        0.163015 
        5.46639         1.18332        0.161847 
        5.48212         1.18065        0.160689 
        5.49786         1.17667         0.15954 
        5.51353         1.17422        0.158408 
        5.52921         1.16721        0.157286 
        5.54495         1.16482        0.156172 
        5.56066         1.16154         0.15507 
        5.57637         1.15887        0.153979 
        5.59207         1.15515        0.152899 
        5.60778         1.15152        0.151829 
        5.62346         1.14713        0.150771 
        5.63916         1.14407        0.149722 
        5.65487          1.1389        0.148683 
         5.6706         1.13579        0.147652 
        5.68633         1.13168        0.146631 
        5.70203         1.13089        0.145621 
        5.71773         1.12545        0.144622 
        5.73344         1.12138        0.143631 
        5.74916         1.11878        0.142648 
        5.76486         1.11439        0.141677 
        5.78054          1.1098        0.140715 
        5.79626         1.10892         0.13976 
          5.812         1.10574        0.138813 
         5.8277         1.09931        0.137878 
        5.84339         1.09994        0.136951 
        5.85911         1.09524        0.136031 
        5.87484         1.09407         0.13512 
        5.89053          1.0877        0.134219 
        5.90623         1.08697        0.133325 
        5.92195         1.08195        0.132439 
        5.93767         1.07848        0.131561 
        5.95336         1.07424        0.130692 
        5.96905         1.07048        0.129832 
        5.98476          1.0703        0.128978 
        6.00048         1.06667        0.128131 
        6.01617         1.06427        0.127294 
        6.03185           1.061        0.126464 
        6.04756         1.05995        0.125641 
        6.06331         1.05441        0.124823 
        6.07903         1.05378        0.124014 
        6.09473         1.05164        0.123213 
        6.11044         1.04551        0.122418 
        6.12616         1.04336         0.12163 
        6.14186         1.03934        0.120851 
        6.15755         1.03803        0.120078 
        6.17326         1.03465        0.119311 
        6.18898         1.03265        0.118551 
        6.20467         1.02985        0.117799 
        6.22036         1.02527        0.117053 
         6.2361         1.02305        0.116312 
         6.2518         1.02111        0.115578 
        6.26748         1.01839        0.114853 
        6.28319         1.01552        0.114131 
        6.29893          1.0134        0.113416 
        6.31463         1.00968        0.112707 
        6.33033         1.00994        0.112005 
        6.34604         1.00686        0.111309 
        6.36177         1.00253        0.110618 
        6.37747        0.999196        0.109933 
