# k  (h/Mpc)    Pcb(k)  (Mpc/h)^3    Pcb_linear(k) (Mpc/h)^3   ShotnoiseSubtracted = true
      0.0200456         1742.85         1770.08 
      0.0350414         1360.63         1374.09 
      0.0492313          1060.2         1059.81 
      0.0637834         907.679          900.09 
      0.0800726         716.836         709.808 
       0.096163         527.175         530.583 
       0.111083         436.454         443.497 
       0.126058           394.9         393.683 
       0.142273         329.909         324.872 
       0.158546         268.226         262.334 
        0.17375         229.832         230.796 
       0.188953         212.089         208.417 
       0.204907         190.821         179.729 
       0.220756         160.774          153.99 
        0.23588         143.834         138.471 
         0.2514         129.234         126.158 
       0.267535         117.275         112.091 
       0.283568         105.305         99.3557 
       0.299022         96.8241         90.4684 
       0.314451         87.2126         83.1514 
       0.330372         80.6646         75.5462 
       0.346141         73.3509         68.6421 
       0.361624         68.4515         63.1841 
       0.377134         64.5311          58.502 
       0.392932         57.3037         53.9551 
       0.408854         55.1587         49.7317 
       0.424564         51.9244         46.1595 
       0.440253         47.9715         43.0186 
       0.455999         45.3768         40.0815 
       0.471626         42.5804         37.3959 
        0.48727         40.4556         34.9934 
       0.502856         37.9329         32.8405 
       0.518488         36.3192         30.8454 
       0.534347         34.8173         28.9733 
       0.550082         31.9347         27.2801 
       0.565732         29.7642          25.741 
       0.581496         29.2172          24.308 
       0.597222         28.2005         22.9823 
       0.612804          26.317         21.7681 
       0.628434         25.4103         20.6432 
       0.644267         24.6748         19.5858 
       0.660051         23.3616         18.6054 
       0.675724         22.2117         17.6983 
       0.691403         21.5043         16.8516 
       0.707174         20.6937          16.056 
       0.722871         19.8742         15.3155 
        0.73838          19.196           14.63 
       0.754018          18.496         13.9817 
       0.769845         17.7816          13.366 
        0.78569         17.2574         12.7871 
       0.801365         16.5854         12.2486 
       0.817031         16.1396         11.7418 
       0.832809         15.7622         11.2608 
       0.848511         14.8223         10.8091 
       0.864097         14.4914         10.3857 
       0.879701          14.084         9.98469 
       0.895507          13.554         9.60039 
       0.911279         13.3147         9.23732 
        0.92691         12.8986         8.89625 
       0.942635         12.3631         8.57069 
       0.958396         12.0417         8.26091 
       0.974128         11.7386         7.96716 
       0.989692         11.6202         7.69074 
        1.00528         11.2055         7.42718 
        1.02113         10.7735         7.17195 
        1.03692         10.5792         6.92979 
        1.05264         10.2933         6.70004 
        1.06832         10.0821         6.48118 
        1.08405         9.72573         6.27161 
        1.09979         9.51839         6.07129 
        1.11537         9.36576         5.88179 
        1.13105         9.11635         5.69932 
        1.14679         8.94155         5.52398 
        1.16256         8.67988         5.35574 
        1.17828         8.57605         5.19513 
        1.19395         8.30639         5.04172 
         1.2097         8.08414         4.89379 
        1.22537          7.9016         4.75256 
          1.241         7.78933         4.61738 
        1.25666         7.69889         4.48718 
        1.27241         7.45869         4.36144 
        1.28819         7.28723         4.24035 
        1.30392         7.18939         4.12425 
        1.31957         7.04036         4.01306 
        1.33529         6.90917         3.90559 
        1.35108         6.73273         3.80168 
        1.36674         6.69269         3.70232 
         1.3824         6.44776         3.60664 
        1.39811         6.37403         3.51405 
        1.41389         6.27483         3.42439 
        1.42964         6.16732         3.33803 
        1.44531         6.06186          3.2551 
        1.46101         5.94287         3.17484 
        1.47667         5.81484         3.09755 
        1.49229         5.76599         3.02306 
        1.50793         5.60617         2.95096 
        1.52367         5.57792         2.88076 
        1.53953         5.44323          2.8124 
        1.55526          5.3436         2.74682 
        1.57092          5.3039         2.68362 
        1.58662         5.17651         2.62227 
        1.60235         5.10831         2.56274 
        1.61809         5.02374         2.50505 
        1.63369         4.93944         2.44966 
        1.64941         4.87519         2.39556 
        1.66519         4.81313         2.34291 
        1.68085         4.71156         2.29223 
        1.69652         4.64192         2.24305 
        1.71228         4.58149         2.19504 
        1.72806         4.50726         2.14842 
        1.74368         4.43557         2.10362 
        1.75933         4.38615         2.06002 
        1.77505         4.32375         2.01747 
        1.79081         4.23922         1.97605 
         1.8065         4.19923         1.93598 
        1.82218         4.15088         1.89707 
        1.83797          4.1118         1.85896 
        1.85367          4.0425         1.82213 
        1.86928         3.99232         1.78652 
        1.88497         3.92237         1.75167 
        1.90073         3.86504         1.71763 
        1.91647         3.81305         1.68454 
        1.93218         3.79065         1.65239 
        1.94787         3.74421         1.62113 
        1.96363         3.68333         1.59057 
        1.97935         3.62943         1.56086 
        1.99499         3.56484         1.53209 
        2.01064         3.54221           1.504 
         2.0264         3.50789         1.47645 
        2.04216         3.46427          1.4496 
        2.05781         3.41512          1.4236 
        2.07353         3.37686         1.39815 
        2.08928         3.34458         1.37327 
        2.10499         3.29913         1.34906 
        2.12065         3.27661         1.32552 
        2.13633         3.22555         1.30252 
        2.15211         3.18422         1.27992 
        2.16785         3.15415         1.25793 
        2.18349         3.12537         1.23659 
        2.19916         3.06218         1.21571 
        2.21489         3.04549         1.19524 
        2.23063         3.00274         1.17523 
         2.2463         2.98201         1.15578 
        2.26194         2.93999         1.13682 
        2.27765         2.91702         1.11818 
        2.29341          2.8835         1.09992 
        2.30914         2.85555         1.08211 
        2.32486         2.83487         1.06471 
        2.34061         2.79644         1.04766 
        2.35635         2.74926           1.031 
        2.37203         2.74705         1.01477 
        2.38768         2.71679        0.998919 
        2.40339         2.69362        0.983353 
        2.41914         2.65722        0.968085 
        2.43483         2.63393        0.953197 
         2.4505         2.59468        0.938649 
        2.46622         2.58781        0.924357 
        2.48195         2.55124        0.910363 
        2.49759         2.52856        0.896736 
        2.51328         2.50262        0.883354 
        2.52906         2.49074        0.870162 
        2.54479         2.45648         0.85729 
        2.56049         2.43498        0.844706 
        2.57618         2.41707        0.832386 
        2.59189         2.40552        0.820296 
        2.60758         2.36672        0.808466 
        2.62325         2.35046        0.796885 
        2.63898         2.32152        0.785492 
        2.65468          2.3041        0.774347 
        2.67044         2.29136        0.763372 
        2.68618         2.26052        0.752636 
        2.70184         2.24188        0.742151 
        2.71755         2.22555        0.731841 
        2.73329         2.20365        0.721712 
        2.74897         2.18847        0.711809 
        2.76462         2.16425        0.702115 
        2.78034         2.15932        0.692563 
        2.79607         2.12535        0.683179 
        2.81179         2.11037        0.673981 
        2.82749         2.09844        0.664964 
        2.84321         2.07798        0.656102 
        2.85893         2.06106        0.647406 
        2.87462         2.04386        0.638883 
        2.89033         2.01799        0.630507 
        2.90605         2.00406        0.622274 
        2.92176         1.99378        0.614194 
        2.93747         1.97725        0.606262 
        2.95318         1.96157        0.598469 
        2.96891         1.94357        0.590811 
        2.98456         1.93176        0.583321 
        3.00023         1.91506        0.575951 
        3.01596         1.90423        0.568686 
        3.03164         1.88985        0.561568 
        3.04738          1.8647        0.554551 
         3.0631         1.85334        0.547658 
        3.07883         1.84312        0.540882 
        3.09456         1.83323        0.534223 
        3.11026         1.81298        0.527686 
        3.12596         1.80209         0.52126 
        3.14163         1.78601        0.514957 
        3.15734         1.77737        0.508744 
        3.17308         1.76148        0.502619 
        3.18879         1.75427        0.496612 
        3.20447         1.73436        0.490713 
         3.2202          1.7222        0.484892 
         3.2359         1.71209        0.479176 
        3.25157         1.69901        0.473566 
        3.26729         1.68612         0.46803 
        3.28304         1.67677        0.462572 
        3.29877         1.66077        0.457208 
        3.31446         1.64777        0.451942 
        3.33014         1.64485        0.446764 
        3.34585         1.62983        0.441659 
        3.36158         1.61358        0.436627 
        3.37727         1.61105         0.43169 
        3.39294         1.59255        0.426834 
        3.40867         1.58309        0.422035 
        3.42439         1.57207        0.417314 
        3.44008         1.56544        0.412674 
        3.45578         1.55672        0.408101 
        3.47153         1.54051        0.403589 
        3.48724         1.53239        0.399152 
        3.50292         1.52599        0.394794 
        3.51859         1.51851        0.390502 
        3.53431         1.50489        0.386262 
        3.55007         1.49837        0.382075 
        3.56577         1.48647        0.377966 
        3.58146         1.47712         0.37392 
        3.59719         1.46742        0.369924 
        3.61292         1.46303        0.365988 
        3.62859         1.44793        0.362125 
        3.64429         1.44199         0.35831 
        3.66003         1.42936        0.354539 
        3.67578         1.42216        0.350824 
        3.69146         1.41605        0.347176 
        3.70712         1.40007        0.343587 
        3.72284         1.40054        0.340036 
        3.73853          1.3861        0.336542 
        3.75422         1.37953        0.333095 
        3.76993         1.37373        0.329694 
        3.78564         1.36605        0.326342 
        3.80137         1.35219        0.323032 
        3.81707         1.35057        0.319775 
        3.83279         1.33764         0.31656 
        3.84853         1.33055        0.313384 
        3.86424         1.32511        0.310259 
        3.87992         1.31892        0.307181 
        3.89561         1.31133        0.304145 
        3.91134         1.30293        0.301144 
        3.92704         1.29318        0.298187 
        3.94273         1.28949        0.295272 
        3.95845         1.28039        0.292392 
        3.97418         1.27342         0.28955 
        3.98988         1.26343        0.286749 
        4.00554         1.25914        0.283994 
        4.02125         1.24933        0.281267 
        4.03698         1.23727        0.278571 
        4.05268           1.229        0.275917 
        4.06839         1.21848        0.273297 
         4.0841         1.21297        0.270711 
        4.09983         1.20518        0.268155 
        4.11555         1.19735        0.265633 
        4.13124         1.18964        0.263151 
        4.14693         1.17925        0.260699 
        4.16266         1.17246        0.258272 
        4.17839         1.16709        0.255878 
        4.19408         1.15903         0.25352 
        4.20977         1.15126         0.25119 
        4.22551         1.14552        0.248885 
        4.24123         1.13845        0.246611 
        4.25691         1.13089        0.244371 
        4.27259         1.12339        0.242159 
        4.28831         1.11677         0.23997 
        4.30404         1.11302        0.237807 
        4.31974         1.10068        0.235674 
        4.33543         1.09804        0.233569 
        4.35116         1.09206        0.231485 
        4.36688         1.08397        0.229428 
        4.38255         1.07969        0.227403 
        4.39825         1.07619        0.225398 
        4.41398         1.06789        0.223413 
         4.4297          1.0615        0.221455 
        4.44541         1.05711        0.219521 
        4.46111         1.05416        0.217611 
        4.47683         1.04851        0.215723 
        4.49251         1.04239        0.213861 
        4.50819         1.03653        0.212022 
         4.5239         1.03089        0.210202 
        4.53962         1.02764        0.208401 
        4.55535         1.02072         0.20662 
        4.57106         1.01826        0.204863 
        4.58678         1.01234        0.203126 
         4.6025         1.00867        0.201409 
        4.61821         1.00534        0.199712 
        4.63391        0.996647        0.198037 
         4.6496        0.992424        0.196382 
        4.66532        0.990367        0.194743 
        4.68103        0.984782        0.193124 
        4.69673        0.982449        0.191525 
        4.71241        0.976566        0.189946 
        4.72811        0.975275        0.188382 
        4.74384          0.9678        0.186833 
        4.75955        0.964713        0.185305 
        4.77525        0.959526        0.183794 
        4.79096        0.957013        0.182299 
        4.80669        0.955209         0.18082 
         4.8224        0.950492        0.179359 
        4.83809        0.946412        0.177915 
        4.85379        0.944233        0.176487 
         4.8695        0.940727        0.175073 
        4.88521         0.93473        0.173676 
        4.90093        0.933962        0.172293 
        4.91663         0.93107        0.170927 
        4.93234        0.924548        0.169575 
        4.94807        0.923145        0.168236 
        4.96377        0.920371        0.166914 
        4.97943        0.917375        0.165609 
        4.99514         0.91337        0.164315 
        5.01086        0.912538        0.163034 
        5.02654        0.908704         0.16177 
        5.04227        0.904364        0.160516 
          5.058        0.901344        0.159274 
        5.07371        0.899229        0.158048 
        5.08942        0.897122        0.156835 
        5.10513        0.894796        0.155634 
        5.12084        0.892305        0.154446 
        5.13656        0.889691         0.15327 
        5.15225        0.888616        0.152108 
        5.16796        0.882518        0.150957 
        5.18369        0.880747        0.149817 
         5.1994         0.87933         0.14869 
        5.21509        0.877069        0.147577 
        5.23079        0.875836        0.146473 
        5.24649        0.873939        0.145382 
        5.26217        0.868375        0.144302 
        5.27788        0.868574        0.143232 
        5.29359        0.866441        0.142173 
        5.30933        0.864115        0.141123 
        5.32504        0.862193        0.140085 
        5.34073        0.860009        0.139059 
        5.35646        0.858086        0.138041 
        5.37218        0.856694        0.137034 
        5.38789        0.854609        0.136038 
        5.40357        0.850466        0.135053 
        5.41929        0.852075        0.134076 
        5.43502        0.848722        0.133108 
         5.4507        0.848437        0.132152 
        5.46639        0.845558        0.131206 
        5.48212        0.841357        0.130267 
        5.49786        0.841509        0.129335 
        5.51353         0.83807        0.128418 
        5.52921        0.838289        0.127508 
        5.54495        0.836403        0.126605 
        5.56066        0.833994        0.125712 
        5.57637        0.833864        0.124827 
        5.59207         0.83148        0.123952 
        5.60778        0.830042        0.123084 
        5.62346        0.829521        0.122227 
        5.63916        0.826348        0.121376 
        5.65487        0.824827        0.120534 
         5.6706        0.826731        0.119698 
        5.68633        0.822824         0.11887 
        5.70203        0.820904        0.118052 
        5.71773        0.820027        0.117241 
        5.73344        0.816446        0.116438 
        5.74916        0.818936        0.115642 
        5.76486        0.815263        0.114854 
        5.78054        0.814328        0.114075 
        5.79626        0.812808        0.113301 
          5.812        0.812384        0.112533 
         5.8277        0.809927        0.111774 
        5.84339        0.808911        0.111023 
        5.85911        0.806644        0.110277 
        5.87484        0.806327        0.109539 
        5.89053        0.804478        0.108808 
        5.90623        0.803699        0.108084 
        5.92195        0.801165        0.107365 
        5.93767        0.800608        0.106653 
        5.95336         0.79938        0.105949 
        5.96905        0.797461        0.105251 
        5.98476        0.796463        0.104559 
        6.00048        0.796972        0.103873 
        6.01617        0.793965        0.103194 
        6.03185        0.792285        0.102522 
        6.04756        0.792281        0.101854 
        6.06331        0.791656        0.101191 
        6.07903        0.789598        0.100535 
        6.09473        0.789685       0.0998856 
        6.11044         0.78833       0.0992414 
        6.12616        0.786657        0.098603 
        6.14186        0.785928       0.0979708 
        6.15755        0.784193       0.0973443 
        6.17326          0.7838       0.0967228 
        6.18898        0.782042       0.0961064 
        6.20467        0.782598       0.0954966 
        6.22036        0.778394       0.0948921 
         6.2361        0.779402       0.0942912 
         6.2518        0.777622       0.0936966 
        6.26748        0.776764       0.0931084 
        6.28319        0.777171       0.0925236 
        6.29893        0.773206       0.0919434 
        6.31463        0.773298       0.0913692 
        6.33033        0.773194       0.0908001 
        6.34604         0.77158       0.0902354 
        6.36177        0.769768       0.0896751 
        6.37747        0.770545       0.0891205 
