# k  (h/Mpc)    Pcb(k)  (Mpc/h)^3    Pcb_linear(k) (Mpc/h)^3   ShotnoiseSubtracted = true
      0.0200456         10250.2         10409.1 
      0.0350414          8258.3          8080.5 
      0.0492313         6151.49         6232.31 
      0.0637834         5081.34         5293.07 
      0.0800726         3989.52          4174.1 
       0.096163         3189.16         3120.15 
       0.111083         2699.56         2608.03 
       0.126058         2257.01         2315.09 
       0.142273         1911.19         1910.44 
       0.158546         1594.16         1542.68 
        0.17375         1432.18         1357.22 
       0.188953         1322.63         1225.62 
       0.204907         1119.95         1056.92 
       0.220756         1009.68         905.556 
        0.23588         909.625         814.293 
         0.2514         818.806         741.887 
       0.267535         790.134         659.161 
       0.283568         693.146         584.271 
       0.299022          663.73         532.009 
       0.314451         670.233          488.98 
       0.330372         578.081         444.257 
       0.346141         537.262         403.657 
       0.361624         514.448         371.561 
       0.377134         481.419         344.027 
       0.392932         468.586         317.289 
       0.408854         445.422         292.453 
       0.424564         430.459         271.446 
       0.440253         390.151         252.975 
       0.455999         374.323         235.703 
       0.471626         374.915         219.911 
        0.48727         356.879         205.782 
       0.502856         327.694         193.122 
       0.518488         328.724         181.389 
       0.534347         305.555         170.381 
       0.550082          298.06         160.423 
       0.565732         295.802         151.372 
       0.581496         280.355         142.946 
       0.597222         273.153          135.15 
       0.612804         266.265          128.01 
       0.628434         255.779         121.395 
       0.644267         244.957         115.176 
       0.660051         240.287         109.411 
       0.675724         238.661         104.077 
       0.691403         231.028         99.0975 
       0.707174         223.631         94.4191 
       0.722871         220.152         90.0642 
        0.73838         218.213         86.0333 
       0.754018         205.919         82.2208 
       0.769845         205.319         78.5999 
        0.78569         200.456         75.1959 
       0.801365         195.406         72.0291 
       0.817031         189.642         69.0489 
       0.832809         187.051         66.2201 
       0.848511         182.581         63.5643 
       0.864097         178.604         61.0739 
       0.879701         176.926          58.716 
       0.895507         172.017         56.4561 
       0.911279         167.531          54.321 
        0.92691         164.917         52.3153 
       0.942635         162.491         50.4008 
       0.958396         159.232         48.5791 
       0.974128         155.584         46.8517 
       0.989692         152.059         45.2262 
        1.00528         150.188         43.6763 
        1.02113         146.525         42.1754 
        1.03692         145.202         40.7513 
        1.05264         143.021         39.4003 
        1.06832         139.489         38.1133 
        1.08405         137.677         36.8809 
        1.09979         136.723         35.7028 
        1.11537         133.184         34.5885 
        1.13105         131.857         33.5155 
        1.14679         129.082         32.4843 
        1.16256         127.041          31.495 
        1.17828         125.236         30.5505 
        1.19395         121.785         29.6484 
         1.2097         121.609         28.7784 
        1.22537         118.567         27.9479 
          1.241         117.989          27.153 
        1.25666          114.25         26.3873 
        1.27241         112.625         25.6479 
        1.28819         111.671         24.9358 
        1.30392         109.257         24.2531 
        1.31957         108.007         23.5992 
        1.33529         106.608         22.9673 
        1.35108         105.622         22.3562 
        1.36674         103.543         21.7719 
         1.3824         102.789         21.2092 
        1.39811         100.037         20.6647 
        1.41389          99.165         20.1375 
        1.42964         97.3477         19.6296 
        1.44531         96.1971          19.142 
        1.46101         94.9526           18.67 
        1.47667         93.8589         18.2155 
        1.49229          92.875         17.7774 
        1.50793          91.155         17.3534 
        1.52367         90.4452         16.9406 
        1.53953         88.5569         16.5386 
        1.55526         87.3151         16.1529 
        1.57092         86.9736         15.7813 
        1.58662         85.5275         15.4205 
        1.60235         84.1176         15.0705 
        1.61809         83.1844         14.7312 
        1.63369         81.6867         14.4055 
        1.64941         81.6222         14.0873 
        1.66519         79.6913         13.7777 
        1.68085         78.9953         13.4797 
        1.69652         77.1578         13.1905 
        1.71228         76.7887         12.9082 
        1.72806         75.8781          12.634 
        1.74368         74.6751         12.3706 
        1.75933         74.0393         12.1142 
        1.77505         73.1921         11.8639 
        1.79081         71.9051         11.6204 
         1.8065         71.6046         11.3847 
        1.82218         69.6064         11.1559 
        1.83797         69.3726         10.9318 
        1.85367         68.4073         10.7152 
        1.86928         67.6564         10.5058 
        1.88497         66.6393         10.3009 
        1.90073         65.7395         10.1007 
        1.91647         64.9372         9.90608 
        1.93218         64.4808         9.71704 
        1.94787         63.4921         9.53324 
        1.96363         62.4651         9.35351 
        1.97935         61.8814         9.17881 
        1.99499         61.2393         9.00959 
        2.01064          60.497         8.84443 
         2.0264         59.6462          8.6824 
        2.04216         58.8596         8.52454 
        2.05781         58.0927         8.37163 
        2.07353          57.324         8.22196 
        2.08928         56.8121         8.07564 
        2.10499         56.1739          7.9333 
        2.12065         55.6611         7.79484 
        2.13633         54.9701         7.65959 
        2.15211         54.1429          7.5267 
        2.16785         53.3971         7.39736 
        2.18349         52.6758         7.27189 
        2.19916          52.069         7.14908 
        2.21489         51.6332         7.02873 
        2.23063         50.7233         6.91108 
         2.2463         50.3999         6.79668 
        2.26194         49.7979         6.68516 
        2.27765         49.1133          6.5756 
        2.29341         48.3391         6.46822 
        2.30914          47.876         6.36348 
        2.32486         47.2954         6.26113 
        2.34061          46.897         6.16087 
        2.35635         46.1949         6.06292 
        2.37203         45.8082         5.96745 
        2.38768         45.2067         5.87425 
        2.40339         44.7703         5.78271 
        2.41914         44.2517         5.69292 
        2.43483         43.4837         5.60537 
         2.4505         43.1317         5.51982 
        2.46622         42.7704         5.43578 
        2.48195         42.2005         5.35349 
        2.49759         41.6611         5.27335 
        2.51328         41.2253         5.19465 
        2.52906         40.7665         5.11708 
        2.54479         40.3642         5.04138 
        2.56049         39.8428         4.96738 
        2.57618         39.4412         4.89493 
        2.59189         38.8845         4.82383 
        2.60758         38.5124         4.75427 
        2.62325         38.1571         4.68616 
        2.63898         37.7375         4.61917 
        2.65468         37.3196         4.55363 
        2.67044         36.8981         4.48909 
        2.68618         36.5893         4.42596 
        2.70184         36.0107          4.3643 
        2.71755         35.7471         4.30367 
        2.73329         35.1303          4.2441 
        2.74897         34.7914         4.18587 
        2.76462         34.4288         4.12886 
        2.78034         34.1868         4.07269 
        2.79607         33.6817         4.01751 
        2.81179         33.3719         3.96341 
        2.82749         32.9993         3.91039 
        2.84321         32.6979         3.85828 
        2.85893         32.3569         3.80714 
        2.87462         31.9149         3.75702 
        2.89033          31.637         3.70776 
        2.90605          31.413         3.65935 
        2.92176         31.0913         3.61183 
        2.93747         30.6497         3.56519 
        2.95318         30.3609         3.51936 
        2.96891         30.1364         3.47432 
        2.98456         29.6897         3.43028 
        3.00023         29.3777         3.38694 
        3.01596         29.1038         3.34422 
        3.03164         28.8316         3.30236 
        3.04738         28.5323          3.2611 
         3.0631         28.2669         3.22056 
        3.07883         27.8483         3.18071 
        3.09456         27.5772         3.14155 
        3.11026          27.209         3.10311 
        3.12596         26.9679         3.06533 
        3.14163          26.744         3.02826 
        3.15734         26.4765         2.99172 
        3.17308         26.2026          2.9557 
        3.18879         25.9044         2.92038 
        3.20447         25.6116         2.88569 
         3.2202         25.3142         2.85146 
         3.2359         25.1197         2.81784 
        3.25157         24.8838         2.78485 
        3.26729         24.6375          2.7523 
        3.28304         24.2969          2.7202 
        3.29877         24.1281         2.68866 
        3.31446         23.7911         2.65769 
        3.33014         23.5831         2.62724 
        3.34585         23.4101         2.59722 
        3.36158         23.1364         2.56763 
        3.37727          22.936          2.5386 
        3.39294         22.6652         2.51004 
        3.40867         22.4722         2.48182 
        3.42439         22.2496         2.45406 
        3.44008         22.0153         2.42677 
        3.45578         21.8875         2.39988 
        3.47153         21.5323         2.37335 
        3.48724          21.427         2.34726 
        3.50292         21.1018         2.32163 
        3.51859         20.9547         2.29639 
        3.53431         20.7589         2.27145 
        3.55007         20.5563         2.24683 
        3.56577         20.3776         2.22267 
        3.58146         20.1629         2.19887 
        3.59719         19.9855         2.17538 
        3.61292         19.7935         2.15223 
        3.62859         19.5223         2.12951 
        3.64429         19.3913         2.10708 
        3.66003         19.2563          2.0849 
        3.67578         19.0778         2.06306 
        3.69146         18.7937         2.04161 
        3.70712         18.6609          2.0205 
        3.72284         18.4762         1.99962 
        3.73853         18.2956         1.97907 
        3.75422          18.066          1.9588 
        3.76993         18.0131          1.9388 
        3.78564         17.8431         1.91909 
        3.80137         17.6266         1.89962 
        3.81707          17.424         1.88047 
        3.83279         17.2833         1.86156 
        3.84853         17.1508         1.84289 
        3.86424         16.9466         1.82451 
        3.87992          16.801         1.80641 
        3.89561         16.6217         1.78855 
        3.91134         16.5046         1.77091 
        3.92704         16.3618         1.75352 
        3.94273         16.1934         1.73638 
        3.95845         15.9969         1.71944 
        3.97418          15.883         1.70273 
        3.98988         15.7465         1.68626 
        4.00554         15.6696         1.67005 
        4.02125          15.392         1.65402 
        4.03698         15.3225         1.63817 
        4.05268         15.1799         1.62256 
        4.06839         15.0494         1.60715 
         4.0841         14.9209         1.59194 
        4.09983         14.7279         1.57691 
        4.11555         14.6214         1.56208 
        4.13124         14.5032         1.54749 
        4.14693         14.4042         1.53306 
        4.16266          14.262          1.5188 
        4.17839         14.1202         1.50472 
        4.19408         13.9597         1.49085 
        4.20977         13.8868         1.47715 
        4.22551         13.7157         1.46359 
        4.24123         13.6049         1.45022 
        4.25691         13.4965         1.43705 
        4.27259          13.371         1.42404 
        4.28831         13.2968         1.41117 
        4.30404         13.1697         1.39845 
        4.31974         13.0249         1.38591 
        4.33543         12.9059         1.37353 
        4.35116         12.8113         1.36127 
        4.36688         12.7079         1.34917 
        4.38255          12.569         1.33726 
        4.39825         12.4895         1.32548 
        4.41398         12.3646         1.31381 
         4.4297         12.2533         1.30229 
        4.44541         12.1284         1.29092 
        4.46111          12.077         1.27969 
        4.47683         11.9566         1.26858 
        4.49251         11.8429         1.25763 
        4.50819         11.7546         1.24682 
         4.5239         11.6514         1.23611 
        4.53962         11.5395         1.22552 
        4.55535         11.4706         1.21505 
        4.57106         11.3597         1.20472 
        4.58678         11.2568          1.1945 
         4.6025         11.1678         1.18441 
        4.61821         11.0699         1.17443 
        4.63391         10.9618         1.16458 
         4.6496         10.9019         1.15484 
        4.66532         10.7876         1.14521 
        4.68103         10.7317         1.13569 
        4.69673         10.6118         1.12628 
        4.71241         10.5308         1.11699 
        4.72811         10.4562          1.1078 
        4.74384         10.3575         1.09869 
        4.75955         10.2822          1.0897 
        4.77525         10.1954         1.08082 
        4.79096         10.1007         1.07203 
        4.80669         10.0466         1.06333 
         4.8224          9.9646         1.05474 
        4.83809         9.88393         1.04625 
        4.85379         9.79931         1.03785 
         4.8695         9.71045         1.02954 
        4.88521         9.63522         1.02132 
        4.90093         9.56468         1.01319 
        4.91663         9.47168         1.00516 
        4.93234         9.40086        0.997201 
        4.94807         9.33784        0.989328 
        4.96377         9.26403        0.981555 
        4.97943         9.18662        0.973883 
        4.99514         9.09865        0.966273 
        5.01086         9.06119        0.958739 
        5.02654         8.97369        0.951305 
        5.04227         8.89054        0.943928 
          5.058          8.8148        0.936627 
        5.07371         8.77199        0.929417 
        5.08942         8.69474        0.922283 
        5.10513         8.63718        0.915223 
        5.12084         8.57464        0.908234 
        5.13656            8.49         0.90132 
        5.15225         8.44572        0.894489 
        5.16796         8.36523        0.887719 
        5.18369         8.27925        0.881013 
         5.1994         8.23837        0.874389 
        5.21509          8.1812         0.86784 
        5.23079         8.08777         0.86135 
        5.24649         8.04677        0.854932 
        5.26217         7.97636        0.848584 
        5.27788          7.9353        0.842291 
        5.29359         7.86852        0.836062 
        5.30933         7.81681        0.829887 
        5.32504         7.75058        0.823786 
        5.34073         7.69132        0.817752 
        5.35646         7.62395        0.811767 
        5.37218         7.57373        0.805841 
        5.38789         7.50937        0.799984 
        5.40357         7.47744        0.794193 
        5.41929         7.41293        0.788446 
        5.43502          7.3593        0.782756 
         5.4507         7.29861        0.777135 
        5.46639         7.25228         0.77157 
        5.48212         7.19342        0.766046 
        5.49786         7.14006         0.76057 
        5.51353         7.09296        0.755174 
        5.52921         7.04541        0.749826 
        5.54495         6.99384        0.744515 
        5.56066         6.93956         0.73926 
        5.57637         6.88647        0.734058 
        5.59207         6.84252         0.72891 
        5.60778         6.78579         0.72381 
        5.62346         6.74434        0.718767 
        5.63916         6.68479        0.713766 
        5.65487         6.63744        0.708811 
         5.6706         6.59275        0.703898 
        5.68633         6.53994        0.699029 
        5.70203         6.49998        0.694217 
        5.71773           6.463        0.689451 
        5.73344         6.41869        0.684727 
        5.74916         6.37147        0.680044 
        5.76486         6.33219        0.675411 
        5.78054         6.26715        0.670828 
        5.79626         6.23975        0.666276 
          5.812         6.18527        0.661761 
         5.8277         6.14547        0.657301 
        5.84339          6.1165        0.652883 
        5.85911         6.05945        0.648497 
        5.87484         6.01799        0.644153 
        5.89053         5.96323        0.639857 
        5.90623         5.92992        0.635598 
        5.92195         5.89729        0.631371 
        5.93767         5.84914        0.627185 
        5.95336         5.80878        0.623044 
        5.96905         5.79096        0.618942 
        5.98476         5.73878        0.614871 
        6.00048         5.69217        0.610836 
        6.01617         5.65382        0.606843 
        6.03185         5.62252         0.60289 
        6.04756          5.5734        0.598964 
        6.06331         5.54424        0.595064 
        6.07903         5.51357        0.591207 
        6.09473         5.46893        0.587388 
        6.11044         5.43619        0.583599 
        6.12616         5.39397        0.579845 
        6.14186         5.35598        0.576128 
        6.15755           5.325        0.572443 
        6.17326         5.29474        0.568788 
        6.18898         5.24904        0.565164 
        6.20467         5.21804        0.561578 
        6.22036         5.18353        0.558023 
         6.2361         5.14388        0.554489 
         6.2518         5.10181        0.550992 
        6.26748         5.08203        0.547533 
        6.28319          5.0431        0.544095 
        6.29893         5.02027        0.540683 
        6.31463         4.99528        0.537306 
        6.33033         4.95865        0.533959 
        6.34604         4.92164        0.530639 
        6.36177         4.88944        0.527343 
        6.37747         4.85912        0.524082 
