# k  (h/Mpc)    Pcb(k)  (Mpc/h)^3    Pcb_linear(k) (Mpc/h)^3   ShotnoiseSubtracted = true
      0.0200456         22717.4         23155.8 
      0.0350414         18449.2         17975.6 
      0.0492313         13421.9         13864.2 
      0.0637834         11012.1         11774.8 
      0.0800726         8603.35         9285.56 
       0.096163         7066.58         6940.98 
       0.111083         5968.17         5801.74 
       0.126058         4935.01         5150.08 
       0.142273         4282.15         4249.91 
       0.158546         3561.82          3431.8 
        0.17375         3256.93         3019.23 
       0.188953         3103.61         2726.47 
       0.204907         2669.58         2351.18 
       0.220756         2425.09         2014.47 
        0.23588         2184.87         1811.45 
         0.2514         1993.07         1650.38 
       0.267535         1914.63         1466.35 
       0.283568            1722         1299.75 
       0.299022         1648.62         1183.49 
       0.314451         1713.99         1087.77 
       0.330372         1543.91          988.28 
       0.346141         1420.12         897.962 
       0.361624         1360.84         826.562 
       0.377134         1309.75         765.312 
       0.392932         1249.41          705.83 
       0.408854         1199.25          650.58 
       0.424564         1176.61         603.849 
       0.440253         1102.93          562.76 
       0.455999         1054.97         524.338 
       0.471626          1063.6         489.206 
        0.48727          1011.8         457.776 
       0.502856         978.479         429.613 
       0.518488         943.677         403.513 
       0.534347         908.059         379.023 
       0.550082          870.04         356.872 
       0.565732         853.047         336.738 
       0.581496         832.823         317.992 
       0.597222         820.327         300.649 
       0.612804         799.423         284.766 
       0.628434         766.915          270.05 
       0.644267         745.856         256.218 
       0.660051         736.613         243.392 
       0.675724         723.813         231.526 
       0.691403          695.83         220.449 
       0.707174         677.692         210.042 
       0.722871         668.785         200.354 
        0.73838          654.01         191.387 
       0.754018         642.119         182.906 
       0.769845         628.404         174.851 
        0.78569          613.03         167.278 
       0.801365          594.35         160.234 
       0.817031          586.68         153.604 
       0.832809         574.435         147.311 
       0.848511         563.168         141.403 
       0.864097         556.282         135.863 
       0.879701         554.303         130.618 
       0.895507         531.076          125.59 
       0.911279         526.454         120.841 
        0.92691         514.826         116.379 
       0.942635         508.202          112.12 
       0.958396         495.155         108.067 
       0.974128         486.186         104.225 
       0.989692         472.303         100.609 
        1.00528         467.929         97.1608 
        1.02113         456.884          93.822 
        1.03692         449.292         90.6541 
        1.05264         442.758         87.6486 
        1.06832         432.357         84.7855 
        1.08405          429.01          82.044 
        1.09979         418.375         79.4233 
        1.11537         408.342         76.9443 
        1.13105         402.348         74.5574 
        1.14679         394.159         72.2636 
        1.16256         391.195         70.0627 
        1.17828          383.39         67.9617 
        1.19395         375.528         65.9548 
         1.2097         369.647         64.0195 
        1.22537         362.252          62.172 
          1.241         356.029         60.4037 
        1.25666         351.008         58.7004 
        1.27241         346.087         57.0555 
        1.28819         337.436         55.4714 
        1.30392         335.047         53.9526 
        1.31957         327.194          52.498 
        1.33529         323.059         51.0922 
        1.35108         320.864         49.7328 
        1.36674         311.474          48.433 
         1.3824         305.827         47.1813 
        1.39811         302.247         45.9701 
        1.41389         296.273         44.7971 
        1.42964         291.347         43.6674 
        1.44531         285.569         42.5826 
        1.46101         279.153         41.5326 
        1.47667         278.174         40.5215 
        1.49229         273.086          39.547 
        1.50793         267.713         38.6038 
        1.52367         262.135         37.6855 
        1.53953         258.404         36.7912 
        1.55526         254.534         35.9333 
        1.57092         249.935         35.1065 
        1.58662         245.737          34.304 
        1.60235         242.298         33.5253 
        1.61809         238.775         32.7705 
        1.63369         234.883         32.0459 
        1.64941         231.148         31.3382 
        1.66519         227.087         30.6495 
        1.68085         222.821         29.9865 
        1.69652         219.723         29.3431 
        1.71228         215.933         28.7151 
        1.72806         212.783         28.1051 
        1.74368         209.787         27.5192 
        1.75933         207.128         26.9488 
        1.77505         203.226         26.3921 
        1.79081         200.975         25.8503 
         1.8065         198.365         25.3261 
        1.82218         193.721         24.8171 
        1.83797         191.534         24.3186 
        1.85367           187.7         23.8367 
        1.86928         184.535         23.3708 
        1.88497          182.15          22.915 
        1.90073         180.595         22.4697 
        1.91647         177.163         22.0368 
        1.93218          174.45         21.6162 
        1.94787         170.509         21.2073 
        1.96363         169.637         20.8075 
        1.97935          166.79         20.4189 
        1.99499         164.636         20.0424 
        2.01064         160.589          19.675 
         2.0264         159.601         19.3146 
        2.04216         156.755         18.9634 
        2.05781         154.954         18.6233 
        2.07353         153.853         18.2903 
        2.08928         151.362         17.9648 
        2.10499         148.385         17.6482 
        2.12065         146.341         17.3401 
        2.13633         144.154         17.0393 
        2.15211         142.457         16.7437 
        2.16785         140.228         16.4559 
        2.18349         138.442         16.1768 
        2.19916         136.576         15.9036 
        2.21489          134.63         15.6359 
        2.23063         132.926         15.3742 
         2.2463         130.949         15.1197 
        2.26194          128.73         14.8716 
        2.27765         126.922         14.6279 
        2.29341         125.436          14.389 
        2.30914         123.817          14.156 
        2.32486          122.16         13.9283 
        2.34061         119.898         13.7053 
        2.35635         118.502         13.4874 
        2.37203         117.342          13.275 
        2.38768         116.133         13.0677 
        2.40339         113.563          12.864 
        2.41914         112.305         12.6643 
        2.43483         111.034         12.4695 
         2.4505         109.772         12.2792 
        2.46622         107.806         12.0923 
        2.48195          106.89         11.9092 
        2.49759         104.781         11.7309 
        2.51328         103.862         11.5559 
        2.52906         102.735         11.3833 
        2.54479         101.085         11.2149 
        2.56049         99.9974         11.0503 
        2.57618         98.7627         10.8891 
        2.59189         97.7411         10.7309 
        2.60758         96.3663         10.5762 
        2.62325         94.7276         10.4247 
        2.63898         93.4726         10.2756 
        2.65468         92.4858         10.1299 
        2.67044         91.5782         9.98628 
        2.68618         89.9572         9.84584 
        2.70184          89.131         9.70867 
        2.71755         87.6396          9.5738 
        2.73329         86.5943         9.44129 
        2.74897         85.7518         9.31175 
        2.76462           84.76         9.18493 
        2.78034         83.7855         9.05997 
        2.79607         82.7499         8.93721 
        2.81179         81.7222         8.81688 
        2.82749         80.8358         8.69892 
        2.84321         79.6184           8.583 
        2.85893          78.546         8.46923 
        2.87462         77.5855         8.35774 
        2.89033         76.8448         8.24816 
        2.90605         75.9097         8.14046 
        2.92176         74.8933         8.03476 
        2.93747         74.1966         7.93099 
        2.95318         73.2295         7.82905 
        2.96891         72.3829         7.72886 
        2.98456         71.3252         7.63088 
        3.00023         70.6572         7.53447 
        3.01596         69.8889         7.43943 
        3.03164         69.2387         7.34632 
        3.04738         68.4632         7.25453 
         3.0631          67.567         7.16435 
        3.07883         66.7607         7.07571 
        3.09456         65.8757         6.98859 
        3.11026         65.2538         6.90308 
        3.12596         64.2971         6.81902 
        3.14163         63.8451         6.73657 
        3.15734          62.945         6.65529 
        3.17308         62.3598         6.57516 
        3.18879         61.8945         6.49658 
        3.20447         61.0799         6.41941 
         3.2202         60.1201         6.34325 
         3.2359         59.8813         6.26848 
        3.25157         59.3014          6.1951 
        3.26729         58.2716         6.12267 
        3.28304         57.8504         6.05127 
        3.29877         57.1451          5.9811 
        3.31446         56.5465         5.91221 
        3.33014         56.0486         5.84447 
        3.34585         55.3454         5.77769 
        3.36158         54.7526         5.71187 
        3.37727           54.19         5.64728 
        3.39294         53.5441         5.58375 
        3.40867         52.8103         5.52098 
        3.42439         52.3386         5.45921 
        3.44008         51.8023         5.39851 
        3.45578         51.4952          5.3387 
        3.47153         50.7817         5.27967 
        3.48724         50.2711         5.22163 
        3.50292         49.8819         5.16461 
        3.51859         49.2597         5.10847 
        3.53431         48.6844           5.053 
        3.55007         48.2423         4.99822 
        3.56577         47.8867         4.94447 
        3.58146         47.1626         4.89154 
        3.59719         46.8268         4.83927 
        3.61292         46.2896         4.78778 
        3.62859         45.7767         4.73724 
        3.64429         45.3822         4.68734 
        3.66003         44.8729         4.63801 
        3.67578         44.3856         4.58941 
        3.69146         43.9312         4.54169 
        3.70712         43.4592         4.49474 
        3.72284         43.0524         4.44828 
        3.73853         42.6293         4.40257 
        3.75422         42.2844         4.35748 
        3.76993         41.7833         4.31299 
        3.78564         41.4112         4.26915 
        3.80137         40.8882         4.22584 
        3.81707         40.6251         4.18323 
        3.83279         40.2797         4.14117 
        3.84853         39.8321         4.09963 
        3.86424         39.4605         4.05875 
        3.87992         39.0389         4.01848 
        3.89561         38.7717         3.97876 
        3.91134         38.2857          3.9395 
        3.92704         38.0569         3.90082 
        3.94273         37.5694         3.86269 
        3.95845         37.2313         3.82501 
        3.97418         36.8204         3.78783 
        3.98988         36.5472          3.7512 
        4.00554         36.0579         3.71515 
        4.02125         35.7162         3.67947 
        4.03698         35.4504         3.64421 
        4.05268         35.1047          3.6095 
        4.06839         34.8464         3.57521 
         4.0841         34.5901         3.54138 
        4.09983          34.187         3.50795 
        4.11555         33.8981         3.47496 
        4.13124         33.5168         3.44249 
        4.14693         33.3737         3.41041 
        4.16266         32.9198         3.37866 
        4.17839         32.6234         3.34734 
        4.19408         32.2967         3.31649 
        4.20977         32.0196         3.28602 
        4.22551         31.6973         3.25586 
        4.24123         31.4666         3.22611 
        4.25691         31.0772         3.19682 
        4.27259         30.9501         3.16788 
        4.28831         30.6478         3.13924 
        4.30404         30.3017         3.11094 
        4.31974         30.0728         3.08304 
        4.33543         29.7709         3.05551 
        4.35116         29.4977         3.02824 
        4.36688         29.2711         3.00133 
        4.38255         29.0556         2.97484 
        4.39825         28.6866         2.94861 
        4.41398         28.5729         2.92265 
         4.4297         28.2686         2.89703 
        4.44541         27.9865         2.87173 
        4.46111         27.7498         2.84675 
        4.47683         27.6155         2.82204 
        4.49251         27.3353         2.79769 
        4.50819         27.0221         2.77363 
         4.5239         26.7541         2.74982 
        4.53962         26.5561         2.72626 
        4.55535           26.32         2.70296 
        4.57106         26.0978         2.67998 
        4.58678         25.8388         2.65725 
         4.6025         25.6768         2.63479 
        4.61821         25.4242         2.61259 
        4.63391         25.1776         2.59068 
         4.6496         24.9814         2.56903 
        4.66532         24.7967         2.54759 
        4.68103         24.5837         2.52641 
        4.69673          24.319         2.50549 
        4.71241         24.1987         2.48483 
        4.72811         23.9898         2.46437 
        4.74384         23.7246         2.44412 
        4.75955         23.5623         2.42412 
        4.77525         23.3549         2.40436 
        4.79096         23.1677          2.3848 
        4.80669         22.9762         2.36545 
         4.8224         22.7743         2.34633 
        4.83809         22.6053         2.32745 
        4.85379         22.3979         2.30877 
         4.8695         22.1835         2.29027 
        4.88521         22.0176         2.27199 
        4.90093         21.8428         2.25391 
        4.91663         21.7107         2.23604 
        4.93234         21.5799         2.21834 
        4.94807         21.3439         2.20083 
        4.96377         21.2174         2.18354 
        4.97943         20.9884         2.16647 
        4.99514         20.7872         2.14954 
        5.01086         20.6407         2.13278 
        5.02654         20.5202         2.11624 
        5.04227         20.2978         2.09983 
          5.058         20.1631         2.08359 
        5.07371          20.025         2.06755 
        5.08942          19.848         2.05168 
        5.10513         19.7081         2.03598 
        5.12084         19.5374         2.02043 
        5.13656          19.348         2.00505 
        5.15225         19.2262         1.98985 
        5.16796         19.0732         1.97479 
        5.18369         18.8956         1.95987 
         5.1994         18.7646         1.94514 
        5.21509         18.5745         1.93057 
        5.23079         18.4789         1.91613 
        5.24649         18.3237         1.90185 
        5.26217         18.1888         1.88773 
        5.27788         18.0265         1.87373 
        5.29359         17.8911         1.85988 
        5.30933         17.7414         1.84614 
        5.32504         17.6728         1.83257 
        5.34073         17.4977         1.81914 
        5.35646         17.3678         1.80583 
        5.37218          17.219         1.79265 
        5.38789         17.1206         1.77962 
        5.40357          16.922         1.76674 
        5.41929         16.8254         1.75395 
        5.43502         16.7289         1.74129 
         5.4507         16.5608         1.72879 
        5.46639         16.4446         1.71641 
        5.48212         16.3351         1.70412 
        5.49786         16.1669         1.69194 
        5.51353         16.0656         1.67994 
        5.52921         15.9222         1.66804 
        5.54495         15.7992         1.65622 
        5.56066         15.7082         1.64453 
        5.57637         15.5995         1.63296 
        5.59207         15.4676         1.62151 
        5.60778         15.3447         1.61017 
        5.62346         15.2418         1.59894 
        5.63916         15.1209         1.58782 
        5.65487         15.0222          1.5768 
         5.6706         14.8905         1.56587 
        5.68633         14.7757         1.55504 
        5.70203         14.6769         1.54433 
        5.71773         14.5624         1.53373 
        5.73344         14.4644         1.52322 
        5.74916         14.3727          1.5128 
        5.76486         14.2769          1.5025 
        5.78054         14.1406          1.4923 
        5.79626         14.0634         1.48217 
          5.812         13.9171         1.47213 
         5.8277         13.8353         1.46221 
        5.84339         13.7259         1.45238 
        5.85911         13.6282         1.44263 
        5.87484         13.5272         1.43296 
        5.89053         13.4277          1.4234 
        5.90623         13.3676         1.41393 
        5.92195         13.2524         1.40453 
        5.93767         13.1471         1.39522 
        5.95336          13.073           1.386 
        5.96905          12.946         1.37688 
        5.98476         12.8719         1.36782 
        6.00048         12.7898         1.35885 
        6.01617         12.6711         1.34996 
        6.03185         12.5831         1.34117 
        6.04756          12.529         1.33243 
        6.06331         12.4171         1.32376 
        6.07903         12.3468         1.31518 
        6.09473         12.2385         1.30668 
        6.11044         12.1775         1.29826 
        6.12616         12.0983          1.2899 
        6.14186         11.9984         1.28163 
        6.15755         11.9253         1.27344 
        6.17326          11.835         1.26531 
        6.18898         11.7379         1.25724 
        6.20467         11.6844         1.24927 
        6.22036         11.5776         1.24136 
         6.2361         11.5091          1.2335 
         6.2518         11.4352         1.22572 
        6.26748          11.339         1.21802 
        6.28319          11.262         1.21038 
        6.29893         11.1866         1.20278 
        6.31463         11.0933         1.19527 
        6.33033         11.0348         1.18783 
        6.34604         10.9789         1.18044 
        6.36177         10.8857         1.17311 
        6.37747         10.8252         1.16586 
