# k  (h/Mpc)    Pcb(k)  (Mpc/h)^3    Pcb_linear(k) (Mpc/h)^3   ShotnoiseSubtracted = true
      0.0200456          291.78         295.748 
      0.0350414         214.828         214.999 
      0.0492313         156.864         156.214 
      0.0637834         130.422         129.859 
      0.0800726         103.375         103.066 
       0.096163         74.8619         74.7835 
       0.111083         59.5551         59.6492 
       0.126058          52.926         52.8613 
       0.142273         44.9165         44.7852 
       0.158546         35.6262         35.3709 
        0.17375         29.7693            29.8 
       0.188953         27.0289         26.9832 
       0.204907         24.2503         23.8746 
       0.220756         20.3767         20.1994 
        0.23588         17.7262         17.5717 
         0.2514          16.001         15.9637 
       0.267535         14.4978         14.4444 
       0.283568         12.8326          12.738 
       0.299022          11.481         11.3489 
       0.314451         10.3561         10.3722 
       0.330372         9.55399         9.51529 
       0.346141         8.67913         8.63658 
       0.361624         7.92337         7.84946 
       0.377134         7.32729         7.22275 
       0.392932          6.6285         6.68307 
       0.408854         6.23843          6.1605 
       0.424564         5.72008         5.67822 
       0.440253         5.30563         5.26436 
       0.455999         4.97334          4.9045 
       0.471626         4.65556          4.5738 
        0.48727         4.31427         4.26444 
       0.502856         4.01931         3.98652 
       0.518488         3.81842         3.73855 
       0.534347         3.61005         3.50803 
       0.550082            3.33         3.29547 
       0.565732         3.09054         3.10101 
       0.581496         2.97307         2.92291 
       0.597222         2.81867         2.75958 
       0.612804         2.64538         2.60938 
       0.628434         2.53128         2.46939 
       0.644267         2.38526         2.33851 
       0.660051         2.25259         2.21788 
       0.675724         2.14678          2.1065 
       0.691403         2.05339         2.00267 
       0.707174         1.94302         1.90525 
       0.722871         1.84378          1.8147 
        0.73838         1.77327         1.73101 
       0.754018         1.70546         1.65196 
       0.769845         1.61857         1.57699 
        0.78569         1.54746         1.50661 
       0.801365         1.47617         1.44122 
       0.817031         1.41858         1.37978 
       0.832809         1.35838         1.32154 
       0.848511         1.29484         1.26694 
       0.864097         1.23716         1.21582 
       0.879701         1.18859         1.16749 
       0.895507         1.14973         1.12122 
       0.911279         1.11069         1.07757 
        0.92691         1.06481         1.03661 
       0.942635         1.02358        0.997567 
       0.958396        0.981938        0.960461 
       0.974128        0.946916        0.925318 
       0.989692        0.918319        0.892288 
        1.00528        0.884546        0.860828 
        1.02113        0.846228        0.830398 
        1.03692        0.824986        0.801558 
        1.05264        0.795147        0.774226 
        1.06832        0.770439        0.748216 
        1.08405        0.736837        0.723336 
        1.09979        0.714557        0.699578 
        1.11537        0.697112        0.677126 
        1.13105        0.674917         0.65553 
        1.14679        0.657092        0.634796 
        1.16256         0.62875        0.614921 
        1.17828        0.610811        0.595966 
        1.19395        0.590931        0.577877 
         1.2097        0.569646        0.560449 
        1.22537        0.558725        0.543827 
          1.241        0.541361        0.527932 
        1.25666        0.530621        0.512634 
        1.27241        0.509261        0.497873 
        1.28819        0.494562         0.48367 
        1.30392        0.482597        0.470065 
        1.31957        0.469684        0.457045 
        1.33529        0.455003        0.444472 
        1.35108        0.442135        0.432323 
        1.36674        0.426341        0.420717 
         1.3824        0.420884        0.409549 
        1.39811        0.407307        0.398751 
        1.41389        0.397577        0.388301 
        1.42964        0.388776        0.378245 
        1.44531        0.375054        0.368595 
        1.46101        0.368149        0.359262 
        1.47667        0.354561        0.350281 
        1.49229        0.349201        0.341632 
        1.50793        0.338326        0.333266 
        1.52367        0.331514        0.325127 
        1.53953        0.322848        0.317205 
        1.55526        0.315603        0.309612 
        1.57092        0.305957        0.302299 
        1.58662        0.300301        0.295206 
        1.60235         0.29398        0.288326 
        1.61809        0.284036        0.281664 
        1.63369        0.281606        0.275271 
        1.64941        0.273239        0.269032 
        1.66519        0.266326        0.262963 
        1.68085        0.259338        0.257126 
        1.69652         0.25379        0.251464 
        1.71228        0.249522        0.245941 
        1.72806        0.241777         0.24058 
        1.74368        0.238738        0.235433 
        1.75933        0.232531        0.230427 
        1.77505         0.22725        0.225542 
        1.79081        0.223307        0.220792 
         1.8065        0.216354        0.216198 
        1.82218        0.213138         0.21174 
        1.83797        0.207937        0.207377 
        1.85367        0.204622        0.203161 
        1.86928        0.200341        0.199088 
        1.88497         0.19627        0.195104 
        1.90073        0.191616        0.191215 
        1.91647        0.187968        0.187436 
        1.93218         0.18358        0.183767 
        1.94787        0.179977        0.180201 
        1.96363        0.176655        0.176717 
        1.97935        0.172241        0.173332 
        1.99499         0.16959        0.170054 
        2.01064        0.166414        0.166857 
         2.0264        0.162459        0.163722 
        2.04216        0.160561         0.16067 
        2.05781        0.156917        0.157714 
        2.07353        0.152913        0.154822 
        2.08928        0.150136        0.151997 
        2.10499        0.147431         0.14925 
        2.12065        0.145481        0.146579 
        2.13633        0.142073        0.143971 
        2.15211        0.140242         0.14141 
        2.16785        0.137033        0.138918 
        2.18349        0.133666        0.136503 
        2.19916        0.132641        0.134139 
        2.21489         0.12979        0.131824 
        2.23063        0.127708        0.129562 
         2.2463        0.125021        0.127363 
        2.26194        0.122508        0.125221 
        2.27765        0.120362        0.123117 
        2.29341         0.11867        0.121056 
        2.30914        0.116154        0.119046 
        2.32486        0.114103        0.117084 
        2.34061         0.11235        0.115162 
        2.35635        0.110168        0.113285 
        2.37203          0.1083        0.111456 
        2.38768        0.106471        0.109672 
        2.40339        0.104741        0.107921 
        2.41914        0.103328        0.106203 
        2.43483        0.101172        0.104529 
         2.4505       0.0990475        0.102894 
        2.46622       0.0975126        0.101288 
        2.48195       0.0957991       0.0997168 
        2.49759       0.0949813        0.098187 
        2.51328       0.0933892       0.0966854 
        2.52906       0.0915752       0.0952057 
        2.54479       0.0898344       0.0937625 
        2.56049       0.0884177        0.092352 
        2.57618       0.0870116       0.0909718 
        2.59189       0.0858074       0.0896177 
        2.60758       0.0847652       0.0882933 
        2.62325       0.0830413       0.0869973 
        2.63898       0.0818378       0.0857228 
        2.65468         0.08016       0.0844766 
        2.67044       0.0794219       0.0832498 
        2.68618       0.0781221       0.0820502 
        2.70184       0.0766692        0.080879 
        2.71755       0.0752732       0.0797278 
        2.73329       0.0744751       0.0785972 
        2.74897       0.0735715       0.0774923 
        2.76462        0.072093        0.076411 
        2.78034       0.0711611       0.0753459 
        2.79607         0.06986       0.0743001 
        2.81179       0.0692064       0.0732752 
        2.82749        0.067926       0.0722709 
        2.84321       0.0669439       0.0712842 
        2.85893       0.0661398       0.0703163 
        2.87462       0.0653857        0.069368 
        2.89033       0.0642373       0.0684364 
        2.90605       0.0630111        0.067521 
        2.92176        0.062405       0.0666229 
        2.93747       0.0613885       0.0657415 
        2.95318       0.0604301       0.0648759 
        2.96891       0.0596658       0.0640255 
        2.98456       0.0589553       0.0631941 
        3.00023         0.05799       0.0623763 
        3.01596       0.0572213       0.0615704 
        3.03164       0.0567011       0.0607811 
        3.04738       0.0556623       0.0600032 
         3.0631       0.0548208       0.0592393 
        3.07883       0.0541073       0.0584886 
        3.09456       0.0535224        0.057751 
        3.11026       0.0526611       0.0570273 
        3.12596       0.0521465       0.0563161 
        3.14163       0.0512974       0.0556187 
        3.15734       0.0507744       0.0549314 
        3.17308       0.0501327       0.0542541 
        3.18879       0.0493828       0.0535901 
        3.20447       0.0488231       0.0529381 
         3.2202       0.0483052        0.052295 
         3.2359       0.0476637       0.0516637 
        3.25157       0.0469224       0.0510443 
        3.26729       0.0463126       0.0504332 
        3.28304       0.0459408       0.0498309 
        3.29877       0.0452785       0.0492392 
        3.31446        0.044692       0.0486585 
        3.33014        0.044337       0.0480876 
        3.34585       0.0436935        0.047525 
        3.36158       0.0431085       0.0469705 
        3.37727       0.0426831       0.0464266 
        3.39294       0.0422287       0.0458919 
        3.40867       0.0416558       0.0453636 
        3.42439       0.0411938       0.0448439 
        3.44008       0.0406585       0.0443334 
        3.45578       0.0403936       0.0438305 
        3.47153       0.0397968       0.0433342 
        3.48724       0.0395219       0.0428465 
        3.50292       0.0389289       0.0423675 
        3.51859        0.038434        0.041896 
        3.53431       0.0381843       0.0414302 
        3.55007       0.0377409       0.0409703 
        3.56577       0.0373788       0.0405193 
        3.58146       0.0369607       0.0400752 
        3.59719       0.0366424       0.0396367 
        3.61292        0.036168        0.039205 
        3.62859       0.0357546       0.0387813 
        3.64429       0.0355058       0.0383631 
        3.66003       0.0350364       0.0379497 
        3.67578       0.0347183       0.0375426 
        3.69146       0.0343868        0.037143 
        3.70712       0.0341961       0.0367499 
        3.72284       0.0338287       0.0363611 
        3.73853       0.0334079       0.0359785 
        3.75422        0.033265       0.0356014 
        3.76993       0.0327387       0.0352293 
        3.78564       0.0325406       0.0348626 
        3.80137       0.0321512       0.0345006 
        3.81707        0.031842       0.0341445 
        3.83279       0.0316824       0.0337931 
        3.84853       0.0313809       0.0334461 
        3.86424       0.0310781       0.0331047 
        3.87992       0.0307824       0.0327685 
        3.89561       0.0305189        0.032437 
        3.91134       0.0302646       0.0321093 
        3.92704       0.0299633       0.0317866 
        3.94273       0.0296817       0.0314686 
        3.95845       0.0294399       0.0311544 
        3.97418       0.0291876       0.0308445 
        3.98988       0.0288804       0.0305391 
        4.00554       0.0285929       0.0302387 
        4.02125       0.0282086       0.0299415 
        4.03698       0.0277938       0.0296479 
        4.05268       0.0274983       0.0293588 
        4.06839       0.0270637       0.0290734 
         4.0841       0.0266642       0.0287918 
        4.09983       0.0262442       0.0285136 
        4.11555       0.0259599       0.0282392 
        4.13124       0.0255952       0.0279691 
        4.14693       0.0251538       0.0277023 
        4.16266       0.0248708       0.0274384 
        4.17839       0.0246164       0.0271781 
        4.19408       0.0242684       0.0269218 
        4.20977       0.0239631       0.0266686 
        4.22551       0.0236044       0.0264181 
        4.24123       0.0233602       0.0261711 
        4.25691       0.0230874       0.0259279 
        4.27259       0.0227994       0.0256877 
        4.28831       0.0226343       0.0254501 
        4.30404       0.0223764       0.0252153 
        4.31974       0.0221799       0.0249839 
        4.33543       0.0219901       0.0247555 
        4.35116       0.0217638       0.0245295 
        4.36688       0.0215942       0.0243064 
        4.38255       0.0213499       0.0240868 
        4.39825       0.0212546       0.0238695 
        4.41398       0.0211571       0.0236545 
         4.4297       0.0210067       0.0234423 
        4.44541       0.0208138       0.0232328 
        4.46111       0.0206831        0.023026 
        4.47683       0.0206364       0.0228215 
        4.49251       0.0204509         0.02262 
        4.50819        0.020389       0.0224209 
         4.5239       0.0202642        0.022224 
        4.53962       0.0202573       0.0220292 
        4.55535       0.0202043       0.0218366 
        4.57106       0.0201754       0.0216465 
        4.58678       0.0200318       0.0214587 
         4.6025       0.0200561       0.0212731 
        4.61821       0.0200518       0.0210897 
        4.63391       0.0200242       0.0209088 
         4.6496       0.0199851         0.02073 
        4.66532       0.0200231        0.020553 
        4.68103       0.0200335       0.0203781 
        4.69673       0.0200336       0.0202055 
        4.71241       0.0201284        0.020035 
        4.72811       0.0200689       0.0198662 
        4.74384       0.0201499       0.0196992 
        4.75955       0.0202322       0.0195343 
        4.77525       0.0202972       0.0193714 
        4.79096       0.0203356       0.0192102 
        4.80669       0.0204428       0.0190507 
         4.8224         0.02059       0.0188932 
        4.83809       0.0207315       0.0187376 
        4.85379       0.0208251       0.0185837 
         4.8695       0.0209372       0.0184314 
        4.88521       0.0210434       0.0182809 
        4.90093       0.0212829        0.018132 
        4.91663       0.0214384        0.017985 
        4.93234       0.0215373       0.0178393 
        4.94807       0.0216341       0.0176953 
        4.96377       0.0219617        0.017553 
        4.97943       0.0221758       0.0174127 
        4.99514       0.0223007       0.0172735 
        5.01086       0.0225651       0.0171357 
        5.02654       0.0227454       0.0169998 
        5.04227       0.0230967       0.0168649 
          5.058       0.0232872       0.0167314 
        5.07371       0.0234261       0.0165997 
        5.08942        0.023919       0.0164693 
        5.10513       0.0242637       0.0163404 
        5.12084       0.0243981       0.0162127 
        5.13656       0.0247929       0.0160865 
        5.15225        0.025143       0.0159618 
        5.16796       0.0254858       0.0158382 
        5.18369       0.0257216       0.0157158 
         5.1994       0.0261791       0.0155949 
        5.21509       0.0265437       0.0154754 
        5.23079        0.026904        0.015357 
        5.24649       0.0273166         0.01524 
        5.26217       0.0277703       0.0151242 
        5.27788       0.0282006       0.0150095 
        5.29359       0.0287496        0.014896 
        5.30933       0.0290339       0.0147834 
        5.32504         0.02957       0.0146722 
        5.34073       0.0301483       0.0145623 
        5.35646       0.0305867       0.0144533 
        5.37218       0.0311304       0.0143454 
        5.38789       0.0318868       0.0142387 
        5.40357       0.0323279       0.0141333 
        5.41929       0.0329172       0.0140287 
        5.43502       0.0334427       0.0139251 
         5.4507       0.0340739       0.0138229 
        5.46639       0.0347927       0.0137216 
        5.48212       0.0354268       0.0136211 
        5.49786       0.0361497       0.0135215 
        5.51353       0.0369841       0.0134234 
        5.52921       0.0376194       0.0133262 
        5.54495       0.0385165       0.0132296 
        5.56066       0.0392091       0.0131341 
        5.57637       0.0398866       0.0130396 
        5.59207       0.0408193       0.0129461 
        5.60778       0.0417279       0.0128534 
        5.62346       0.0426835       0.0127618 
        5.63916       0.0434212        0.012671 
        5.65487       0.0441919        0.012581 
         5.6706       0.0451661       0.0124918 
        5.68633       0.0464538       0.0124035 
        5.70203       0.0471759       0.0123161 
        5.71773        0.048361       0.0122297 
        5.73344       0.0493158        0.012144 
        5.74916       0.0507496        0.012059 
        5.76486       0.0516802        0.011975 
        5.78054       0.0528071       0.0118919 
        5.79626       0.0539358       0.0118093 
          5.812       0.0553121       0.0117275 
         5.8277       0.0564472       0.0116467 
        5.84339       0.0576283       0.0115666 
        5.85911       0.0590504       0.0114871 
        5.87484       0.0604672       0.0114084 
        5.89053        0.061888       0.0113306 
        5.90623       0.0636616       0.0112535 
        5.92195       0.0649785        0.011177 
        5.93767       0.0665854       0.0111012 
        5.95336       0.0679829       0.0110262 
        5.96905       0.0701025        0.010952 
        5.98476       0.0713422       0.0108783 
        6.00048       0.0728004       0.0108053 
        6.01617       0.0749036       0.0107331 
        6.03185       0.0766323       0.0106616 
        6.04756       0.0787425       0.0105906 
        6.06331       0.0805853         0.01052 
        6.07903       0.0823493       0.0104503 
        6.09473       0.0846349       0.0103813 
        6.11044       0.0870903       0.0103128 
        6.12616        0.089132        0.010245 
        6.14186       0.0915823       0.0101778 
        6.15755       0.0936743       0.0101112 
        6.17326       0.0958225       0.0100452 
        6.18898       0.0986295      0.00997975 
        6.20467        0.101039      0.00991499 
        6.22036        0.103215       0.0098508 
         6.2361        0.105823      0.00978702 
         6.2518         0.10871       0.0097239 
        6.26748         0.11113      0.00966148 
        6.28319        0.115151      0.00959943 
        6.29893        0.117614      0.00953787 
        6.31463        0.120654      0.00947696 
        6.33033        0.123306       0.0094166 
        6.34604        0.126951      0.00935672 
        6.36177        0.129341       0.0092973 
        6.37747        0.134144      0.00923851 
