# k  (h/Mpc)    Pcb(k)  (Mpc/h)^3    Pcb_linear(k) (Mpc/h)^3   ShotnoiseSubtracted = true
      0.0200456         21296.8         21799.4 
      0.0350414         15126.2         15847.5 
      0.0492313         11273.9         11514.5 
      0.0637834         9757.95         9571.87 
      0.0800726         7699.62         7596.96 
       0.096163         5337.79         5512.25 
       0.111083         4289.95         4396.71 
       0.126058         3950.71         3896.38 
       0.142273         3421.21         3301.09 
       0.158546         2991.76         2607.17 
        0.17375         2393.32         2196.54 
       0.188953         2340.16         1988.92 
       0.204907         2199.08         1759.79 
       0.220756         1905.56         1488.89 
        0.23588          1702.6          1295.2 
         0.2514         1482.22         1176.68 
       0.267535         1481.92         1064.69 
       0.283568         1343.66         938.915 
       0.299022         1270.88         836.524 
       0.314451         1211.42         764.527 
       0.330372         1111.84         701.367 
       0.346141         1062.22         636.598 
       0.361624         1020.86          578.58 
       0.377134         950.361         532.385 
       0.392932         912.584         492.605 
       0.408854         894.675         454.087 
       0.424564         828.057         418.539 
       0.440253         813.728         388.034 
       0.455999         783.368         361.509 
       0.471626         754.219         337.132 
        0.48727         723.184          314.33 
       0.502856         703.183         293.845 
       0.518488         695.903         275.567 
       0.534347         652.115         258.575 
       0.550082         635.036         242.908 
       0.565732         632.499         228.574 
       0.581496         597.014         215.447 
       0.597222         585.858         203.407 
       0.612804         574.468         192.336 
       0.628434         557.909         182.018 
       0.644267         543.385          172.37 
       0.660051         526.857         163.479 
       0.675724         521.888         155.269 
       0.691403         504.422         147.616 
       0.707174         487.895         140.435 
       0.722871         482.288         133.761 
        0.73838         473.578         127.592 
       0.754018         462.559         121.765 
       0.769845         453.815         116.239 
        0.78569          446.07         111.051 
       0.801365         434.658         106.232 
       0.817031         422.197         101.703 
       0.832809         419.069         97.4102 
       0.848511          409.62         93.3859 
       0.864097         397.827         89.6177 
       0.879701         392.631         86.0548 
       0.895507         389.642         82.6445 
       0.911279          377.84         79.4269 
        0.92691         372.851         76.4081 
       0.942635         363.908         73.5302 
       0.958396         355.071         70.7951 
       0.974128         349.606         68.2048 
       0.989692         346.985         65.7701 
        1.00528         337.924         63.4512 
        1.02113         336.239         61.2083 
        1.03692         326.362         59.0825 
        1.05264         324.492         57.0678 
        1.06832         315.637         55.1506 
        1.08405         311.342         53.3168 
        1.09979         305.735         51.5656 
        1.11537         300.403         49.9106 
        1.13105         295.035         48.3188 
        1.14679         288.648         46.7905 
        1.16256         283.412         45.3255 
        1.17828         282.106         43.9284 
        1.19395         274.944          42.595 
         1.2097         272.058         41.3105 
        1.22537         266.068         40.0852 
          1.241         264.364         38.9136 
        1.25666          259.06          37.786 
        1.27241         255.541          36.698 
        1.28819         251.713         35.6511 
        1.30392         245.685         34.6482 
        1.31957          245.74         33.6885 
        1.33529         240.481         32.7618 
        1.35108         235.089         31.8663 
        1.36674         232.508         31.0109 
         1.3824         231.109         30.1877 
        1.39811         227.249         29.3917 
        1.41389         224.106         28.6215 
        1.42964         221.654         27.8803 
        1.44531         218.175          27.169 
        1.46101         214.711          26.481 
        1.47667         211.682          25.819 
        1.49229         209.713         25.1815 
        1.50793         204.628         24.5649 
        1.52367         203.283         23.9649 
        1.53953         200.281         23.3811 
        1.55526         195.664         22.8213 
        1.57092         194.614         22.2823 
        1.58662         192.257         21.7595 
        1.60235         188.716         21.2524 
        1.61809         187.264         20.7613 
        1.63369         183.898         20.2901 
        1.64941          180.17         19.8302 
        1.66519         179.332         19.3829 
        1.68085          176.68         18.9526 
        1.69652         173.998         18.5353 
        1.71228          170.47         18.1282 
        1.72806         168.919         17.7331 
        1.74368         166.643         17.3537 
        1.75933         163.683         16.9846 
        1.77505         162.601         16.6246 
        1.79081         160.981         16.2744 
         1.8065         158.321         15.9359 
        1.82218         156.296         15.6072 
        1.83797         154.925         15.2856 
        1.85367         152.434         14.9749 
        1.86928         149.821         14.6746 
        1.88497         148.081          14.381 
        1.90073         146.799         14.0944 
        1.91647         144.911         13.8158 
        1.93218         143.246         13.5454 
        1.94787         140.636         13.2826 
        1.96363         138.616         13.0257 
        1.97935         137.723         12.7762 
        1.99499         135.189         12.5346 
        2.01064         133.952          12.299 
         2.0264         132.207         12.0679 
        2.04216         130.492         11.8429 
        2.05781         129.318          11.625 
        2.07353         127.879         11.4119 
        2.08928         125.394         11.2036 
        2.10499         124.321         11.0011 
        2.12065         122.177         10.8043 
        2.13633         121.507          10.612 
        2.15211         118.949         10.4233 
        2.16785         117.558         10.2396 
        2.18349         116.654         10.0615 
        2.19916          115.21         9.88732 
        2.21489         113.835         9.71667 
        2.23063           111.8         9.54993 
         2.2463         110.775         9.38786 
        2.26194         109.016         9.22995 
        2.27765         108.111         9.07488 
        2.29341         106.859         8.92296 
        2.30914         105.795         8.77484 
        2.32486         104.333         8.63017 
        2.34061         103.128         8.48852 
        2.35635         101.854         8.35018 
        2.37203         100.515          8.2154 
        2.38768         99.3641         8.08388 
        2.40339         98.3286         7.95477 
        2.41914         97.0013         7.82817 
        2.43483         96.0839         7.70478 
         2.4505         94.9323         7.58426 
        2.46622         93.8386         7.46591 
        2.48195          92.574         7.35007 
        2.49759         91.2268         7.23732 
        2.51328           90.96         7.12663 
        2.52906           89.28         7.01756 
        2.54479         88.4228         6.91118 
        2.56049         87.4018         6.80722 
        2.57618         86.3546         6.70548 
        2.59189         85.4222         6.60568 
        2.60758         84.5945         6.50806 
        2.62325         83.4842         6.41253 
        2.63898         82.2438         6.31859 
        2.65468         81.4556         6.22673 
        2.67044         80.6745          6.1363 
        2.68618         79.6911         6.04788 
        2.70184         79.2906         5.96155 
        2.71755         78.0148          5.8767 
        2.73329         77.2954         5.79336 
        2.74897         76.3767         5.71192 
        2.76462         75.3122         5.63222 
        2.78034         74.7797         5.55371 
        2.79607         73.3727         5.47662 
        2.81179         72.7169         5.40108 
        2.82749         71.9142         5.32705 
        2.84321         71.4181         5.25433 
        2.85893          70.588         5.18298 
        2.87462         69.5962         5.11308 
        2.89033         68.7516         5.04441 
        2.90605         68.1146         4.97694 
        2.92176           67.32         4.91074 
        2.93747         66.9091         4.84577 
        2.95318         65.9335         4.78197 
        2.96891         65.5213         4.71929 
        2.98456         64.8319         4.65801 
        3.00023         63.8352         4.59773 
        3.01596         63.3223         4.53832 
        3.03164          62.458         4.48014 
        3.04738         61.9986         4.42281 
         3.0631         61.2869          4.3665 
        3.07883         60.7145         4.31117 
        3.09456         60.0461          4.2568 
        3.11026          59.293         4.20346 
        3.12596          58.672         4.15103 
        3.14163         58.1722         4.09963 
        3.15734         57.5904         4.04897 
        3.17308          56.781         3.99904 
        3.18879          56.515          3.9501 
        3.20447         55.6016         3.90204 
         3.2202         55.3035         3.85464 
         3.2359         54.5692          3.8081 
        3.25157         54.0146         3.76245 
        3.26729         53.6005         3.71741 
        3.28304         53.1455         3.67301 
        3.29877         52.5093          3.6294 
        3.31446         51.7017         3.58659 
        3.33014         51.4401         3.54451 
        3.34585         50.9165         3.50304 
        3.36158         50.4186         3.46217 
        3.37727         50.0131         3.42208 
        3.39294         49.5144         3.38267 
        3.40867         48.9368         3.34373 
        3.42439          48.454         3.30543 
        3.44008         48.0334          3.2678 
        3.45578         47.4483         3.23072 
        3.47153         47.0476         3.19415 
        3.48724         46.5085          3.1582 
        3.50292         46.2672         3.12289 
        3.51859         45.7017         3.08813 
        3.53431         45.3549          3.0538 
        3.55007         44.7326          3.0199 
        3.56577          44.493         2.98665 
        3.58146         43.9129         2.95392 
        3.59719         43.5986          2.9216 
        3.61292         43.0244         2.88978 
        3.62859         42.7254         2.85855 
        3.64429         42.3379         2.82772 
        3.66003         41.9598         2.79725 
        3.67578         41.4227         2.76725 
        3.69146         41.1375         2.73779 
        3.70712         40.7054         2.70882 
        3.72284         40.2509         2.68016 
        3.73853          39.953         2.65196 
        3.75422         39.4086         2.62416 
        3.76993         39.2188         2.59673 
        3.78564         38.8296         2.56971 
        3.80137         38.4771         2.54302 
        3.81707         38.1435         2.51678 
        3.83279          37.892         2.49088 
        3.84853         37.4504          2.4653 
        3.86424         37.0819         2.44013 
        3.87992         36.8696         2.41535 
        3.89561         36.4774         2.39091 
        3.91134          36.024         2.36676 
        3.92704         35.8647         2.34298 
        3.94273         35.4075         2.31954 
        3.95845         35.2676         2.29638 
        3.97418         34.8808         2.27353 
        3.98988         34.5961         2.25102 
        4.00554         34.2508         2.22888 
        4.02125         33.9317         2.20698 
        4.03698         33.6113         2.18533 
        4.05268         33.3426         2.16402 
        4.06839          33.003         2.14298 
         4.0841         32.7053         2.12223 
        4.09983         32.4501         2.10172 
        4.11555         32.1591          2.0815 
        4.13124         31.9345         2.06159 
        4.14693         31.5748         2.04193 
        4.16266         31.3326         2.02247 
        4.17839         30.9819         2.00329 
        4.19408         30.7712         1.98439 
        4.20977         30.4664         1.96573 
        4.22551         30.1712         1.94727 
        4.24123         30.0584         1.92906 
        4.25691         29.7832         1.91113 
        4.27259         29.4846         1.89343 
        4.28831         29.1972         1.87591 
        4.30404         29.0459          1.8586 
        4.31974         28.6802         1.84155 
        4.33543          28.447         1.82472 
        4.35116         28.3123         1.80806 
        4.36688         28.0057         1.79161 
        4.38255         27.7525         1.77543 
        4.39825         27.4977         1.75941 
        4.41398         27.3386         1.74356 
         4.4297         27.0582         1.72792 
        4.44541          26.814         1.71248 
        4.46111         26.6042         1.69723 
        4.47683         26.4451         1.68217 
        4.49251         26.1538         1.66731 
        4.50819          25.999         1.65264 
         4.5239         25.7604         1.63812 
        4.53962         25.5439         1.62376 
        4.55535         25.3633         1.60956 
        4.57106         25.0954         1.59556 
        4.58678           24.92         1.58171 
         4.6025           24.68         1.56803 
        4.61821         24.5252         1.55451 
        4.63391         24.3206         1.54117 
         4.6496         24.1198         1.52799 
        4.66532         23.9395         1.51495 
        4.68103         23.7183         1.50206 
        4.69673         23.5578         1.48934 
        4.71241          23.398         1.47677 
        4.72811         23.1549         1.46433 
        4.74384         22.9893         1.45202 
        4.75955         22.8547         1.43986 
        4.77525         22.5992         1.42786 
        4.79096         22.4572         1.41597 
        4.80669         22.2776         1.40422 
         4.8224         22.1231         1.39261 
        4.83809         21.9165         1.38114 
        4.85379         21.6855          1.3698 
         4.8695         21.5925         1.35857 
        4.88521         21.4026         1.34748 
        4.90093         21.1612          1.3365 
        4.91663          21.029         1.32566 
        4.93234         20.9164         1.31493 
        4.94807         20.6587         1.30431 
        4.96377         20.5652         1.29382 
        4.97943         20.4473         1.28348 
        4.99514         20.2254         1.27322 
        5.01086         20.1106         1.26306 
        5.02654         19.8993         1.25304 
        5.04227         19.8161          1.2431 
          5.058         19.6013         1.23327 
        5.07371         19.4601         1.22356 
        5.08942         19.2836         1.21395 
        5.10513         19.1896         1.20444 
        5.12084         19.0291         1.19503 
        5.13656          18.821         1.18573 
        5.15225         18.7476         1.17653 
        5.16796         18.6272         1.16742 
        5.18369         18.4279          1.1584 
         5.1994         18.3608         1.14949 
        5.21509         18.1208         1.14069 
        5.23079         18.0566         1.13196 
        5.24649         17.9055         1.12333 
        5.26217         17.7961          1.1148 
        5.27788         17.6283         1.10634 
        5.29359         17.4963         1.09797 
        5.30933         17.3346         1.08968 
        5.32504         17.2326         1.08148 
        5.34073         17.0988         1.07338 
        5.35646         16.9873         1.06535 
        5.37218         16.8477         1.05739 
        5.38789         16.7187         1.04953 
        5.40357         16.5867         1.04176 
        5.41929         16.5021         1.03405 
        5.43502         16.3656         1.02641 
         5.4507         16.2578         1.01888 
        5.46639          16.133         1.01141 
        5.48212         16.0085         1.00401 
        5.49786         15.8624        0.996665 
        5.51353         15.7683        0.989433 
        5.52921         15.6765        0.982266 
        5.54495         15.5777        0.975149 
        5.56066         15.4379         0.96811 
        5.57637         15.3345        0.961142 
        5.59207         15.1977        0.954248 
        5.60778         15.1183        0.947419 
        5.62346           15.03        0.940667 
        5.63916         14.9062        0.933973 
        5.65487         14.7779        0.927342 
         5.6706         14.6714        0.920767 
        5.68633         14.5722        0.914253 
        5.70203         14.4828        0.907816 
        5.71773          14.393        0.901442 
        5.73344         14.2585        0.895125 
        5.74916         14.1869        0.888863 
        5.76486         14.0922         0.88267 
        5.78054         13.9827        0.876545 
        5.79626         13.8871        0.870461 
          5.812         13.7738        0.864428 
         5.8277         13.6773        0.858471 
        5.84339         13.5724        0.852569 
        5.85911         13.4868        0.846712 
        5.87484         13.3763         0.84091 
        5.89053         13.3091        0.835175 
        5.90623         13.2198         0.82949 
        5.92195         13.1153        0.823848 
        5.93767         13.0161        0.818262 
        5.95336         12.9195        0.812737 
        5.96905         12.8613        0.807264 
        5.98476         12.7398        0.801835 
        6.00048         12.6735        0.796453 
        6.01617         12.5881        0.791129 
        6.03185         12.5016        0.785859 
        6.04756         12.4151        0.780624 
        6.06331         12.3259        0.775426 
        6.07903         12.2474        0.770287 
        6.09473         12.1443        0.765198 
        6.11044         12.0849        0.760151 
        6.12616         11.9955         0.75515 
        6.14186         11.9263          0.7502 
        6.15755         11.8227        0.745293 
        6.17326         11.7486        0.740427 
        6.18898         11.6885        0.735602 
        6.20467         11.6179        0.730829 
        6.22036         11.5067        0.726098 
         6.2361         11.4496        0.721396 
         6.2518          11.387        0.716744 
        6.26748         11.3127        0.712143 
        6.28319         11.2274        0.707569 
        6.29893         11.1417        0.703032 
        6.31463         11.0589        0.698542 
        6.33033         10.9944        0.694093 
        6.34604         10.9544        0.689679 
        6.36177           10.84          0.6853 
        6.37747         10.7819        0.680966 
