# k  (h/Mpc)    Pcb(k)  (Mpc/h)^3    Pcb_linear(k) (Mpc/h)^3   ShotnoiseSubtracted = true
      0.0200456         4545.35         4605.76 
      0.0350414         3413.72         3348.23 
      0.0492313         2430.95         2432.76 
      0.0637834          1979.8         2022.33 
      0.0800726         1564.62         1605.08 
       0.096163         1194.77         1164.62 
       0.111083         965.024         928.932 
       0.126058         817.892         823.223 
       0.142273         695.669         697.451 
       0.158546         565.832          550.84 
        0.17375         487.559         464.082 
       0.188953         442.329         420.216 
       0.204907         376.725         371.806 
       0.220756         334.053          314.57 
        0.23588         293.515         273.649 
         0.2514         264.284         248.607 
       0.267535         249.197         224.947 
       0.283568         217.759         198.373 
       0.299022         202.372          176.74 
       0.314451          194.15         161.528 
       0.330372         170.555         148.184 
       0.346141         156.986           134.5 
       0.361624         146.382         122.242 
       0.377134          133.76         112.482 
       0.392932         130.033         104.077 
       0.408854         121.114          95.939 
       0.424564         115.414         88.4283 
       0.440253         104.912         81.9833 
       0.455999          97.007         76.3791 
       0.471626         93.0658         71.2289 
        0.48727         90.2864         66.4112 
       0.502856         83.2198         62.0832 
       0.518488         80.0288         58.2215 
       0.534347          75.468         54.6314 
       0.550082          73.004         51.3212 
       0.565732         70.7336         48.2929 
       0.581496          65.569         45.5193 
       0.597222         63.1399         42.9756 
       0.612804         60.8605         40.6366 
       0.628434         59.5425         38.4564 
       0.644267         56.3047         36.4182 
       0.660051         54.0828         34.5397 
       0.675724          52.196          32.805 
       0.691403         51.3033         31.1881 
       0.707174         49.4887          29.671 
       0.722871         47.9986         28.2608 
        0.73838         45.8931         26.9574 
       0.754018         43.5335         25.7264 
       0.769845         42.9331         24.5588 
        0.78569         41.3894         23.4628 
       0.801365         40.2595         22.4445 
       0.817031         38.7055         21.4876 
       0.832809         38.0315         20.5807 
       0.848511         36.8426         19.7304 
       0.864097         35.9867         18.9343 
       0.879701         35.3072         18.1815 
       0.895507         34.0058          17.461 
       0.911279         33.0328         16.7812 
        0.92691         32.4001         16.1434 
       0.942635          31.718         15.5354 
       0.958396         31.1098         14.9575 
       0.974128         30.2561         14.4102 
       0.989692         29.1352         13.8958 
        1.00528         28.8552         13.4059 
        1.02113         28.0771          12.932 
        1.03692         27.6037         12.4829 
        1.05264          27.013         12.0572 
        1.06832          26.522         11.6522 
        1.08405         25.7741         11.2647 
        1.09979         25.4886         10.8947 
        1.11537         24.6891         10.5451 
        1.13105         24.2935         10.2087 
        1.14679         23.7124         9.88583 
        1.16256         23.3846         9.57632 
        1.17828         23.0297         9.28113 
        1.19395         22.5967         8.99942 
         1.2097         22.1497         8.72802 
        1.22537          21.748         8.46916 
          1.241         21.3294         8.22161 
        1.25666         21.0529         7.98338 
        1.27241         20.7139          7.7535 
        1.28819         19.9377         7.53232 
        1.30392         20.1642         7.32044 
        1.31957         19.6469         7.11767 
        1.33529         19.2712         6.92187 
        1.35108         19.0863         6.73268 
        1.36674         18.7394         6.55194 
         1.3824         18.3869         6.37801 
        1.39811         18.0309         6.20984 
        1.41389         17.8373         6.04711 
        1.42964         17.6277         5.89051 
        1.44531         17.3436         5.74022 
        1.46101         17.1108         5.59488 
        1.47667         16.8588         5.45502 
        1.49229         16.4905         5.32032 
        1.50793         16.3663         5.19003 
        1.52367         16.1618         5.06328 
        1.53953         15.9276         4.93992 
        1.55526         15.6263         4.82166 
        1.57092          15.599         4.70778 
        1.58662         15.3592         4.59731 
        1.60235         15.1056         4.49018 
        1.61809         14.9442         4.38642 
        1.63369         14.7123         4.28686 
        1.64941         14.5541          4.1897 
        1.66519         14.3449         4.09519 
        1.68085         14.0672         4.00429 
        1.69652         14.1055         3.91612 
        1.71228          13.822         3.83011 
        1.72806         13.6264         3.74662 
        1.74368         13.5048         3.66646 
        1.75933         13.3764         3.58849 
        1.77505         13.1905         3.51243 
        1.79081         13.0424         3.43844 
         1.8065         12.9455         3.36691 
        1.82218         12.8283         3.29747 
        1.83797          12.685         3.22953 
        1.85367         12.5652         3.16387 
        1.86928         12.4024         3.10044 
        1.88497         12.2733         3.03841 
        1.90073         12.0967         2.97784 
        1.91647         11.8378         2.91898 
        1.93218         11.8578         2.86185 
        1.94787         11.6339         2.80632 
        1.96363         11.5881         2.75206 
        1.97935         11.4571         2.69934 
        1.99499         11.3159          2.6483 
        2.01064         11.2069         2.59851 
         2.0264         11.0445         2.54969 
        2.04216         11.0768         2.50215 
        2.05781         10.9356         2.45612 
        2.07353         10.8006         2.41109 
        2.08928         10.6598         2.36709 
        2.10499         10.5475         2.32431 
        2.12065         10.4855         2.28271 
        2.13633         10.3539          2.2421 
        2.15211         10.2698         2.20221 
        2.16785          10.134         2.16341 
        2.18349         10.0521         2.12579 
        2.19916         9.95727         2.08898 
        2.21489         9.87718         2.05293 
        2.23063         9.83097          2.0177 
         2.2463          9.6526         1.98345 
        2.26194          9.5872         1.95009 
        2.27765         9.48262         1.91733 
        2.29341         9.36337         1.88523 
        2.30914         9.34659         1.85394 
        2.32486         9.24932         1.82337 
        2.34061         9.18725         1.79344 
        2.35635         9.08185         1.76422 
        2.37203         8.97366         1.73574 
        2.38768         8.88693         1.70795 
        2.40339         8.84912         1.68067 
        2.41914         8.74546         1.65393 
        2.43483         8.71417         1.62786 
         2.4505         8.62628         1.60239 
        2.46622         8.52071         1.57739 
        2.48195         8.51066         1.55291 
        2.49759         8.35519         1.52909 
        2.51328         8.33357         1.50571 
        2.52906         8.23926         1.48266 
        2.54479         8.16254         1.46019 
        2.56049         8.09036         1.43822 
        2.57618         8.04786         1.41673 
        2.59189         8.04952         1.39564 
        2.60758          7.9122         1.37501 
        2.62325         7.84216         1.35483 
        2.63898         7.84554         1.33498 
        2.65468         7.72434         1.31558 
        2.67044         7.68249         1.29647 
        2.68618         7.59174         1.27779 
        2.70184         7.57025         1.25955 
        2.71755         7.48673         1.24162 
        2.73329         7.39584         1.22401 
        2.74897         7.36047         1.20681 
        2.76462         7.33411         1.18997 
        2.78034         7.25216         1.17338 
        2.79607         7.22375         1.15709 
        2.81179         7.14014         1.14113 
        2.82749         7.07809         1.12549 
        2.84321         7.03717         1.11013 
        2.85893         6.99452         1.09505 
        2.87462         6.94219         1.08029 
        2.89033         6.86564         1.06578 
        2.90605         6.83723         1.05152 
        2.92176         6.76766         1.03753 
        2.93747         6.71705         1.02381 
        2.95318           6.659         1.01033 
        2.96891         6.60831        0.997086 
        2.98456         6.56603        0.984138 
        3.00023         6.53507        0.971402 
        3.01596         6.43862        0.958852 
        3.03164          6.4222        0.946559 
        3.04738         6.37424        0.934445 
         3.0631         6.32785        0.922548 
        3.07883         6.28109        0.910858 
        3.09456         6.20467        0.899372 
        3.11026         6.18022        0.888101 
        3.12596         6.13072        0.877025 
        3.14163         6.10919        0.866164 
        3.15734         6.04792        0.855461 
        3.17308         6.03898        0.844913 
        3.18879         5.96658        0.834572 
        3.20447         5.92449        0.824419 
         3.2202         5.88008        0.814403 
         3.2359         5.83725        0.804572 
        3.25157         5.80317        0.794926 
        3.26729         5.76535        0.785409 
        3.28304         5.72319        0.776029 
        3.29877         5.69137        0.766815 
        3.31446         5.66552        0.757771 
        3.33014         5.59955         0.74888 
        3.34585         5.57058        0.740118 
        3.36158         5.52266        0.731484 
        3.37727         5.48842        0.723014 
        3.39294         5.45475        0.714686 
        3.40867         5.42532        0.706459 
        3.42439          5.3657        0.698366 
        3.44008         5.33836        0.690416 
        3.45578         5.30145        0.682583 
        3.47153         5.25722        0.674855 
        3.48724         5.22615         0.66726 
        3.50292         5.18574        0.659799 
        3.51859          5.1587        0.652457 
        3.53431          5.1245        0.645203 
        3.55007         5.09107        0.638041 
        3.56577         5.03744        0.631017 
        3.58146         5.01508        0.624101 
        3.59719         4.98759        0.617273 
        3.61292         4.95458        0.610549 
        3.62859         4.92506        0.603951 
        3.64429         4.89021        0.597437 
        3.66003          4.8609           0.591 
        3.67578         4.83719         0.58466 
        3.69146         4.79639        0.578437 
        3.70712          4.7762        0.572316 
        3.72284         4.74152         0.56626 
        3.73853           4.701        0.560303 
        3.75422         4.66552        0.554429 
        3.76993         4.65899        0.548634 
        3.78564         4.61463        0.542925 
        3.80137         4.58139        0.537287 
        3.81707         4.54673        0.531741 
        3.83279         4.52686        0.526269 
        3.84853         4.48176        0.520865 
        3.86424         4.46281        0.515548 
        3.87992           4.442        0.510312 
        3.89561         4.41558        0.505149 
        3.91134         4.37921        0.500047 
        3.92704         4.34483        0.495021 
        3.94273         4.32764        0.490069 
        3.95845         4.29283        0.485176 
        3.97418         4.26396        0.480349 
        3.98988         4.23961        0.475593 
        4.00554         4.21378        0.470915 
        4.02125         4.17429        0.466287 
        4.03698         4.15444        0.461714 
        4.05268         4.11914        0.457212 
        4.06839          4.0989        0.452767 
         4.0841         4.06674        0.448382 
        4.09983          4.0466         0.44405 
        4.11555         4.01507        0.439776 
        4.13124         3.99092         0.43557 
        4.14693         3.97398        0.431416 
        4.16266         3.94206        0.427306 
        4.17839         3.91831        0.423252 
        4.19408         3.89634         0.41926 
        4.20977          3.8684        0.415318 
        4.22551         3.83816        0.411416 
        4.24123         3.80581        0.407569 
        4.25691         3.78893        0.403782 
        4.27259         3.76444        0.400042 
        4.28831         3.73289        0.396341 
        4.30404         3.72224        0.392684 
        4.31974         3.68986         0.38908 
        4.33543         3.67021        0.385524 
        4.35116         3.65127        0.382004 
        4.36688         3.62893        0.378529 
        4.38255         3.61246         0.37511 
        4.39825         3.58595        0.371726 
        4.41398         3.56219        0.368377 
         4.4297         3.54606        0.365073 
        4.44541         3.52229         0.36181 
        4.46111         3.48718         0.35859 
        4.47683         3.47176        0.355406 
        4.49251         3.45183        0.352267 
        4.50819         3.43179        0.349167 
         4.5239         3.40519          0.3461 
        4.53962         3.37893        0.343066 
        4.55535         3.36884        0.340066 
        4.57106         3.34628        0.337107 
        4.58678         3.32338        0.334182 
         4.6025         3.31128        0.331292 
        4.61821          3.2863        0.328436 
        4.63391         3.26078        0.325617 
         4.6496         3.24383        0.322833 
        4.66532         3.22939        0.320077 
        4.68103         3.20772        0.317354 
        4.69673         3.19228        0.314665 
        4.71241         3.17213        0.312011 
        4.72811         3.15195        0.309382 
        4.74384         3.14141         0.30678 
        4.75955          3.1104        0.304213 
        4.77525         3.09585        0.301676 
        4.79096         3.08029        0.299165 
        4.80669         3.05776        0.296681 
         4.8224         3.04455        0.294228 
        4.83809         3.03227        0.291806 
        4.85379         3.01146        0.289409 
         4.8695         2.99225        0.287037 
        4.88521         2.96989        0.284693 
        4.90093         2.95997        0.282375 
        4.91663         2.94461        0.280084 
        4.93234          2.9255        0.277817 
        4.94807         2.90937        0.275573 
        4.96377         2.89448        0.273358 
        4.97943         2.88152        0.271172 
        4.99514         2.85851        0.269004 
        5.01086         2.84077        0.266858 
        5.02654           2.824        0.264741 
        5.04227         2.81409        0.262641 
          5.058         2.80224        0.260563 
        5.07371         2.78471        0.258511 
        5.08942         2.75906        0.256481 
        5.10513         2.74998        0.254473 
        5.12084         2.73248        0.252485 
        5.13656         2.72085        0.250519 
        5.15225         2.70316        0.248577 
        5.16796         2.69061        0.246652 
        5.18369         2.67042        0.244746 
         5.1994         2.65803        0.242864 
        5.21509         2.64501        0.241003 
        5.23079         2.63789        0.239159 
        5.24649         2.61568        0.237336 
        5.26217         2.59908        0.235534 
        5.27788         2.59063        0.233747 
        5.29359         2.58056        0.231979 
        5.30933         2.56646        0.230226 
        5.32504          2.5521        0.228495 
        5.34073         2.53479        0.226783 
        5.35646         2.51905        0.225085 
        5.37218         2.51122        0.223404 
        5.38789         2.49525        0.221743 
        5.40357         2.48415        0.220101 
        5.41929         2.47044        0.218472 
        5.43502         2.45942         0.21686 
         5.4507         2.43886        0.215267 
        5.46639         2.42591         0.21369 
        5.48212         2.41815        0.212125 
        5.49786         2.40413        0.210574 
        5.51353         2.39408        0.209046 
        5.52921         2.37812        0.207532 
        5.54495         2.36639        0.206028 
        5.56066         2.35547        0.204541 
        5.57637         2.34265        0.203069 
        5.59207         2.32944        0.201612 
        5.60778         2.32691         0.20017 
        5.62346         2.30528        0.198743 
        5.63916         2.29555        0.197329 
        5.65487         2.27942        0.195928 
         5.6706         2.27497        0.194538 
        5.68633         2.26092        0.193162 
        5.70203         2.24893        0.191802 
        5.71773         2.23672        0.190455 
        5.73344         2.22588        0.189121 
        5.74916         2.21482        0.187798 
        5.76486          2.2058        0.186489 
        5.78054          2.1921        0.185195 
        5.79626         2.18301         0.18391 
          5.812         2.16728        0.182635 
         5.8277           2.156        0.181377 
        5.84339         2.15192         0.18013 
        5.85911         2.13851        0.178892 
        5.87484         2.12988        0.177666 
        5.89053         2.11976        0.176455 
        5.90623         2.11019        0.175254 
        5.92195         2.09663        0.174062 
        5.93767          2.0905        0.172881 
        5.95336         2.07631        0.171714 
        5.96905         2.07041        0.170558 
        5.98476         2.05509        0.169411 
        6.00048          2.0448        0.168274 
        6.01617         2.03802        0.167149 
        6.03185         2.02743        0.166035 
        6.04756         2.02013        0.164929 
        6.06331         2.01183        0.163831 
        6.07903         1.99944        0.162745 
        6.09473         1.99015         0.16167 
        6.11044         1.98322        0.160604 
        6.12616         1.97345        0.159547 
        6.14186         1.96637        0.158501 
        6.15755         1.95188        0.157465 
        6.17326         1.94274        0.156437 
        6.18898         1.93742        0.155417 
        6.20467         1.92421        0.154409 
        6.22036         1.91634        0.153409 
         6.2361         1.90967        0.152416 
         6.2518          1.9014        0.151433 
        6.26748         1.89308        0.150461 
        6.28319         1.88484        0.149494 
        6.29893         1.87256        0.148536 
        6.31463         1.86484        0.147587 
        6.33033         1.85549        0.146647 
        6.34604           1.849        0.145715 
        6.36177         1.84323        0.144789 
        6.37747         1.83299        0.143874 
