# k  (h/Mpc)    Pcb(k)  (Mpc/h)^3    Pcb_linear(k) (Mpc/h)^3   ShotnoiseSubtracted = true
      0.0200456         15848.5         16103.1 
      0.0350414         12044.1         11706.4 
      0.0492313         8381.46         8505.65 
      0.0637834         6768.34         7070.67 
      0.0800726         5323.07         5611.82 
       0.096163         4221.26         4071.86 
       0.111083         3435.05         3247.82 
       0.126058         2849.66         2878.23 
       0.142273         2474.96          2438.5 
       0.158546         2033.15          1925.9 
        0.17375         1794.14         1622.57 
       0.188953         1678.99          1469.2 
       0.204907         1438.88         1299.94 
       0.220756         1294.16         1099.83 
        0.23588         1153.13         956.757 
         0.2514          1035.6         869.204 
       0.267535         1004.63          786.48 
       0.283568         884.128          693.57 
       0.299022         844.427         617.935 
       0.314451         867.376         564.751 
       0.330372         750.115         518.095 
       0.346141         692.481          470.25 
       0.361624         663.551         427.393 
       0.377134         628.791         393.269 
       0.392932         605.811         363.884 
       0.408854         577.532         335.431 
       0.424564         561.314         309.172 
       0.440253         512.523         286.638 
       0.455999         490.891         267.044 
       0.471626         498.192         249.037 
        0.48727         470.737         232.193 
       0.502856         438.756         217.061 
       0.518488         436.315         203.559 
       0.534347         409.163         191.008 
       0.550082         393.425         179.434 
       0.565732         390.663         168.846 
       0.581496         378.388         159.149 
       0.597222         367.572         150.255 
       0.612804         358.771         142.078 
       0.628434         344.626         134.455 
       0.644267         331.335         127.329 
       0.660051         326.784         120.761 
       0.675724         321.609         114.696 
       0.691403         313.861         109.043 
       0.707174          302.01         103.739 
       0.722871         297.361         98.8083 
        0.73838         293.844         94.2512 
       0.754018         282.075         89.9471 
       0.769845         280.915          85.865 
        0.78569         274.387         82.0328 
       0.801365           266.6         78.4727 
       0.817031         262.594         75.1271 
       0.832809         258.048         71.9562 
       0.848511         251.554         68.9835 
       0.864097          245.56         66.1999 
       0.879701         244.393         63.5681 
       0.895507         238.062         61.0489 
       0.911279         231.648         58.6721 
        0.92691         229.277         56.4421 
       0.942635         227.499         54.3163 
       0.958396          221.54         52.2959 
       0.974128         218.219         50.3824 
       0.989692         210.759         48.5839 
        1.00528         210.298          46.871 
        1.02113         206.891         45.2141 
        1.03692         202.304         43.6438 
        1.05264         199.108         42.1556 
        1.06832         198.706         40.7394 
        1.08405         192.997         39.3847 
        1.09979         191.761         38.0911 
        1.11537         187.896         36.8686 
        1.13105          184.76         35.6927 
        1.14679         182.929         34.5638 
        1.16256          180.17         33.4817 
        1.17828          178.17         32.4496 
        1.19395         173.484         31.4647 
         1.2097         172.675         30.5157 
        1.22537         171.309         29.6107 
          1.241         166.967         28.7452 
        1.25666         164.905         27.9123 
        1.27241         161.228         27.1085 
        1.28819         159.897         26.3352 
        1.30392          157.66         25.5944 
        1.31957         153.991         24.8855 
        1.33529          152.33         24.2009 
        1.35108         150.606         23.5394 
        1.36674          147.99         22.9075 
         1.3824         147.166         22.2994 
        1.39811         143.905         21.7115 
        1.41389         141.919         21.1425 
        1.42964         139.849          20.595 
        1.44531         138.483         20.0695 
        1.46101         135.562         19.5614 
        1.47667         135.324         19.0723 
        1.49229         133.124         18.6014 
        1.50793         130.681         18.1459 
        1.52367         129.119         17.7027 
        1.53953         126.946         17.2714 
        1.55526         126.368          16.858 
        1.57092         124.611         16.4598 
        1.58662         122.246         16.0736 
        1.60235         120.724          15.699 
        1.61809         119.562         15.3362 
        1.63369         117.539         14.9881 
        1.64941         116.991         14.6484 
        1.66519         115.024          14.318 
        1.68085         112.993         14.0002 
        1.69652         112.014         13.6919 
        1.71228         111.027         13.3912 
        1.72806         109.599         13.0993 
        1.74368         107.786          12.819 
        1.75933         106.993         12.5464 
        1.77505         105.043         12.2805 
        1.79081         103.813         12.0218 
         1.8065         102.036         11.7717 
        1.82218          101.01         11.5289 
        1.83797         100.643         11.2914 
        1.85367         98.5425         11.0618 
        1.86928          98.164         10.8401 
        1.88497         96.4155         10.6232 
        1.90073         95.6951         10.4114 
        1.91647         94.0019         10.2056 
        1.93218         92.8737         10.0059 
        1.94787         91.6359         9.81174 
        1.96363         90.7908           9.622 
        1.97935         89.9318         9.43768 
        1.99499         89.0738         9.25924 
        2.01064         87.0249         9.08516 
         2.0264         86.5108         8.91447 
        2.04216         84.8667         8.74825 
        2.05781         84.4194         8.58732 
        2.07353         83.3473         8.42988 
        2.08928         82.1627         8.27604 
        2.10499         81.1165         8.12646 
        2.12065         80.7363         7.98103 
        2.13633         79.6775         7.83904 
        2.15211         78.3537         7.69959 
        2.16785         77.2174         7.56393 
        2.18349         76.3275         7.43238 
        2.19916          75.515          7.3037 
        2.21489         74.5616         7.17764 
        2.23063         73.6248         7.05447 
         2.2463          73.167         6.93475 
        2.26194         72.1357          6.8181 
        2.27765         71.2921         6.70355 
        2.29341         70.4742         6.59133 
        2.30914         69.6494         6.48191 
        2.32486         68.1339         6.37504 
        2.34061         67.8418         6.27041 
        2.35635         67.0929         6.16822 
        2.37203         66.0818         6.06866 
        2.38768         65.4951         5.97151 
        2.40339         64.7453         5.87613 
        2.41914         63.7319         5.78262 
        2.43483         63.3692         5.69147 
         2.4505         62.4489         5.60244 
        2.46622          62.027         5.51501 
        2.48195         61.0822         5.42945 
        2.49759         60.4467         5.34615 
        2.51328         59.8112         5.26439 
        2.52906         59.1122         5.18382 
        2.54479         58.4003         5.10524 
        2.56049         57.6746         5.02845 
        2.57618         56.9526         4.95329 
        2.59189         56.5554         4.87957 
        2.60758         55.7657         4.80746 
        2.62325         55.2398         4.73689 
        2.63898         54.6392          4.6675 
        2.65468         54.0724         4.59964 
        2.67044          53.504         4.53284 
        2.68618         53.0111         4.46753 
        2.70184         52.2197         4.40376 
        2.71755         51.5597         4.34107 
        2.73329         51.2338         4.27952 
        2.74897         50.8006         4.21935 
        2.76462         50.2766         4.16048 
        2.78034         49.6045         4.10249 
        2.79607         48.8436         4.04554 
        2.81179         48.4089         3.98974 
        2.82749         48.0299         3.93506 
        2.84321         47.6446         3.88133 
        2.85893         47.0364         3.82863 
        2.87462         46.2995           3.777 
        2.89033         45.9225         3.72627 
        2.90605         45.3501         3.67643 
        2.92176         45.0148         3.62753 
        2.93747         44.4981         3.57954 
        2.95318          44.063         3.53241 
        2.96891         43.5564         3.48611 
        2.98456         43.2055         3.44084 
        3.00023         42.5368         3.39631 
        3.01596         42.2856         3.35243 
        3.03164         41.7603         3.30945 
        3.04738         41.3475          3.2671 
         3.0631         41.0873          3.2255 
        3.07883         40.5718         3.18463 
        3.09456         40.1151         3.14447 
        3.11026         39.6499         3.10506 
        3.12596         39.2699         3.06634 
        3.14163         38.9052         3.02836 
        3.15734          38.549         2.99094 
        3.17308         38.2622         2.95407 
        3.18879         37.8209         2.91791 
        3.20447         37.2829         2.88241 
         3.2202         36.9585         2.84739 
         3.2359         36.7057         2.81302 
        3.25157         36.1908          2.7793 
        3.26729         35.9688         2.74602 
        3.28304          35.633         2.71323 
        3.29877         35.0997         2.68101 
        3.31446         34.8911         2.64939 
        3.33014         34.4205         2.61831 
        3.34585         34.0586         2.58767 
        3.36158         33.7742         2.55748 
        3.37727         33.4306         2.52787 
        3.39294         33.1187         2.49875 
        3.40867         32.8686         2.46999 
        3.42439         32.5001         2.44169 
        3.44008          32.231          2.4139 
        3.45578         31.8911         2.38651 
        3.47153         31.6939         2.35949 
        3.48724         31.2797         2.33294 
        3.50292         31.0513         2.30685 
        3.51859         30.7241         2.28118 
        3.53431         30.4487         2.25582 
        3.55007         29.9934         2.23078 
        3.56577         29.8215         2.20622 
        3.58146          29.526         2.18204 
        3.59719         29.2559         2.15817 
        3.61292         29.0724         2.13466 
        3.62859         28.6865         2.11159 
        3.64429         28.4158         2.08882 
        3.66003         28.1751         2.06631 
        3.67578         27.9447         2.04415 
        3.69146         27.7592         2.02239 
        3.70712         27.3515         2.00099 
        3.72284         27.1877         1.97981 
        3.73853         26.9665         1.95898 
        3.75422         26.7245         1.93845 
        3.76993         26.4225         1.91819 
        3.78564         26.1642         1.89823 
        3.80137         25.9883         1.87851 
        3.81707         25.7032         1.85912 
        3.83279         25.4231         1.83999 
        3.84853          25.271          1.8211 
        3.86424         24.8729         1.80251 
        3.87992         24.7121          1.7842 
        3.89561         24.5942         1.76615 
        3.91134         24.2757         1.74831 
        3.92704         24.0552         1.73074 
        3.94273         23.7955         1.71343 
        3.95845          23.656         1.69632 
        3.97418         23.4666         1.67944 
        3.98988         23.2381         1.66282 
        4.00554         22.9671         1.64646 
        4.02125         22.7965         1.63028 
        4.03698         22.6093         1.61429 
        4.05268         22.4045         1.59855 
        4.06839         22.1999         1.58301 
         4.0841         22.0277         1.56768 
        4.09983         21.7719         1.55253 
        4.11555         21.6314         1.53759 
        4.13124         21.4989         1.52288 
        4.14693         21.3107         1.50836 
        4.16266          21.075         1.49399 
        4.17839         20.9226         1.47981 
        4.19408         20.6706         1.46586 
        4.20977         20.5565         1.45207 
        4.22551         20.3985         1.43843 
        4.24123          20.183         1.42498 
        4.25691         20.0295         1.41174 
        4.27259         19.8726         1.39866 
        4.28831         19.6865         1.38573 
        4.30404         19.4769         1.37294 
        4.31974         19.3546         1.36034 
        4.33543         19.2264         1.34791 
        4.35116         19.0441          1.3356 
        4.36688         18.8782         1.32345 
        4.38255         18.6773          1.3115 
        4.39825         18.5814         1.29967 
        4.41398          18.375         1.28796 
         4.4297         18.2879          1.2764 
        4.44541         18.0852           1.265 
        4.46111           17.86         1.25374 
        4.47683         17.7617          1.2426 
        4.49251          17.668         1.23163 
        4.50819         17.5037         1.22079 
         4.5239         17.3685         1.21007 
        4.53962         17.2699         1.19946 
        4.55535         17.0784         1.18897 
        4.57106         16.9633         1.17863 
        4.58678         16.7838          1.1684 
         4.6025         16.6094         1.15829 
        4.61821         16.5549         1.14831 
        4.63391         16.3738         1.13845 
         4.6496         16.2487         1.12872 
        4.66532         16.1199         1.11908 
        4.68103         16.0004         1.10956 
        4.69673         15.8478         1.10016 
        4.71241         15.7723         1.09088 
        4.72811         15.6083         1.08169 
        4.74384         15.4605          1.0726 
        4.75955         15.3629         1.06362 
        4.77525         15.2436         1.05475 
        4.79096         15.1173         1.04597 
        4.80669         15.0247         1.03728 
         4.8224         14.9026         1.02871 
        4.83809         14.7519         1.02024 
        4.85379          14.646         1.01186 
         4.8695         14.5542         1.00357 
        4.88521         14.4113        0.995371 
        4.90093         14.2779        0.987265 
        4.91663         14.2129        0.979257 
        4.93234         14.0864        0.971329 
        4.94807         13.9845        0.963484 
        4.96377         13.8801         0.95574 
        4.97943         13.7823        0.948097 
        4.99514         13.6591        0.940518 
        5.01086         13.5696        0.933016 
        5.02654         13.4545        0.925615 
        5.04227         13.3572        0.918272 
          5.058         13.2351        0.911005 
        5.07371         13.1546        0.903832 
        5.08942         13.0383        0.896734 
        5.10513         12.9589        0.889712 
        5.12084         12.8587        0.882762 
        5.13656         12.7651        0.875887 
        5.15225         12.6608        0.869097 
        5.16796         12.5588        0.862368 
        5.18369         12.4601        0.855704 
         5.1994         12.3751        0.849123 
        5.21509         12.2816        0.842617 
        5.23079         12.1863        0.836171 
        5.24649         12.1077        0.829798 
        5.26217         12.0093        0.823495 
        5.27788         11.9098        0.817249 
        5.29359         11.8232        0.811066 
        5.30933          11.747        0.804939 
        5.32504         11.6497        0.798885 
        5.34073         11.5896          0.7929 
        5.35646         11.5171        0.786964 
        5.37218         11.3989        0.781088 
        5.38789          11.317        0.775281 
        5.40357         11.2335         0.76954 
        5.41929         11.1583        0.763844 
        5.43502         11.0829        0.758205 
         5.4507         10.9986        0.752637 
        5.46639         10.8934        0.747123 
        5.48212         10.8401        0.741652 
        5.49786         10.7743        0.736229 
        5.51353         10.6917        0.730887 
        5.52921         10.6232        0.725593 
        5.54495         10.5235        0.720336 
        5.56066         10.4462        0.715136 
        5.57637         10.3998        0.709989 
        5.59207         10.3166        0.704896 
        5.60778         10.2389        0.699852 
        5.62346          10.159        0.694864 
        5.63916         10.0978         0.68992 
        5.65487         10.0313        0.685021 
         5.6706         9.94883        0.680164 
        5.68633         9.86453        0.675352 
        5.70203         9.80703        0.670597 
        5.71773         9.72907        0.665889 
        5.73344         9.68175        0.661223 
        5.74916         9.62237        0.656597 
        5.76486           9.551        0.652022 
        5.78054         9.47953        0.647498 
        5.79626         9.41237        0.643003 
          5.812         9.33735        0.638547 
         5.8277         9.28384        0.634146 
        5.84339         9.19162        0.629787 
        5.85911         9.15623         0.62546 
        5.87484         9.07594        0.621175 
        5.89053         9.01861        0.616938 
        5.90623         8.97545        0.612738 
        5.92195         8.90599        0.608571 
        5.93767         8.83786        0.604444 
        5.95336         8.76899        0.600363 
        5.96905         8.73019        0.596321 
        5.98476         8.65222         0.59231 
        6.00048         8.59894        0.588335 
        6.01617         8.54366        0.584401 
        6.03185         8.49935        0.580508 
        6.04756         8.43699        0.576642 
        6.06331         8.37909        0.572802 
        6.07903         8.31752        0.569005 
        6.09473           8.259        0.565247 
        6.11044         8.20918        0.561518 
        6.12616         8.16365        0.557824 
        6.14186         8.11631        0.554167 
        6.15755         8.06247        0.550543 
        6.17326         7.98246        0.546948 
        6.18898         7.95036        0.543384 
        6.20467         7.89601        0.539858 
        6.22036         7.83036        0.536364 
         6.2361         7.79082         0.53289 
         6.2518         7.73566        0.529454 
        6.26748         7.68619        0.526055 
        6.28319         7.65001        0.522676 
        6.29893         7.59155        0.519325 
        6.31463         7.53067        0.516008 
        6.33033           7.485        0.512722 
        6.34604         7.43225        0.509461 
        6.36177         7.40085        0.506226 
        6.37747          7.3452        0.503025 
