# k  (h/Mpc)    Pcb(k)  (Mpc/h)^3    Pcb_linear(k) (Mpc/h)^3   ShotnoiseSubtracted = true
      0.0200456         8452.18         8603.81 
      0.0350414         6099.73         6254.68 
      0.0492313         4519.97         4544.53 
      0.0637834         3847.91         3777.83 
      0.0800726         3047.17         2998.37 
       0.096163         2138.14         2175.58 
       0.111083         1698.04          1735.3 
       0.126058         1560.21         1537.83 
       0.142273         1345.63         1302.88 
       0.158546          1110.3            1029 
        0.17375         894.957         866.931 
       0.188953          856.54         784.987 
       0.204907         802.468         694.553 
       0.220756         677.233         587.634 
        0.23588         594.015         511.191 
         0.2514         521.409         464.411 
       0.267535         501.132         420.213 
       0.283568         453.906         370.571 
       0.299022         420.454          330.16 
       0.314451         389.927         301.744 
       0.330372         360.482         276.816 
       0.346141         325.022         251.253 
       0.361624         311.172         228.354 
       0.377134         290.895         210.122 
       0.392932         270.726         194.422 
       0.408854         259.502         179.219 
       0.424564         248.229         165.189 
       0.440253         236.249         153.149 
       0.455999         222.292          142.68 
       0.471626         205.912         133.059 
        0.48727         200.048          124.06 
       0.502856         192.435         115.975 
       0.518488         188.722         108.761 
       0.534347         179.005         102.054 
       0.550082         166.674         95.8709 
       0.565732         162.205         90.2138 
       0.581496         154.835         85.0325 
       0.597222         150.249         80.2808 
       0.612804         143.817         75.9114 
       0.628434         140.187         71.8388 
       0.644267         135.373         68.0312 
       0.660051         133.134          64.522 
       0.675724         129.321         61.2816 
       0.691403         125.366          58.261 
       0.707174         120.231          55.427 
       0.722871          118.79         52.7928 
        0.73838         116.338          50.358 
       0.754018         111.375         48.0583 
       0.769845         109.095         45.8773 
        0.78569         106.604         43.8297 
       0.801365         103.542         41.9276 
       0.817031         99.8958           40.14 
       0.832809         98.6829         38.4459 
       0.848511         95.5115         36.8576 
       0.864097         93.0543         35.3703 
       0.879701         91.7957         33.9641 
       0.895507         89.7433         32.6181 
       0.911279         88.3577         31.3482 
        0.92691         86.3842         30.1568 
       0.942635         83.9919         29.0209 
       0.958396         83.6501         27.9414 
       0.974128          81.424         26.9191 
       0.989692         79.4881         25.9582 
        1.00528         77.8945         25.0429 
        1.02113         76.7416         24.1577 
        1.03692         74.3146         23.3187 
        1.05264         74.1666         22.5235 
        1.06832         72.1276         21.7669 
        1.08405         71.2504         21.0431 
        1.09979         70.6908         20.3519 
        1.11537         68.0789         19.6987 
        1.13105         68.4623         19.0705 
        1.14679         67.0496         18.4673 
        1.16256         66.0295         17.8891 
        1.17828         64.2815         17.3377 
        1.19395         63.8024         16.8114 
         1.2097         62.2234         16.3044 
        1.22537          62.312         15.8208 
          1.241         60.6832         15.3584 
        1.25666         59.5364         14.9134 
        1.27241         58.9989          14.484 
        1.28819         57.8168         14.0708 
        1.30392         57.0092          13.675 
        1.31957         56.4816         13.2962 
        1.33529          55.523         12.9304 
        1.35108         55.2371          12.577 
        1.36674         54.3974         12.2394 
         1.3824         53.1035         11.9145 
        1.39811         52.8454         11.6003 
        1.41389         51.9885         11.2963 
        1.42964         51.2997         11.0038 
        1.44531         50.5017         10.7231 
        1.46101         49.6256         10.4515 
        1.47667         49.5499         10.1903 
        1.49229         48.8794         9.93865 
        1.50793          48.132         9.69526 
        1.52367          47.401         9.45848 
        1.53953         47.0522         9.22804 
        1.55526         46.3463         9.00713 
        1.57092         45.9708         8.79439 
        1.58662         45.3556         8.58803 
        1.60235         44.8519          8.3879 
        1.61809         44.1373         8.19407 
        1.63369         43.4781          8.0081 
        1.64941         42.9478         7.82658 
        1.66519         42.3786         7.65005 
        1.68085         42.0767         7.48023 
        1.69652         41.4651         7.31552 
        1.71228         41.2317         7.15485 
        1.72806         40.7029         6.99889 
        1.74368         40.0815         6.84915 
        1.75933         39.6733          6.7035 
        1.77505         39.3636         6.56141 
        1.79081         38.7614          6.4232 
         1.8065         38.3641         6.28957 
        1.82218         37.9784         6.15986 
        1.83797          37.443         6.03293 
        1.85367         36.9202         5.91029 
        1.86928         36.7001         5.79179 
        1.88497         36.3083         5.67591 
        1.90073         35.9603         5.56277 
        1.91647         35.5284         5.45282 
        1.93218         35.1805         5.34608 
        1.94787         34.7577         5.24237 
        1.96363         34.4555         5.14099 
        1.97935         34.0088         5.04251 
        1.99499         33.6366         4.94717 
        2.01064         33.3912         4.85416 
         2.0264         32.8732         4.76296 
        2.04216         32.4864         4.67415 
        2.05781         32.1247         4.58817 
        2.07353         31.8577         4.50404 
        2.08928         31.7911         4.42185 
        2.10499         31.3532         4.34193 
        2.12065         30.8984         4.26423 
        2.13633         30.7725         4.18836 
        2.15211         30.2086         4.11386 
        2.16785         29.8607         4.04137 
        2.18349         29.7299         3.97109 
        2.19916         29.4651         3.90233 
        2.21489         29.0069         3.83498 
        2.23063         28.8108         3.76917 
         2.2463         28.5386          3.7052 
        2.26194         28.2842         3.64288 
        2.27765         27.9912         3.58167 
        2.29341         27.7043         3.52172 
        2.30914         27.5234         3.46326 
        2.32486         27.0992         3.40616 
        2.34061         26.9587         3.35025 
        2.35635         26.6545         3.29565 
        2.37203         26.4525         3.24246 
        2.38768         26.1015         3.19055 
        2.40339         26.0178         3.13959 
        2.41914         25.6902         3.08963 
        2.43483         25.3759         3.04093 
         2.4505         25.1596         2.99336 
        2.46622         24.9289         2.94665 
        2.48195         24.6885         2.90093 
        2.49759         24.4597         2.85643 
        2.51328         24.1772         2.81274 
        2.52906         24.0463         2.76969 
        2.54479         23.7154         2.72771 
        2.56049         23.4497         2.68667 
        2.57618         23.2168         2.64652 
        2.59189         23.1191         2.60713 
        2.60758         22.9078          2.5686 
        2.62325         22.6005          2.5309 
        2.63898         22.5486         2.49382 
        2.65468         22.2139         2.45757 
        2.67044         22.0442         2.42188 
        2.68618         21.7653         2.38698 
        2.70184         21.6434         2.35291 
        2.71755         21.4744         2.31942 
        2.73329         21.2259         2.28653 
        2.74897         20.9567         2.25438 
        2.76462           20.93         2.22293 
        2.78034         20.7022         2.19194 
        2.79607         20.4912         2.16151 
        2.81179         20.3313          2.1317 
        2.82749         20.1338         2.10248 
        2.84321         19.9998         2.07378 
        2.85893         19.7449         2.04562 
        2.87462         19.5503         2.01803 
        2.89033         19.4512         1.99093 
        2.90605           19.32          1.9643 
        2.92176         19.0218         1.93817 
        2.93747         18.9674         1.91253 
        2.95318         18.7079         1.88735 
        2.96891          18.583         1.86261 
        2.98456         18.3976         1.83842 
        3.00023          18.225         1.81463 
        3.01596         18.1355         1.79119 
        3.03164         17.9609         1.76822 
        3.04738         17.7418          1.7456 
         3.0631         17.5847         1.72337 
        3.07883          17.448         1.70153 
        3.09456         17.3139         1.68008 
        3.11026         17.1769         1.65902 
        3.12596         16.9916         1.63833 
        3.14163         16.8994         1.61804 
        3.15734         16.6796         1.59805 
        3.17308          16.561         1.57834 
        3.18879         16.4104         1.55903 
        3.20447         16.2779         1.54006 
         3.2202         16.1099         1.52135 
         3.2359         15.9928         1.50298 
        3.25157         15.8811         1.48496 
        3.26729         15.7749         1.46719 
        3.28304         15.5866         1.44967 
        3.29877         15.4116         1.43245 
        3.31446         15.2961         1.41556 
        3.33014         15.1783         1.39895 
        3.34585         14.9949         1.38258 
        3.36158         14.9186         1.36645 
        3.37727         14.7512         1.35063 
        3.39294         14.6109         1.33507 
        3.40867         14.5247          1.3197 
        3.42439         14.3774         1.30459 
        3.44008         14.2985         1.28973 
        3.45578         14.1587          1.2751 
        3.47153         14.0678         1.26067 
        3.48724         13.9472         1.24648 
        3.50292         13.7875         1.23254 
        3.51859         13.7243         1.21882 
        3.53431         13.6119         1.20527 
        3.55007          13.487          1.1919 
        3.56577         13.3757         1.17877 
        3.58146         13.2835         1.16585 
        3.59719         13.1204          1.1531 
        3.61292         13.0416         1.14054 
        3.62859         12.9083         1.12821 
        3.64429         12.8096         1.11605 
        3.66003         12.7192         1.10402 
        3.67578         12.6489         1.09218 
        3.69146         12.5077         1.08055 
        3.70712         12.3949         1.06912 
        3.72284          12.312         1.05781 
        3.73853         12.1618         1.04668 
        3.75422          12.104          1.0357 
        3.76993         12.0249         1.02488 
        3.78564           11.88         1.01421 
        3.80137          11.799         1.00368 
        3.81707         11.7014        0.993321 
        3.83279         11.5886        0.983099 
        3.84853         11.5198        0.973004 
        3.86424         11.3664        0.963071 
        3.87992         11.3284        0.953291 
        3.89561         11.2344        0.943646 
        3.91134          11.164        0.934115 
        3.92704         11.0274        0.924726 
        3.94273          10.956        0.915476 
        3.95845          10.887        0.906335 
        3.97418         10.8003        0.897318 
        3.98988         10.6839        0.888435 
        4.00554         10.6413        0.879696 
        4.02125         10.4913         0.87105 
        4.03698         10.4605        0.862506 
        4.05268         10.3544        0.854097 
        4.06839         10.2739        0.845793 
         4.0841         10.1938        0.837603 
        4.09983         10.1112        0.829509 
        4.11555         10.0234        0.821525 
        4.13124         9.94442        0.813669 
        4.14693         9.87401        0.805908 
        4.16266         9.80434        0.798231 
        4.17839         9.70645        0.790658 
        4.19408         9.65028          0.7832 
        4.20977         9.55985        0.775836 
        4.22551         9.50909        0.768548 
        4.24123         9.43172        0.761362 
        4.25691         9.35489        0.754287 
        4.27259         9.25341        0.747299 
        4.28831         9.20178        0.740386 
        4.30404          9.1281        0.733554 
        4.31974         9.07756        0.726823 
        4.33543         8.97649         0.72018 
        4.35116          8.9137        0.713604 
        4.36688         8.84593        0.707113 
        4.38255         8.77956        0.700727 
        4.39825         8.70651        0.694405 
        4.41398         8.64982        0.688149 
         4.4297         8.57978        0.681977 
        4.44541         8.52312        0.675881 
        4.46111         8.45461        0.669865 
        4.47683         8.39621        0.663917 
        4.49251         8.31722        0.658054 
        4.50819         8.25159        0.652263 
         4.5239         8.21096        0.646533 
        4.53962         8.14465        0.640865 
        4.55535         8.06672        0.635262 
        4.57106          8.0076        0.629734 
        4.58678         7.93949        0.624271 
         4.6025          7.8739        0.618871 
        4.61821          7.8399        0.613536 
        4.63391          7.7953        0.608271 
         4.6496         7.71865        0.603069 
        4.66532         7.66018        0.597921 
        4.68103         7.58596        0.592835 
        4.69673         7.54403        0.587812 
        4.71241         7.49385        0.582853 
        4.72811         7.42046        0.577943 
        4.74384         7.37831        0.573083 
        4.75955         7.32514        0.568286 
        4.77525         7.26473        0.563547 
        4.79096           7.218        0.558856 
        4.80669         7.16304        0.554216 
         4.8224         7.11562        0.549634 
        4.83809          7.0375        0.545109 
        4.85379         6.98733        0.540632 
         4.8695         6.94908        0.536201 
        4.88521         6.90582        0.531822 
        4.90093         6.84381        0.527491 
        4.91663         6.78881        0.523213 
        4.93234         6.75062        0.518977 
        4.94807         6.69379        0.514785 
        4.96377         6.65795        0.510647 
        4.97943         6.60785        0.506564 
        4.99514         6.55177        0.502514 
        5.01086         6.50606        0.498506 
        5.02654         6.45774        0.494552 
        5.04227         6.41491        0.490628 
          5.058          6.3851        0.486746 
        5.07371         6.33809        0.482913 
        5.08942         6.28325        0.479121 
        5.10513         6.23669        0.475369 
        5.12084         6.18923        0.471656 
        5.13656         6.15043        0.467983 
        5.15225         6.11526        0.464355 
        5.16796         6.06857        0.460759 
        5.18369         6.02272        0.457199 
         5.1994          5.9832        0.453683 
        5.21509         5.93624        0.450206 
        5.23079         5.89836        0.446762 
        5.24649         5.86474        0.443357 
        5.26217         5.82235         0.43999 
        5.27788         5.77547        0.436652 
        5.29359         5.73632        0.433349 
        5.30933         5.70619        0.430075 
        5.32504         5.66263         0.42684 
        5.34073         5.62004        0.423643 
        5.35646         5.58164        0.420471 
        5.37218         5.53542        0.417332 
        5.38789          5.5186        0.414229 
        5.40357         5.46892        0.411161 
        5.41929         5.43729        0.408118 
        5.43502         5.39488        0.405105 
         5.4507         5.35919         0.40213 
        5.46639         5.31236        0.399184 
        5.48212         5.26977        0.396261 
        5.49786         5.26022        0.393364 
        5.51353         5.20724         0.39051 
        5.52921         5.18066        0.387681 
        5.54495         5.14426        0.384872 
        5.56066         5.11044        0.382094 
        5.57637         5.07691        0.379344 
        5.59207          5.0354        0.376623 
        5.60778         5.01046        0.373928 
        5.62346         4.97731        0.371263 
        5.63916         4.94535        0.368621 
        5.65487         4.90077        0.366004 
         5.6706         4.88329        0.363409 
        5.68633          4.8433        0.360838 
        5.70203         4.81212        0.358297 
        5.71773         4.78523        0.355781 
        5.73344         4.75059        0.353288 
        5.74916         4.72784        0.350817 
        5.76486         4.69043        0.348372 
        5.78054         4.65897        0.345955 
        5.79626         4.62137        0.343554 
          5.812          4.6017        0.341173 
         5.8277         4.56085        0.338821 
        5.84339         4.55073        0.336492 
        5.85911         4.52562         0.33418 
        5.87484         4.48221        0.331891 
        5.89053         4.46067        0.329627 
        5.90623         4.43595        0.327383 
        5.92195         4.39368        0.325157 
        5.93767         4.37093        0.322952 
        5.95336         4.34915        0.320771 
        5.96905         4.31596        0.318611 
        5.98476          4.2913        0.316468 
        6.00048         4.25495        0.314344 
        6.01617         4.23829        0.312243 
        6.03185         4.20931        0.310163 
        6.04756         4.18459        0.308097 
        6.06331         4.15953        0.306046 
        6.07903         4.13076        0.304017 
        6.09473         4.10234        0.302009 
        6.11044         4.07588        0.300017 
        6.12616         4.06653        0.298043 
        6.14186         4.02902        0.296089 
        6.15755         4.00981        0.294153 
        6.17326         3.98927        0.292232 
        6.18898         3.96104        0.290328 
        6.20467         3.93633        0.288444 
        6.22036         3.91605        0.286577 
         6.2361         3.88632        0.284721 
         6.2518         3.87192        0.282885 
        6.26748         3.84445        0.281069 
        6.28319         3.81872        0.279264 
        6.29893         3.79449        0.277473 
        6.31463           3.775        0.275701 
        6.33033         3.74755        0.273945 
        6.34604         3.72439        0.272203 
        6.36177         3.70201        0.270474 
        6.37747         3.68489        0.268764 
