# k  (h/Mpc)    Pcb(k)  (Mpc/h)^3    Pcb_linear(k) (Mpc/h)^3   ShotnoiseSubtracted = true
      0.0200456         3603.72         3659.87 
      0.0350414         2623.93         2660.61 
      0.0492313         1934.09         1933.15 
      0.0637834         1629.88         1607.01 
      0.0800726         1292.01         1275.44 
       0.096163         916.944         925.444 
       0.111083         727.283         738.158 
       0.126058         661.002         654.158 
       0.142273         566.762         554.216 
       0.158546         455.857         437.714 
        0.17375         372.676         368.774 
       0.188953         348.598         333.916 
       0.204907         322.847         295.448 
       0.220756         269.436         249.967 
        0.23588         235.036         217.449 
         0.2514         208.983         197.551 
       0.267535         194.662         178.749 
       0.283568         174.937         157.633 
       0.299022         159.553         140.443 
       0.314451         143.736         128.355 
       0.330372         133.648         117.751 
       0.346141         120.806         106.877 
       0.361624          113.02         97.1369 
       0.377134         106.359         89.3813 
       0.392932         95.0654         82.7028 
       0.408854         91.4898          76.236 
       0.424564         86.9072         70.2678 
       0.440253         80.3763         65.1464 
       0.455999         75.6958         60.6931 
       0.471626          70.451         56.6006 
        0.48727         67.7031         52.7723 
       0.502856         63.8947         49.3331 
       0.518488         61.2414         46.2645 
       0.534347         58.8303         43.4118 
       0.550082         53.9471         40.7814 
       0.565732         50.8223          38.375 
       0.581496         49.4347          36.171 
       0.597222         47.8161         34.1497 
       0.612804         44.8256         32.2911 
       0.628434         43.4296         30.5587 
       0.644267         42.2605          28.939 
       0.660051         40.3405         27.4462 
       0.675724         38.3424         26.0679 
       0.691403         37.1542          24.783 
       0.707174         36.0175         23.5775 
       0.722871         34.6122         22.4569 
        0.73838         33.4926         21.4212 
       0.754018         32.0467          20.443 
       0.769845         31.1861         19.5152 
        0.78569           30.22         18.6442 
       0.801365         29.1185         17.8351 
       0.817031         28.4344         17.0747 
       0.832809         27.8632          16.354 
       0.848511         26.2116         15.6784 
       0.864097         25.7695         15.0458 
       0.879701         25.1777         14.4476 
       0.895507         24.5652          13.875 
       0.911279         23.8021         13.3349 
        0.92691         23.2215          12.828 
       0.942635         22.3232         12.3449 
       0.958396         21.9429         11.8857 
       0.974128         21.2809         11.4508 
       0.989692         21.0687          11.042 
        1.00528         20.5468         10.6527 
        1.02113          19.723         10.2762 
        1.03692         19.3176         9.91926 
        1.05264         18.9695         9.58103 
        1.06832         18.5106         9.25915 
        1.08405         18.0208         8.95127 
        1.09979         17.6603         8.65726 
        1.11537         17.3224         8.37942 
        1.13105         17.0159         8.11217 
        1.14679         16.7656         7.85558 
        1.16256         16.1485         7.60963 
        1.17828         16.1265         7.37507 
        1.19395         15.5566         7.15121 
         1.2097         15.4056         6.93555 
        1.22537         15.0066         6.72985 
          1.241         14.7764         6.53314 
        1.25666         14.4297         6.34383 
        1.27241         14.1167         6.16117 
        1.28819         13.8545         5.98541 
        1.30392         13.7405         5.81704 
        1.31957         13.5211         5.65592 
        1.33529           13.28         5.50033 
        1.35108         12.9555         5.34999 
        1.36674         12.8475         5.20637 
         1.3824         12.5194         5.06816 
        1.39811         12.3336         4.93453 
        1.41389         12.1762         4.80522 
        1.42964         12.0181         4.68077 
        1.44531         11.8662         4.56135 
        1.46101         11.5377         4.44586 
        1.47667         11.4226         4.33472 
        1.49229         11.2738         4.22769 
        1.50793         11.0901         4.12416 
        1.52367          10.909         4.02343 
        1.53953         10.7593         3.92541 
        1.55526         10.6041         3.83144 
        1.57092         10.4592         3.74094 
        1.58662         10.3394         3.65316 
        1.60235         10.1651         3.56803 
        1.61809         10.0376         3.48558 
        1.63369         9.89326         3.40647 
        1.64941         9.73601         3.32926 
        1.66519         9.66491         3.25416 
        1.68085         9.50161         3.18193 
        1.69652         9.36591         3.11186 
        1.71228         9.23386         3.04352 
        1.72806         9.18253         2.97718 
        1.74368         9.00987         2.91348 
        1.75933         8.92725         2.85152 
        1.77505         8.81036         2.79108 
        1.79081         8.65096         2.73229 
         1.8065         8.60298         2.67545 
        1.82218          8.4502         2.62027 
        1.83797         8.40029         2.56628 
        1.85367         8.25903         2.51411 
        1.86928         8.25247          2.4637 
        1.88497         8.05316         2.41441 
        1.90073         8.00889         2.36628 
        1.91647          7.9451         2.31951 
        1.93218          7.8526         2.27411 
        1.94787         7.73034         2.22999 
        1.96363         7.67386         2.18687 
        1.97935         7.54462         2.14497 
        1.99499         7.45236         2.10442 
        2.01064          7.3901         2.06485 
         2.0264         7.32361         2.02606 
        2.04216          7.2408         1.98828 
        2.05781         7.14316         1.95171 
        2.07353         7.09323         1.91592 
        2.08928         7.02934         1.88096 
        2.10499         6.98202         1.84696 
        2.12065         6.87286         1.81391 
        2.13633         6.83817         1.78164 
        2.15211         6.72925         1.74995 
        2.16785         6.67007         1.71911 
        2.18349         6.61266         1.68922 
        2.19916         6.54164         1.65997 
        2.21489         6.46512         1.63132 
        2.23063         6.41493         1.60332 
         2.2463         6.34095         1.57611 
        2.26194         6.26393          1.5496 
        2.27765         6.24316         1.52357 
        2.29341         6.16938         1.49806 
        2.30914         6.09927         1.47319 
        2.32486         6.02144         1.44891 
        2.34061         5.99884         1.42512 
        2.35635         5.95803          1.4019 
        2.37203         5.89753         1.37927 
        2.38768         5.82137         1.35719 
        2.40339         5.78286         1.33551 
        2.41914         5.69855         1.31426 
        2.43483          5.6912         1.29354 
         2.4505         5.62057         1.27331 
        2.46622          5.5786         1.25344 
        2.48195         5.51105         1.23399 
        2.49759         5.50084         1.21506 
        2.51328         5.43225         1.19648 
        2.52906         5.41123         1.17817 
        2.54479         5.33685         1.16031 
        2.56049         5.30822         1.14285 
        2.57618         5.25268         1.12577 
        2.59189         5.19935         1.10902 
        2.60758         5.18315         1.09263 
        2.62325         5.11813         1.07659 
        2.63898         5.06093         1.06082 
        2.65468         5.02587          1.0454 
        2.67044         4.99169         1.03021 
        2.68618         4.96631         1.01537 
        2.70184         4.90766         1.00088 
        2.71755         4.86889         0.98663 
        2.73329         4.84364        0.972639 
        2.74897         4.82272        0.958965 
        2.76462         4.77814        0.945585 
        2.78034          4.7071        0.932404 
        2.79607         4.68589        0.919461 
        2.81179         4.66377        0.906779 
        2.82749         4.59816         0.89435 
        2.84321         4.60006        0.882141 
        2.85893         4.55381        0.870163 
        2.87462         4.51106        0.858428 
        2.89033         4.47972        0.846898 
        2.90605         4.44198        0.835571 
        2.92176         4.39542        0.824456 
        2.93747         4.37236         0.81355 
        2.95318         4.34695        0.802838 
        2.96891         4.31843        0.792314 
        2.98456         4.28674        0.782026 
        3.00023         4.23669        0.771905 
        3.01596         4.21669        0.761932 
        3.03164         4.20098        0.752164 
        3.04738         4.16107        0.742538 
         3.0631         4.12628        0.733085 
        3.07883         4.10269        0.723795 
        3.09456         4.07271        0.714668 
        3.11026         4.05212        0.705712 
        3.12596         4.01095        0.696911 
        3.14163         3.97732         0.68828 
        3.15734          3.9493        0.679775 
        3.17308         3.93358        0.671393 
        3.18879         3.89945        0.663176 
        3.20447         3.88573        0.655108 
         3.2202         3.83561        0.647149 
         3.2359          3.8301        0.639337 
        3.25157         3.78932        0.631672 
        3.26729         3.77234         0.62411 
        3.28304         3.74374        0.616656 
        3.29877         3.72377        0.609334 
        3.31446         3.68582        0.602147 
        3.33014         3.67738        0.595083 
        3.34585          3.6488         0.58812 
        3.36158         3.63153        0.581259 
        3.37727          3.5927        0.574528 
        3.39294         3.58521        0.567911 
        3.40867         3.54635        0.561373 
        3.42439         3.52554        0.554943 
        3.44008         3.50176        0.548625 
        3.45578         3.48138        0.542401 
        3.47153         3.45761         0.53626 
        3.48724         3.43788        0.530225 
        3.50292         3.42562        0.524297 
        3.51859         3.39432        0.518462 
        3.53431         3.36715        0.512697 
        3.55007         3.35741        0.507007 
        3.56577         3.33723        0.501425 
        3.58146         3.31746        0.495929 
        3.59719         3.29228        0.490503 
        3.61292         3.27382        0.485161 
        3.62859          3.2415        0.479918 
        3.64429         3.22242        0.474742 
        3.66003         3.21721        0.469627 
        3.67578         3.19407        0.464589 
        3.69146          3.1683        0.459643 
        3.70712          3.1536        0.454779 
        3.72284         3.12673        0.449967 
        3.73853          3.1164        0.445234 
        3.75422         3.09484        0.440566 
        3.76993          3.0658        0.435961 
        3.78564         3.05636        0.431424 
        3.80137           3.041        0.426944 
        3.81707         3.00962        0.422537 
        3.83279         3.00007        0.418189 
        3.84853         2.98054        0.413895 
        3.86424         2.96032         0.40967 
        3.87992         2.94515        0.405509 
        3.89561          2.9229        0.401407 
        3.91134         2.91478        0.397352 
        3.92704         2.89377        0.393359 
        3.94273          2.8727        0.389424 
        3.95845         2.86093        0.385535 
        3.97418         2.83365        0.381699 
        3.98988         2.81822        0.377921 
        4.00554         2.79581        0.374204 
        4.02125         2.77859        0.370526 
        4.03698         2.76862        0.366892 
        4.05268         2.75033        0.363314 
        4.06839         2.73645        0.359782 
         4.0841         2.71804        0.356298 
        4.09983         2.69293        0.352855 
        4.11555         2.68469        0.349459 
        4.13124          2.6651        0.346117 
        4.14693          2.6431        0.342816 
        4.16266         2.63034         0.33955 
        4.17839         2.61677        0.336329 
        4.19408         2.59369        0.333157 
        4.20977         2.57797        0.330024 
        4.22551          2.5638        0.326924 
        4.24123         2.55091        0.323867 
        4.25691         2.53603        0.320857 
        4.27259         2.51972        0.317885 
        4.28831         2.50877        0.314944 
        4.30404         2.49163        0.312038 
        4.31974         2.47826        0.309175 
        4.33543         2.46283        0.306349 
        4.35116         2.44682        0.303552 
        4.36688         2.43753        0.300791 
        4.38255         2.41926        0.298074 
        4.39825         2.40763        0.295385 
        4.41398         2.39158        0.292724 
         4.4297         2.37692        0.290098 
        4.44541          2.3626        0.287505 
        4.46111         2.35162        0.284946 
        4.47683         2.33347        0.282416 
        4.49251         2.32638        0.279922 
        4.50819         2.31199        0.277459 
         4.5239         2.29928        0.275021 
        4.53962         2.28991         0.27261 
        4.55535         2.27622        0.270227 
        4.57106         2.26433        0.267875 
        4.58678         2.25193        0.265551 
         4.6025         2.23805        0.263254 
        4.61821         2.22287        0.260985 
        4.63391         2.21374        0.258745 
         4.6496         2.20103        0.256533 
        4.66532         2.18631        0.254343 
        4.68103         2.18032        0.252179 
        4.69673         2.16794        0.250043 
        4.71241         2.15103        0.247933 
        4.72811         2.14268        0.245844 
        4.74384         2.13546        0.243777 
        4.75955         2.12301        0.241737 
        4.77525         2.11267        0.239721 
        4.79096         2.09949        0.237725 
        4.80669          2.0939        0.235752 
         4.8224         2.07904        0.233803 
        4.83809         2.07146        0.231878 
        4.85379         2.05764        0.229973 
         4.8695         2.04519        0.228088 
        4.88521         2.03596        0.226226 
        4.90093         2.02259        0.224383 
        4.91663         2.01408        0.222563 
        4.93234         2.00692        0.220761 
        4.94807         1.99634        0.218978 
        4.96377         1.98381        0.217218 
        4.97943          1.9801        0.215481 
        4.99514         1.96614        0.213759 
        5.01086         1.95617        0.212054 
        5.02654         1.94815        0.210372 
        5.04227         1.94377        0.208703 
          5.058         1.93183        0.207051 
        5.07371         1.91971        0.205421 
        5.08942         1.91497        0.203808 
        5.10513         1.90143        0.202212 
        5.12084          1.8982        0.200632 
        5.13656         1.88133         0.19907 
        5.15225         1.87781        0.197526 
        5.16796         1.86468        0.195997 
        5.18369         1.85792        0.194483 
         5.1994         1.85088        0.192987 
        5.21509         1.84185        0.191508 
        5.23079         1.83405        0.190043 
        5.24649         1.82452        0.188594 
        5.26217         1.81909        0.187162 
        5.27788         1.80718        0.185742 
        5.29359         1.80696        0.184337 
        5.30933         1.79484        0.182945 
        5.32504         1.78377        0.181569 
        5.34073         1.77877        0.180208 
        5.35646         1.76804        0.178859 
        5.37218         1.76144        0.177524 
        5.38789         1.75848        0.176204 
        5.40357          1.7494        0.174899 
        5.41929         1.73957        0.173605 
        5.43502         1.73218        0.172323 
         5.4507         1.72266        0.171058 
        5.46639         1.72115        0.169804 
        5.48212         1.70951        0.168561 
        5.49786         1.70362        0.167328 
        5.51353         1.69434        0.166114 
        5.52921         1.68575        0.164911 
        5.54495         1.68094        0.163716 
        5.56066         1.67322        0.162535 
        5.57637         1.66421        0.161365 
        5.59207         1.65795        0.160207 
        5.60778         1.65041        0.159061 
        5.62346         1.64807        0.157927 
        5.63916         1.63894        0.156803 
        5.65487         1.63152         0.15569 
         5.6706         1.62696        0.154586 
        5.68633          1.6166        0.153493 
        5.70203         1.61038        0.152412 
        5.71773         1.60434        0.151342 
        5.73344         1.59504        0.150281 
        5.74916         1.58871         0.14923 
        5.76486         1.58258         0.14819 
        5.78054         1.57965        0.147162 
        5.79626         1.57116         0.14614 
          5.812         1.56776        0.145128 
         5.8277         1.55843        0.144127 
        5.84339         1.55361        0.143137 
        5.85911         1.54898        0.142153 
        5.87484         1.54196        0.141179 
        5.89053         1.53661        0.140216 
        5.90623         1.52808        0.139262 
        5.92195         1.52434        0.138315 
        5.93767         1.51664        0.137377 
        5.95336         1.51097        0.136449 
        5.96905         1.50419         0.13553 
        5.98476         1.50009        0.134619 
        6.00048         1.49205        0.133715 
        6.01617         1.49014        0.132821 
        6.03185         1.48262        0.131937 
        6.04756         1.47854        0.131058 
        6.06331         1.47066        0.130185 
        6.07903         1.46704        0.129322 
        6.09473         1.46223        0.128468 
        6.11044         1.45493        0.127621 
        6.12616         1.44866        0.126781 
        6.14186         1.44334         0.12595 
        6.15755         1.44065        0.125126 
        6.17326         1.43201        0.124309 
        6.18898         1.42965        0.123499 
        6.20467         1.42463        0.122698 
        6.22036         1.41704        0.121903 
         6.2361          1.4116        0.121114 
         6.2518         1.40659        0.120333 
        6.26748         1.40316        0.119561 
        6.28319         1.39653        0.118793 
        6.29893         1.39174        0.118031 
        6.31463         1.38575        0.117277 
        6.33033         1.38428         0.11653 
        6.34604         1.37694        0.115789 
        6.36177         1.37247        0.115054 
        6.37747         1.36768        0.114326 
