# k  (h/Mpc)    Pcb(k)  (Mpc/h)^3    Pcb_linear(k) (Mpc/h)^3   ShotnoiseSubtracted = true
      0.0200456         16866.7         17142.2 
      0.0350414         12827.5         12461.8 
      0.0492313          8911.2         9054.49 
      0.0637834         7193.37         7526.91 
      0.0800726         5655.16         5973.93 
       0.096163         4495.64          4334.6 
       0.111083         3659.21         3457.39 
       0.126058         3032.91         3063.95 
       0.142273         2638.39         2595.84 
       0.158546         2167.27         2050.17 
        0.17375         1916.62         1727.27 
       0.188953         1797.76            1564 
       0.204907         1541.86         1383.82 
       0.220756         1387.95          1170.8 
        0.23588          1237.3         1018.49 
         0.2514         1112.51          925.29 
       0.267535          1078.7         837.228 
       0.283568         951.158         738.323 
       0.299022         908.433         657.808 
       0.314451         936.158         601.192 
       0.330372         811.915         551.526 
       0.346141         748.716         500.594 
       0.361624         717.834         454.971 
       0.377134         681.916         418.645 
       0.392932         655.944         387.364 
       0.408854         625.717         357.075 
       0.424564         608.991         329.121 
       0.440253         557.517         305.133 
       0.455999         533.805         284.275 
       0.471626         542.626         265.107 
        0.48727         512.445         247.176 
       0.502856         479.864         231.067 
       0.518488         475.375         216.694 
       0.534347         447.411         203.333 
       0.550082         429.303         191.012 
       0.565732         425.809         179.741 
       0.581496         413.921         169.418 
       0.597222         402.323         159.951 
       0.612804         392.923         151.245 
       0.628434         377.262         143.131 
       0.644267         363.383         135.545 
       0.660051         358.509         128.553 
       0.675724         352.322         122.097 
       0.691403         344.113         116.079 
       0.707174         331.175         110.432 
       0.722871         325.945         105.184 
        0.73838         321.764         100.333 
       0.754018         309.736          95.751 
       0.769845         308.115         91.4055 
        0.78569         301.176          87.326 
       0.801365         292.246         83.5362 
       0.817031         288.625         79.9747 
       0.832809         283.555         76.5993 
       0.848511         276.712         73.4347 
       0.864097         269.997         70.4715 
       0.879701         268.532         67.6698 
       0.895507         261.071         64.9881 
       0.911279         254.548          62.458 
        0.92691         252.175         60.0841 
       0.942635         250.153         57.8211 
       0.958396         243.145         55.6703 
       0.974128         240.036         53.6333 
       0.989692         231.421         51.7188 
        1.00528         231.124         49.8954 
        1.02113         227.613         48.1316 
        1.03692         222.415           46.46 
        1.05264         218.741         44.8757 
        1.06832         218.327         43.3681 
        1.08405         212.229         41.9261 
        1.09979         210.648          40.549 
        1.11537         206.265         39.2476 
        1.13105         202.745         37.9959 
        1.14679         200.936         36.7941 
        1.16256         198.092         35.6421 
        1.17828         195.782         34.5434 
        1.19395         190.584         33.4949 
         1.2097         189.894         32.4848 
        1.22537         188.281         31.5213 
          1.241         183.199            30.6 
        1.25666          181.38         29.7133 
        1.27241         177.634         28.8577 
        1.28819         175.892         28.0345 
        1.30392         173.498         27.2459 
        1.31957         169.305         26.4912 
        1.33529         167.252         25.7625 
        1.35108         165.811         25.0583 
        1.36674         162.662         24.3856 
         1.3824         161.504         23.7383 
        1.39811         158.639         23.1124 
        1.41389         155.821         22.5067 
        1.42964         153.841         21.9239 
        1.44531         152.292         21.3645 
        1.46101         149.136         20.8236 
        1.47667         148.616          20.303 
        1.49229         146.175         19.8017 
        1.50793         143.507         19.3168 
        1.52367          142.03          18.845 
        1.53953         139.199         18.3859 
        1.55526         138.791         17.9457 
        1.57092         137.025         17.5219 
        1.58662         133.857         17.1107 
        1.60235         132.562          16.712 
        1.61809         130.831         16.3258 
        1.63369         128.855         15.9553 
        1.64941         128.045         15.5936 
        1.66519         126.076         15.2419 
        1.68085         123.715         14.9035 
        1.69652         122.664         14.5754 
        1.71228         121.562         14.2553 
        1.72806         120.138         13.9445 
        1.74368         118.242         13.6462 
        1.75933         117.271          13.356 
        1.77505         115.126         13.0729 
        1.79081         113.624         12.7975 
         1.8065          111.67         12.5313 
        1.82218         110.484         12.2729 
        1.83797         110.052           12.02 
        1.85367          108.12         11.7756 
        1.86928          107.44         11.5395 
        1.88497          105.42         11.3086 
        1.90073         104.685         11.0832 
        1.91647         102.954         10.8642 
        1.93218         101.788         10.6515 
        1.94787         100.189         10.4448 
        1.96363         99.3968         10.2429 
        1.97935         98.3005         10.0467 
        1.99499         97.5073          9.8567 
        2.01064         95.2012         9.67139 
         2.0264         94.7135         9.48968 
        2.04216         92.6664         9.31274 
        2.05781         92.3143         9.14143 
        2.07353         91.0659         8.97382 
        2.08928         89.7536         8.81006 
        2.10499         88.7007         8.65083 
        2.12065         88.1894         8.49602 
        2.13633         87.0148         8.34486 
        2.15211         85.6241         8.19641 
        2.16785         84.4204         8.05199 
        2.18349         83.3245         7.91197 
        2.19916         82.3452         7.77498 
        2.21489         81.5705         7.64078 
        2.23063         80.3365         7.50966 
         2.2463         79.8807         7.38222 
        2.26194          78.742         7.25805 
        2.27765          77.832          7.1361 
        2.29341         76.9383         7.01664 
        2.30914         76.0038         6.90016 
        2.32486         74.4454          6.7864 
        2.34061         74.0766         6.67501 
        2.35635          73.101         6.56623 
        2.37203         72.0774         6.46025 
        2.38768         71.4161         6.35682 
        2.40339         70.6856         6.25529 
        2.41914         69.5016         6.15575 
        2.43483         69.0418         6.05872 
         2.4505         68.0495         5.96395 
        2.46622         67.5501         5.87088 
        2.48195         66.5553         5.77979 
        2.49759         65.7981         5.69112 
        2.51328         65.0028         5.60408 
        2.52906         64.1531         5.51832 
        2.54479         63.5523         5.43466 
        2.56049         62.8137         5.35291 
        2.57618         61.9131         5.27291 
        2.59189         61.5178         5.19442 
        2.60758         60.6242         5.11766 
        2.62325         59.9556         5.04254 
        2.63898         59.3741         4.96867 
        2.65468         58.8057         4.89644 
        2.67044         58.1226         4.82533 
        2.68618         57.5513          4.7558 
        2.70184         56.7996         4.68791 
        2.71755         55.9855         4.62119 
        2.73329         55.5467         4.55566 
        2.74897         55.0312         4.49161 
        2.76462         54.6615         4.42894 
        2.78034         53.9346         4.36721 
        2.79607         53.1473         4.30658 
        2.81179          52.544         4.24718 
        2.82749          52.102         4.18897 
        2.84321         51.6704         4.13178 
        2.85893         51.0867         4.07568 
        2.87462         50.3589         4.02071 
        2.89033         49.7835         3.96671 
        2.90605         49.2299         3.91366 
        2.92176         48.8534          3.8616 
        2.93747         48.2416         3.81051 
        2.95318         47.7706         3.76034 
        2.96891         47.1941         3.71105 
        2.98456          46.792         3.66286 
        3.00023         46.0589         3.61546 
        3.01596         45.7053         3.56875 
        3.03164         45.2675         3.52299 
        3.04738         44.8423         3.47791 
         3.0631         44.3711         3.43363 
        3.07883         43.8599         3.39012 
        3.09456         43.3615         3.34737 
        3.11026          42.953         3.30542 
        3.12596         42.5447          3.2642 
        3.14163         42.0545         3.22377 
        3.15734         41.6391         3.18394 
        3.17308         41.2985         3.14468 
        3.18879         40.9432         3.10619 
        3.20447          40.457          3.0684 
         3.2202         40.0121         3.03112 
         3.2359          39.688         2.99453 
        3.25157         39.1842         2.95863 
        3.26729         38.8385         2.92321 
        3.28304         38.5135          2.8883 
        3.29877          37.949         2.85401 
        3.31446         37.6981         2.82034 
        3.33014          37.275         2.78725 
        3.34585         36.7991         2.75464 
        3.36158         36.5348         2.72251 
        3.37727         36.1697         2.69098 
        3.39294         35.7817         2.65999 
        3.40867         35.4805         2.62937 
        3.42439         35.0517         2.59925 
        3.44008         34.8014         2.56966 
        3.45578         34.4031          2.5405 
        3.47153         34.1724         2.51174 
        3.48724         33.7877         2.48347 
        3.50292         33.4416         2.45571 
        3.51859         33.2103         2.42838 
        3.53431         32.9187         2.40138 
        3.55007         32.3639         2.37472 
        3.56577         32.3179         2.34858 
        3.58146         31.8653         2.32284 
        3.59719         31.5808         2.29743 
        3.61292         31.3623          2.2724 
        3.62859         30.9775         2.24784 
        3.64429         30.7075          2.2236 
        3.66003         30.4164         2.19964 
        3.67578         30.1781         2.17605 
        3.69146         29.9224         2.15288 
        3.70712         29.5329          2.1301 
        3.72284         29.3157         2.10756 
        3.73853         29.1371         2.08539 
        3.75422         28.8481         2.06353 
        3.76993         28.5516         2.04196 
        3.78564         28.3005         2.02071 
        3.80137         28.1061         1.99973 
        3.81707         27.7873         1.97909 
        3.83279         27.5078         1.95872 
        3.84853          27.289         1.93861 
        3.86424         26.9223         1.91882 
        3.87992         26.6893         1.89933 
        3.89561         26.5364         1.88011 
        3.91134         26.2775         1.86112 
        3.92704         25.9842         1.84242 
        3.94273         25.6974         1.82399 
        3.95845         25.5714         1.80578 
        3.97418         25.2807         1.78781 
        3.98988         25.0812         1.77011 
        4.00554         24.8154          1.7527 
        4.02125         24.6692         1.73547 
        4.03698         24.4245         1.71845 
        4.05268         24.1836          1.7017 
        4.06839         23.9663         1.68515 
         4.0841         23.7862         1.66883 
        4.09983         23.5037         1.65271 
        4.11555         23.3152          1.6368 
        4.13124         23.2507         1.62115 
        4.14693         22.9115         1.60568 
        4.16266         22.7499         1.59039 
        4.17839         22.6011          1.5753 
        4.19408         22.3369         1.56044 
        4.20977         22.2111         1.54577 
        4.22551         22.0179         1.53125 
        4.24123          21.785         1.51693 
        4.25691         21.6106         1.50284 
        4.27259         21.4609         1.48891 
        4.28831         21.2582         1.47514 
        4.30404         21.0691         1.46153 
        4.31974         20.8664         1.44812 
        4.33543         20.7279         1.43488 
        4.35116         20.5466         1.42178 
        4.36688         20.3434         1.40885 
        4.38255         20.1613         1.39612 
        4.39825         20.0308         1.38353 
        4.41398         19.8653         1.37106 
         4.4297         19.6993         1.35877 
        4.44541         19.5036         1.34662 
        4.46111         19.3084         1.33463 
        4.47683         19.1616         1.32278 
        4.49251         19.0542          1.3111 
        4.50819         18.8911         1.29956 
         4.5239         18.7312         1.28815 
        4.53962         18.6019         1.27685 
        4.55535         18.4121         1.26569 
        4.57106         18.3213         1.25468 
        4.58678         18.1307         1.24379 
         4.6025         17.8992         1.23303 
        4.61821         17.8094          1.2224 
        4.63391         17.6688         1.21191 
         4.6496         17.5759         1.20155 
        4.66532         17.3664         1.19129 
        4.68103         17.2529         1.18116 
        4.69673         17.1399         1.17115 
        4.71241         17.0242         1.16127 
        4.72811         16.8508         1.15149 
        4.74384         16.6968         1.14181 
        4.75955         16.5756         1.13225 
        4.77525         16.4599         1.12281 
        4.79096         16.3016         1.11346 
        4.80669         16.1792         1.10422 
         4.8224          16.038         1.09509 
        4.83809         15.9054         1.08607 
        4.85379         15.8072         1.07715 
         4.8695         15.7011         1.06832 
        4.88521         15.5569          1.0596 
        4.90093         15.4241         1.05097 
        4.91663         15.2824         1.04244 
        4.93234         15.1777           1.034 
        4.94807         15.0777         1.02565 
        4.96377         14.9519         1.01741 
        4.97943         14.8542         1.00927 
        4.99514         14.7101         1.00121 
        5.01086          14.634        0.993219 
        5.02654         14.4993        0.985341 
        5.04227         14.3749        0.977524 
          5.058         14.2729        0.969789 
        5.07371         14.1573        0.962152 
        5.08942         14.0885        0.954597 
        5.10513         13.9452        0.947122 
        5.12084         13.8617        0.939723 
        5.13656         13.7583        0.932405 
        5.15225          13.641        0.925176 
        5.16796         13.5111        0.918013 
        5.18369         13.4075         0.91092 
         5.1994         13.3271        0.903914 
        5.21509         13.2136        0.896987 
        5.23079         13.1388        0.890126 
        5.24649         13.0372        0.883341 
        5.26217         12.9389        0.876632 
        5.27788         12.8259        0.869982 
        5.29359         12.7278        0.863401 
        5.30933         12.6668        0.856878 
        5.32504         12.5724        0.850434 
        5.34073         12.4691        0.844062 
        5.35646         12.3942        0.837743 
        5.37218         12.2788        0.831488 
        5.38789          12.171        0.825306 
        5.40357         12.1161        0.819195 
        5.41929         12.0287        0.813132 
        5.43502          11.928        0.807129 
         5.4507         11.8442        0.801201 
        5.46639         11.7411        0.795332 
        5.48212         11.6706        0.789508 
        5.49786         11.6013        0.783735 
        5.51353         11.5002        0.778049 
        5.52921         11.4315        0.772413 
        5.54495         11.3478        0.766816 
        5.56066         11.2496        0.761281 
        5.57637         11.1854        0.755801 
        5.59207         11.1258         0.75038 
        5.60778         11.0335         0.74501 
        5.62346         10.9191        0.739701 
        5.63916         10.8695        0.734437 
        5.65487         10.8127        0.729223 
         5.6706         10.7096        0.724052 
        5.68633          10.628         0.71893 
        5.70203         10.5647        0.713868 
        5.71773         10.4603        0.708856 
        5.73344          10.404        0.703889 
        5.74916         10.3429        0.698965 
        5.76486         10.2756        0.694094 
        5.78054         10.2013        0.689278 
        5.79626         10.1475        0.684494 
          5.812         10.0691         0.67975 
         5.8277         9.98826        0.675065 
        5.84339          9.9009        0.670424 
        5.85911         9.83828        0.665818 
        5.87484          9.7721        0.661256 
        5.89053         9.69986        0.656746 
        5.90623         9.64611        0.652276 
        5.92195         9.57845        0.647839 
        5.93767         9.53601        0.643447 
        5.95336         9.43565        0.639102 
        5.96905         9.39266        0.634799 
        5.98476          9.3177        0.630529 
        6.00048          9.2594        0.626297 
        6.01617         9.18448         0.62211 
        6.03185         9.13135        0.617966 
        6.04756         9.06358         0.61385 
        6.06331         9.01306        0.609763 
        6.07903         8.94913        0.605721 
        6.09473         8.88946         0.60172 
        6.11044         8.82601        0.597751 
        6.12616         8.77246        0.593818 
        6.14186         8.72036        0.589925 
        6.15755         8.65657        0.586067 
        6.17326         8.60148        0.582241 
        6.18898         8.54166        0.578447 
        6.20467         8.47448        0.574693 
        6.22036         8.42012        0.570973 
         6.2361         8.35648        0.567276 
         6.2518         8.32884        0.563617 
        6.26748         8.25007        0.559999 
        6.28319         8.21924        0.556403 
        6.29893         8.16401        0.552835 
        6.31463         8.08517        0.549304 
        6.33033         8.04276        0.545805 
        6.34604         7.99795        0.542335 
        6.36177         7.95988        0.538891 
        6.37747         7.88261        0.535483 
