# k  (h/Mpc)    Pcb(k)  (Mpc/h)^3    Pcb_linear(k) (Mpc/h)^3   ShotnoiseSubtracted = true
      0.0200456         13110.6         13311.7 
      0.0350414         9941.83         9677.16 
      0.0492313         6952.02         7031.24 
      0.0637834         5621.03         5845.01 
      0.0800726         4425.49         4639.04 
       0.096163         3484.72         3366.03 
       0.111083         2833.18         2684.83 
       0.126058         2357.38         2379.31 
       0.142273         2038.03         2015.79 
       0.158546         1673.86         1592.06 
        0.17375         1468.66         1341.31 
       0.188953         1365.36         1214.52 
       0.204907         1167.51          1074.6 
       0.220756          1047.7          909.18 
        0.23588         931.923         790.908 
         0.2514         835.026         718.532 
       0.267535         810.113         650.148 
       0.283568         709.436         573.343 
       0.299022         676.919         510.819 
       0.314451         687.781         466.854 
       0.330372         591.715         428.286 
       0.346141         547.712         388.735 
       0.361624           523.8         353.307 
       0.377134         492.178         325.098 
       0.392932         476.323         300.807 
       0.408854         453.315         277.286 
       0.424564         438.834         255.578 
       0.440253          398.03         236.951 
       0.455999         381.223         220.753 
       0.471626         384.076         205.868 
        0.48727         363.772         191.944 
       0.502856         335.231         179.435 
       0.518488         335.997         168.273 
       0.534347          312.74         157.897 
       0.550082         302.752          148.33 
       0.565732         301.119         139.578 
       0.581496         287.456         131.561 
       0.597222         279.427         124.209 
       0.612804         272.097         117.449 
       0.628434         261.811         111.148 
       0.644267         250.656         105.257 
       0.660051         246.729         99.8276 
       0.675724         243.694         94.8141 
       0.691403         237.196         90.1407 
       0.707174         228.734          85.756 
       0.722871         225.261         81.6804 
        0.73838         223.165         77.9132 
       0.754018         212.075         74.3552 
       0.769845         211.828         70.9807 
        0.78569         206.435         67.8128 
       0.801365         200.763         64.8698 
       0.817031         196.525         62.1042 
       0.832809         193.296          59.483 
       0.848511         188.471         57.0256 
       0.864097         184.226         54.7245 
       0.879701         183.115         52.5489 
       0.895507         178.715         50.4664 
       0.911279         173.475         48.5016 
        0.92691         171.131         46.6582 
       0.942635         169.158         44.9008 
       0.958396         165.671         43.2306 
       0.974128          162.48         41.6489 
       0.989692         157.777         40.1621 
        1.00528         156.836         38.7461 
        1.02113         153.352         37.3765 
        1.03692         151.171         36.0784 
        1.05264         149.055         34.8481 
        1.06832         147.039         33.6774 
        1.08405           143.9         32.5576 
        1.09979         143.048         31.4882 
        1.11537          139.85         30.4777 
        1.13105         138.201         29.5056 
        1.14679         136.063         28.5723 
        1.16256         133.771         27.6778 
        1.17828         132.269         26.8246 
        1.19395         129.097         26.0104 
         1.2097          128.25          25.226 
        1.22537         126.213         24.4778 
          1.241         124.455         23.7624 
        1.25666         121.695         23.0738 
        1.27241         119.229         22.4094 
        1.28819         118.625         21.7701 
        1.30392         116.538         21.1578 
        1.31957         114.556         20.5717 
        1.33529         113.355         20.0058 
        1.35108         112.176          19.459 
        1.36674         110.056         18.9366 
         1.3824         109.726         18.4339 
        1.39811         106.904         17.9479 
        1.41389         106.044         17.4776 
        1.42964         103.836         17.0249 
        1.44531         103.019         16.5906 
        1.46101          101.31         16.1705 
        1.47667         100.891         15.7663 
        1.49229         99.7255          15.377 
        1.50793         97.7564         15.0004 
        1.52367         96.7628          14.634 
        1.53953         95.5837         14.2775 
        1.55526         94.2317         13.9357 
        1.57092         93.6184         13.6066 
        1.58662          92.239         13.2873 
        1.60235          90.694         12.9777 
        1.61809         90.0104         12.6778 
        1.63369         88.3763           12.39 
        1.64941         88.3762         12.1092 
        1.66519         86.5256         11.8361 
        1.68085         85.3857         11.5733 
        1.69652         84.0101         11.3185 
        1.71228         83.1653         11.0699 
        1.72806         82.5419         10.8286 
        1.74368         81.0965         10.5969 
        1.75933         80.4452         10.3716 
        1.77505          79.674         10.1517 
        1.79081         78.2575          9.9379 
         1.8065         77.8182         9.73114 
        1.82218          76.389         9.53046 
        1.83797         76.0143         9.33408 
        1.85367          74.585         9.14432 
        1.86928         73.9447         8.96099 
        1.88497         73.2527         8.78169 
        1.90073         72.3485         8.60665 
        1.91647         71.2128         8.43654 
        1.93218         70.4895          8.2714 
        1.94787         69.6086         8.11092 
        1.96363         68.7631         7.95408 
        1.97935         68.1349         7.80171 
        1.99499         67.3432          7.6542 
        2.01064          66.534         7.51029 
         2.0264         65.5951         7.36919 
        2.04216         64.8784         7.23178 
        2.05781         64.1634         7.09876 
        2.07353         63.4436          6.9686 
        2.08928         62.6457         6.84143 
        2.10499         61.9568         6.71778 
        2.12065         61.4308         6.59756 
        2.13633         60.8644         6.48018 
        2.15211         59.9284         6.36491 
        2.16785         58.9791         6.25276 
        2.18349         58.5167         6.14402 
        2.19916         57.7804         6.03764 
        2.21489         57.2201         5.93343 
        2.23063         56.4645         5.83161 
         2.2463         55.9702         5.73264 
        2.26194         55.6004         5.63622 
        2.27765         54.7033         5.54152 
        2.29341         54.0495         5.44876 
        2.30914         53.3765         5.35831 
        2.32486         52.7474         5.26996 
        2.34061         52.4217         5.18347 
        2.35635         51.5585         5.09899 
        2.37203         51.1443         5.01669 
        2.38768         50.6712         4.93638 
        2.40339         50.1048         4.85753 
        2.41914         49.5081         4.78023 
        2.43483         48.8643         4.70488 
         2.4505         48.5342         4.63129 
        2.46622          47.986         4.55902 
        2.48195         47.3646         4.48828 
        2.49759         46.8077         4.41943 
        2.51328         46.5057         4.35184 
        2.52906         45.8415         4.28524 
        2.54479         45.4906         4.22028 
        2.56049         44.6646         4.15679 
        2.57618         44.3921         4.09467 
        2.59189         43.9819         4.03372 
        2.60758         43.2778         3.97411 
        2.62325         43.0368         3.91578 
        2.63898         42.5795         3.85841 
        2.65468         42.1765         3.80232 
        2.67044         41.7793          3.7471 
        2.68618         41.3886          3.6931 
        2.70184         40.6808         3.64039 
        2.71755         40.4682         3.58857 
        2.73329         39.8547         3.53769 
        2.74897         39.6714         3.48795 
        2.76462          39.079         3.43928 
        2.78034         38.7644         3.39134 
        2.79607         38.2773         3.34427 
        2.81179         37.9475         3.29814 
        2.82749         37.4916         3.25293 
        2.84321          37.093         3.20852 
        2.85893          36.672         3.16496 
        2.87462         36.2799         3.12228 
        2.89033          36.035         3.08034 
        2.90605         35.5572         3.03914 
        2.92176         35.3711         2.99871 
        2.93747         35.0386         2.95905 
        2.95318         34.6109         2.92008 
        2.96891         34.1863         2.88181 
        2.98456         33.9707         2.84439 
        3.00023         33.5598         2.80758 
        3.01596         33.2417          2.7713 
        3.03164         32.8809         2.73577 
        3.04738         32.6048         2.70076 
         3.0631         32.3736         2.66638 
        3.07883         31.9175         2.63259 
        3.09456          31.489         2.59939 
        3.11026          31.227         2.56682 
        3.12596         30.9576         2.53481 
        3.14163         30.6544         2.50341 
        3.15734         30.3427         2.47248 
        3.17308         30.0347         2.44199 
        3.18879         29.7212         2.41211 
        3.20447         29.4614         2.38276 
         3.2202         29.1625         2.35381 
         3.2359         28.8585          2.3254 
        3.25157         28.6722         2.29752 
        3.26729         28.3246         2.27001 
        3.28304         27.9825          2.2429 
        3.29877          27.656         2.21627 
        3.31446         27.4385         2.19013 
        3.33014          27.229         2.16444 
        3.34585         26.9376         2.13911 
        3.36158         26.7328         2.11416 
        3.37727         26.4209         2.08968 
        3.39294          26.153         2.06561 
        3.40867         25.9052         2.04183 
        3.42439          25.726         2.01844 
        3.44008         25.4495         1.99546 
        3.45578         25.3172         1.97282 
        3.47153         24.9518         1.95049 
        3.48724         24.7202         1.92854 
        3.50292          24.507         1.90697 
        3.51859         24.2355         1.88575 
        3.53431         24.0315         1.86478 
        3.55007         23.7851         1.84409 
        3.56577         23.5743         1.82378 
        3.58146         23.4017          1.8038 
        3.59719         23.1517         1.78406 
        3.61292          22.944         1.76463 
        3.62859         22.7435         1.74556 
        3.64429         22.4738         1.72673 
        3.66003         22.3588         1.70813 
        3.67578         22.1305          1.6898 
        3.69146         21.9089         1.67182 
        3.70712         21.7523         1.65412 
        3.72284         21.5518         1.63662 
        3.73853         21.3738          1.6194 
        3.75422         21.0629         1.60243 
        3.76993         20.9212         1.58568 
        3.78564         20.7297         1.56918 
        3.80137         20.5547         1.55288 
        3.81707         20.4039         1.53685 
        3.83279         20.2082         1.52104 
        3.84853         20.0036         1.50542 
        3.86424         19.8227         1.49005 
        3.87992         19.6376         1.47492 
        3.89561         19.5223            1.46 
        3.91134         19.2394         1.44525 
        3.92704         19.1549         1.43073 
        3.94273         18.9236         1.41641 
        3.95845          18.792         1.40227 
        3.97418         18.5812         1.38832 
        3.98988         18.4521         1.37457 
        4.00554         18.3544         1.36105 
        4.02125          18.089         1.34768 
        4.03698         17.9309         1.33446 
        4.05268         17.8105         1.32145 
        4.06839         17.6856          1.3086 
         4.0841         17.4757         1.29593 
        4.09983         17.3218         1.28341 
        4.11555          17.163         1.27105 
        4.13124         17.0745          1.2589 
        4.14693         16.9094         1.24689 
        4.16266         16.8101         1.23501 
        4.17839         16.6308          1.2233 
        4.19408          16.464         1.21176 
        4.20977         16.3538         1.20036 
        4.22551         16.2003         1.18909 
        4.24123         16.0618         1.17797 
        4.25691         15.8632         1.16702 
        4.27259          15.803         1.15621 
        4.28831         15.7026         1.14552 
        4.30404         15.5244         1.13495 
        4.31974         15.4368         1.12453 
        4.33543         15.2885         1.11425 
        4.35116          15.123         1.10408 
        4.36688         15.0355         1.09404 
        4.38255         14.9132         1.08416 
        4.39825         14.7244         1.07438 
        4.41398         14.6693          1.0647 
         4.4297         14.5182         1.05515 
        4.44541         14.3775         1.04572 
        4.46111         14.2948         1.03641 
        4.47683         14.1417          1.0272 
        4.49251         14.0421         1.01813 
        4.50819         13.9269         1.00917 
         4.5239         13.8036         1.00031 
        4.53962          13.722        0.991539 
        4.55535          13.593         0.98287 
        4.57106         13.4944        0.974317 
        4.58678         13.3748        0.965865 
         4.6025         13.2787         0.95751 
        4.61821         13.1629        0.949256 
        4.63391         13.0545        0.941109 
         4.6496         12.9344        0.933062 
        4.66532         12.8321        0.925096 
        4.68103         12.7293        0.917226 
        4.69673         12.6237        0.909456 
        4.71241         12.5486        0.901783 
        4.72811         12.4451        0.894186 
        4.74384         12.3514        0.886666 
        4.75955         12.2473        0.879245 
        4.77525         12.1421        0.871913 
        4.79096         12.0588        0.864655 
        4.80669         11.9885        0.857476 
         4.8224         11.8865        0.850387 
        4.83809         11.8074        0.843386 
        4.85379         11.6883        0.836459 
         4.8695         11.5929        0.829604 
        4.88521         11.5297        0.822829 
        4.90093         11.4609        0.816128 
        4.91663         11.3611        0.809508 
        4.93234         11.2529        0.802954 
        4.94807         11.1786        0.796469 
        4.96377         11.0826        0.790067 
        4.97943         11.0164        0.783749 
        4.99514         10.8832        0.777484 
        5.01086         10.8256        0.771282 
        5.02654         10.7443        0.765164 
        5.04227         10.6237        0.759094 
          5.058         10.5829        0.753087 
        5.07371         10.5064        0.747157 
        5.08942         10.4478         0.74129 
        5.10513         10.3399        0.735485 
        5.12084         10.2818         0.72974 
        5.13656          10.199        0.724057 
        5.15225          10.108        0.718444 
        5.16796         10.0462        0.712881 
        5.18369          9.9786        0.707373 
         5.1994         9.87125        0.701932 
        5.21509         9.81042        0.696554 
        5.23079         9.71846        0.691225 
        5.24649         9.66586        0.685956 
        5.26217         9.58378        0.680746 
        5.27788         9.53305        0.675583 
        5.29359         9.44055        0.670472 
        5.30933          9.4029        0.665407 
        5.32504         9.31653        0.660402 
        5.34073         9.26693        0.655455 
        5.35646         9.17173        0.650548 
        5.37218         9.11928         0.64569 
        5.38789          9.0482         0.64089 
        5.40357         8.96671        0.636144 
        5.41929         8.93142        0.631436 
        5.43502         8.86259        0.626774 
         5.4507         8.78061        0.622171 
        5.46639         8.73819        0.617613 
        5.48212         8.65577        0.613091 
        5.49786         8.59641        0.608608 
        5.51353          8.5482        0.604192 
        5.52921          8.4933        0.599815 
        5.54495         8.43074        0.595469 
        5.56066         8.35322        0.591171 
        5.57637         8.30724        0.586916 
        5.59207         8.24813        0.582706 
        5.60778         8.18521        0.578536 
        5.62346         8.13068        0.574413 
        5.63916         8.08261        0.570326 
        5.65487         8.02364        0.566276 
         5.6706          7.9665        0.562261 
        5.68633         7.90327        0.558284 
        5.70203         7.83648        0.554353 
        5.71773         7.79922         0.55046 
        5.73344         7.74891        0.546603 
        5.74916         7.69664        0.542779 
        5.76486         7.64374        0.538997 
        5.78054         7.58718        0.535257 
        5.79626         7.52326        0.531542 
          5.812          7.4986        0.527858 
         5.8277         7.43684         0.52422 
        5.84339          7.3817        0.520617 
        5.85911         7.31831         0.51704 
        5.87484         7.28359        0.513497 
        5.89053         7.22907        0.509995 
        5.90623         7.17152        0.506523 
        5.92195         7.13615        0.503078 
        5.93767         7.08168        0.499667 
        5.95336         7.04556        0.496293 
        5.96905         6.98305        0.492952 
        5.98476         6.93896        0.489636 
        6.00048         6.89779         0.48635 
        6.01617         6.84504        0.483098 
        6.03185         6.80678         0.47988 
        6.04756         6.76072        0.476684 
        6.06331         6.71485         0.47351 
        6.07903          6.6692        0.470371 
        6.09473         6.62573        0.467264 
        6.11044         6.59946        0.464182 
        6.12616         6.53367        0.461128 
        6.14186         6.50209        0.458105 
        6.15755         6.45312        0.455109 
        6.17326         6.42292        0.452138 
        6.18898         6.37045        0.449191 
        6.20467         6.32538        0.446277 
        6.22036          6.2927        0.443388 
         6.2361         6.24262        0.440517 
         6.2518         6.20318        0.437676 
        6.26748          6.1644        0.434866 
        6.28319         6.12306        0.432073 
        6.29893         6.09518        0.429302 
        6.31463         6.04432        0.426561 
        6.33033         6.01449        0.423844 
        6.34604         5.96976        0.421149 
        6.36177         5.92586        0.418474 
        6.37747         5.90155        0.415828 
