# k  (h/Mpc)    Pcb(k)  (Mpc/h)^3    Pcb_linear(k) (Mpc/h)^3   ShotnoiseSubtracted = true
      0.0200456         4779.98         4857.29 
      0.0350414         3471.77         3531.09 
      0.0492313         2563.29         2565.62 
      0.0637834         2166.43         2132.78 
      0.0800726         1717.03         1692.73 
       0.096163         1214.25         1228.22 
       0.111083         963.105         979.663 
       0.126058         878.646         868.181 
       0.142273         754.888          735.54 
       0.158546         610.911         580.923 
        0.17375         497.224         489.427 
       0.188953         468.346         443.165 
       0.204907         435.663         392.111 
       0.220756         364.349         331.749 
        0.23588         318.225         288.593 
         0.2514           281.9         262.184 
       0.267535         264.838         237.231 
       0.283568          238.78         209.206 
       0.299022         218.716         186.392 
       0.314451         198.401          170.35 
       0.330372         184.269         156.277 
       0.346141         166.181         141.845 
       0.361624         156.634         128.918 
       0.377134         147.374         118.625 
       0.392932         132.941         109.761 
       0.408854         127.769         101.178 
       0.424564         122.071         93.2576 
       0.440253         113.603         86.4606 
       0.455999         106.934         80.5503 
       0.471626         99.0927         75.1188 
        0.48727         95.8111          70.038 
       0.502856         90.9789         65.4737 
       0.518488          87.644         61.4011 
       0.534347         84.1109          57.615 
       0.550082         77.4249          54.124 
       0.565732         73.6188         50.9303 
       0.581496         71.2087         48.0052 
       0.597222         68.8778         45.3226 
       0.612804         64.9828         42.8559 
       0.628434         63.3185         40.5566 
       0.644267         61.4211         38.4071 
       0.660051         59.1462         36.4259 
       0.675724         56.4904         34.5966 
       0.691403         54.7947         32.8913 
       0.707174         53.1219         31.2914 
       0.722871         51.3128         29.8042 
        0.73838         49.9323         28.4296 
       0.754018         47.5669         27.1314 
       0.769845         46.4744         25.9001 
        0.78569         45.1672         24.7441 
       0.801365         43.5546         23.6703 
       0.817031         42.5374         22.6611 
       0.832809         41.7925         21.7047 
       0.848511         39.5136          20.808 
       0.864097         38.7661         19.9683 
       0.879701         38.0651         19.1745 
       0.895507         37.4424         18.4146 
       0.911279         36.2641         17.6977 
        0.92691         35.3935          17.025 
       0.942635         34.1119         16.3838 
       0.958396         33.7906         15.7744 
       0.974128         32.7781         15.1972 
       0.989692         32.3482         14.6547 
        1.00528         31.6167          14.138 
        1.02113         30.5117         13.6382 
        1.03692         29.9268         13.1646 
        1.05264         29.4678         12.7157 
        1.06832         28.7322         12.2885 
        1.08405         28.1865         11.8799 
        1.09979         27.6203         11.4897 
        1.11537         26.9193         11.1209 
        1.13105         26.7338         10.7663 
        1.14679         26.3543         10.4257 
        1.16256         25.4722         10.0993 
        1.17828         25.2392         9.78799 
        1.19395         24.6026          9.4909 
         1.2097         24.4283         9.20468 
        1.22537         23.9156         8.93168 
          1.241         23.4617         8.67061 
        1.25666         22.8544         8.41937 
        1.27241         22.5712         8.17694 
        1.28819         22.0357         7.94367 
        1.30392         21.8649         7.72022 
        1.31957         21.6614         7.50638 
        1.33529         21.3649         7.29989 
        1.35108         20.8599         7.10037 
        1.36674          20.546         6.90975 
         1.3824         20.1405         6.72633 
        1.39811          19.906         6.54898 
        1.41389          19.717         6.37736 
        1.42964         19.3762          6.2122 
        1.44531         19.2576         6.05371 
        1.46101         18.7267         5.90043 
        1.47667         18.5141         5.75293 
        1.49229         18.3258         5.61087 
        1.50793         18.0767         5.47347 
        1.52367         17.8565         5.33979 
        1.53953         17.6431          5.2097 
        1.55526         17.3282         5.08499 
        1.57092         17.0718         4.96488 
        1.58662         16.9079         4.84838 
        1.60235         16.6764          4.7354 
        1.61809         16.4818         4.62597 
        1.63369         16.2732         4.52098 
        1.64941          15.962          4.4185 
        1.66519         15.8975         4.31884 
        1.68085         15.6478         4.22297 
        1.69652         15.4477         4.12998 
        1.71228         15.2833         4.03928 
        1.72806         15.1502         3.95123 
        1.74368         14.9208         3.86669 
        1.75933          14.759         3.78447 
        1.77505         14.5801         3.70425 
        1.79081         14.3736         3.62622 
         1.8065          14.304         3.55078 
        1.82218         14.0342         3.47756 
        1.83797         13.8814          3.4059 
        1.85367          13.733         3.33666 
        1.86928         13.6785         3.26976 
        1.88497         13.4237         3.20434 
        1.90073         13.4039         3.14047 
        1.91647         13.2154          3.0784 
        1.93218         13.0986         3.01814 
        1.94787         12.9519         2.95958 
        1.96363         12.8507         2.90235 
        1.97935         12.6719         2.84675 
        1.99499         12.4987         2.79293 
        2.01064         12.3892         2.74042 
         2.0264         12.2725         2.68893 
        2.04216          12.136         2.63879 
        2.05781         11.9567         2.59025 
        2.07353         11.8915         2.54276 
        2.08928         11.7679         2.49636 
        2.10499         11.6815         2.45124 
        2.12065         11.4995         2.40737 
        2.13633         11.4885         2.36454 
        2.15211         11.3044         2.32248 
        2.16785         11.2769         2.28156 
        2.18349         11.1862         2.24188 
        2.19916         11.0236         2.20307 
        2.21489         10.9364         2.16504 
        2.23063         10.8132         2.12789 
         2.2463         10.6936         2.09178 
        2.26194         10.6039         2.05659 
        2.27765         10.5658         2.02204 
        2.29341         10.4336         1.98819 
        2.30914         10.2727         1.95518 
        2.32486         10.2428         1.92295 
        2.34061         10.1436         1.89139 
        2.35635         10.0623         1.86056 
        2.37203         9.99121         1.83053 
        2.38768         9.82918         1.80123 
        2.40339         9.75848         1.77246 
        2.41914         9.65629         1.74425 
        2.43483          9.6335         1.71676 
         2.4505         9.54717          1.6899 
        2.46622         9.44176         1.66353 
        2.48195         9.38199         1.63772 
        2.49759         9.28992          1.6126 
        2.51328         9.19036         1.58794 
        2.52906         9.13372         1.56363 
        2.54479         9.04267         1.53993 
        2.56049         9.00367         1.51677 
        2.57618         8.93758          1.4941 
        2.59189         8.80765         1.47186 
        2.60758         8.79249         1.45011 
        2.62325         8.71902         1.42882 
        2.63898         8.58039         1.40789 
        2.65468         8.50195         1.38742 
        2.67044         8.46738         1.36727 
        2.68618         8.38223         1.34757 
        2.70184         8.33482         1.32834 
        2.71755         8.24782         1.30943 
        2.73329          8.1706         1.29086 
        2.74897         8.12314         1.27271 
        2.76462          8.0984         1.25496 
        2.78034         7.97411         1.23746 
        2.79607          7.9337         1.22029 
        2.81179         7.87973         1.20345 
        2.82749         7.83212         1.18696 
        2.84321         7.78573         1.17075 
        2.85893         7.71167         1.15486 
        2.87462         7.63178         1.13928 
        2.89033         7.56108         1.12398 
        2.90605          7.5136         1.10895 
        2.92176         7.45608          1.0942 
        2.93747         7.40106         1.07972 
        2.95318          7.3821         1.06551 
        2.96891         7.29325         1.05154 
        2.98456         7.22348         1.03788 
        3.00023         7.16869         1.02445 
        3.01596         7.13941         1.01122 
        3.03164          7.0906        0.998252 
        3.04738         7.05721        0.985478 
         3.0631         6.96566        0.972931 
        3.07883         6.91911        0.960602 
        3.09456         6.86887        0.948488 
        3.11026         6.82202        0.936602 
        3.12596         6.78051        0.924921 
        3.14163         6.70907        0.913467 
        3.15734         6.67039        0.902179 
        3.17308         6.62254        0.891055 
        3.18879         6.55798        0.880149 
        3.20447         6.53593        0.869442 
         3.2202         6.45688        0.858879 
         3.2359         6.44272        0.848511 
        3.25157         6.38516        0.838338 
        3.26729         6.36009        0.828302 
        3.28304         6.28735         0.81841 
        3.29877         6.23838        0.808693 
        3.31446         6.20481        0.799154 
        3.33014         6.16434        0.789778 
        3.34585         6.13296        0.780538 
        3.36158         6.07517        0.771431 
        3.37727         6.04489        0.762499 
        3.39294         6.01189        0.753716 
        3.40867         5.93994         0.74504 
        3.42439          5.9188        0.736505 
        3.44008         5.86497        0.728121 
        3.45578         5.82471        0.719861 
        3.47153         5.79203         0.71171 
        3.48724          5.7587          0.7037 
        3.50292         5.71903        0.695833 
        3.51859         5.67238        0.688089 
        3.53431         5.61947        0.680438 
        3.55007         5.60274        0.672886 
        3.56577         5.56737        0.665478 
        3.58146         5.53855        0.658184 
        3.59719         5.48259        0.650983 
        3.61292         5.46347        0.643892 
        3.62859          5.4083        0.636934 
        3.64429         5.37946        0.630065 
        3.66003         5.33547        0.623276 
        3.67578          5.3064         0.61659 
        3.69146         5.24453        0.610027 
        3.70712         5.23912        0.603571 
        3.72284          5.1934        0.597185 
        3.73853         5.16512        0.590902 
        3.75422         5.12591        0.584708 
        3.76993         5.10295        0.578596 
        3.78564         5.05141        0.572575 
        3.80137         5.03173        0.566629 
        3.81707         4.99697        0.560781 
        3.83279         4.96184         0.55501 
        3.84853         4.91421        0.549311 
        3.86424         4.88236        0.543703 
        3.87992           4.861        0.538181 
        3.89561         4.83965        0.532736 
        3.91134         4.78892        0.527356 
        3.92704          4.7538        0.522055 
        3.94273         4.73462        0.516833 
        3.95845         4.71157        0.511673 
        3.97418         4.67442        0.506582 
        3.98988         4.64802        0.501567 
        4.00554         4.61623        0.496633 
        4.02125         4.59097        0.491752 
        4.03698         4.54921        0.486929 
        4.05268         4.51564        0.482181 
        4.06839         4.49928        0.477493 
         4.0841         4.45497        0.472869 
        4.09983         4.42571          0.4683 
        4.11555         4.38452        0.463793 
        4.13124         4.36273        0.459357 
        4.14693         4.33002        0.454976 
        4.16266          4.3068        0.450642 
        4.17839         4.28036        0.446367 
        4.19408         4.23589        0.442157 
        4.20977         4.21856        0.437999 
        4.22551          4.1845        0.433885 
        4.24123          4.1694        0.429828 
        4.25691         4.14438        0.425833 
        4.27259          4.1263        0.421889 
        4.28831         4.09066        0.417986 
        4.30404         4.06175        0.414129 
        4.31974         4.03485        0.410329 
        4.33543           3.993        0.406579 
        4.35116         3.97573        0.402866 
        4.36688         3.94653        0.399201 
        4.38255         3.91979        0.395596 
        4.39825         3.91271        0.392027 
        4.41398         3.89033        0.388495 
         4.4297         3.86014        0.385011 
        4.44541         3.83157         0.38157 
        4.46111         3.81599        0.378173 
        4.47683         3.77336        0.374815 
        4.49251          3.7595        0.371505 
        4.50819         3.73951        0.368236 
         4.5239         3.71836        0.365001 
        4.53962         3.70127        0.361801 
        4.55535         3.67501        0.358638 
        4.57106         3.64703        0.355517 
        4.58678         3.62448        0.352433 
         4.6025          3.6082        0.349384 
        4.61821         3.58573        0.346373 
        4.63391         3.56355          0.3434 
         4.6496         3.54858        0.340463 
        4.66532         3.51107        0.337557 
        4.68103         3.48577        0.334685 
        4.69673         3.47356         0.33185 
        4.71241         3.44225         0.32905 
        4.72811         3.42872        0.326278 
        4.74384         3.41651        0.323534 
        4.75955         3.38981        0.320826 
        4.77525         3.36748        0.318151 
        4.79096         3.34272        0.315503 
        4.80669         3.32821        0.312883 
         4.8224         3.31458        0.310297 
        4.83809         3.29083        0.307742 
        4.85379         3.27112        0.305214 
         4.8695         3.24999        0.302713 
        4.88521         3.23026        0.300241 
        4.90093         3.21922        0.297796 
        4.91663         3.19758         0.29538 
        4.93234         3.17703        0.292989 
        4.94807         3.16476        0.290622 
        4.96377         3.13493        0.288286 
        4.97943         3.11922        0.285981 
        4.99514         3.09451        0.283695 
        5.01086         3.08342        0.281432 
        5.02654         3.06279          0.2792 
        5.04227         3.05229        0.276985 
          5.058          3.0423        0.274793 
        5.07371          3.0133        0.272629 
        5.08942         3.00212        0.270488 
        5.10513         2.98326         0.26837 
        5.12084         2.96505        0.266274 
        5.13656         2.95039          0.2642 
        5.15225         2.93127        0.262152 
        5.16796         2.91074        0.260122 
        5.18369         2.90069        0.258112 
         5.1994         2.88361        0.256127 
        5.21509         2.86504        0.254164 
        5.23079         2.84884         0.25222 
        5.24649         2.83751        0.250298 
        5.26217          2.8212        0.248397 
        5.27788         2.79888        0.246512 
        5.29359         2.78628        0.244648 
        5.30933           2.772        0.242799 
        5.32504         2.75088        0.240973 
        5.34073         2.73769        0.239168 
        5.35646         2.72674        0.237377 
        5.37218         2.70413        0.235605 
        5.38789         2.69709        0.233853 
        5.40357         2.68332        0.232122 
        5.41929         2.66357        0.230404 
        5.43502          2.6512        0.228703 
         5.4507         2.63602        0.227023 
        5.46639         2.62112         0.22536 
        5.48212         2.60951         0.22371 
        5.49786         2.59287        0.222074 
        5.51353          2.5758        0.220463 
        5.52921         2.57124        0.218866 
        5.54495         2.55324         0.21728 
        5.56066         2.53881        0.215712 
        5.57637         2.52455        0.214159 
        5.59207           2.511        0.212623 
        5.60778         2.50204        0.211101 
        5.62346         2.48224        0.209597 
        5.63916         2.47154        0.208105 
        5.65487         2.46079        0.206628 
         5.6706         2.44553        0.205163 
        5.68633         2.43444        0.203711 
        5.70203         2.41787        0.202277 
        5.71773         2.40599        0.200857 
        5.73344          2.3905        0.199449 
        5.74916         2.38375        0.198054 
        5.76486          2.3733        0.196674 
        5.78054         2.36036        0.195309 
        5.79626         2.35378        0.193954 
          5.812          2.3315        0.192609 
         5.8277         2.32214        0.191282 
        5.84339         2.30914        0.189967 
        5.85911         2.30062        0.188662 
        5.87484         2.28661        0.187369 
        5.89053         2.27588        0.186091 
        5.90623           2.265        0.184825 
        5.92195          2.2532        0.183567 
        5.93767         2.24269        0.182323 
        5.95336         2.22818        0.181092 
        5.96905         2.21867        0.179872 
        5.98476         2.20519        0.178663 
        6.00048         2.19308        0.177463 
        6.01617         2.18914        0.176277 
        6.03185         2.17235        0.175103 
        6.04756         2.16078        0.173936 
        6.06331         2.15094        0.172778 
        6.07903         2.13988        0.171633 
        6.09473         2.13388        0.170499 
        6.11044          2.1189        0.169375 
        6.12616          2.1083         0.16826 
        6.14186         2.10355        0.167157 
        6.15755          2.0936        0.166064 
        6.17326          2.0805         0.16498 
        6.18898         2.07402        0.163905 
        6.20467         2.06036        0.162841 
        6.22036         2.05024        0.161787 
         6.2361         2.03827        0.160739 
         6.2518         2.03097        0.159703 
        6.26748         2.01993        0.158678 
        6.28319         2.01071        0.157659 
        6.29893         2.00367        0.156648 
        6.31463         1.99547        0.155647 
        6.33033         1.98026        0.154656 
        6.34604         1.97521        0.153672 
        6.36177         1.96608        0.152696 
        6.37747         1.95816        0.151731 
