# k  (h/Mpc)    Pcb(k)  (Mpc/h)^3    Pcb_linear(k) (Mpc/h)^3   ShotnoiseSubtracted = true
      0.0200456         23960.6         24552.6 
      0.0350414         16973.5         17848.9 
      0.0492313         12659.1         12968.7 
      0.0637834         10986.6         10780.8 
      0.0800726         8663.31         8556.43 
       0.096163         5999.31         6208.43 
       0.111083         4837.83         4952.01 
       0.126058         4449.49         4388.49 
       0.142273         3855.01         3718.01 
       0.158546         3403.81         2936.45 
        0.17375         2727.93         2473.96 
       0.188953          2671.6         2240.11 
       0.204907         2509.68         1982.04 
       0.220756         2181.72         1676.93 
        0.23588         1957.77         1458.78 
         0.2514         1708.02         1325.29 
       0.267535         1712.04         1199.16 
       0.283568         1552.98          1057.5 
       0.299022         1473.03         942.175 
       0.314451         1403.88         861.084 
       0.330372            1286         789.948 
       0.346141         1245.21         716.998 
       0.361624         1196.87         651.653 
       0.377134         1117.06         599.624 
       0.392932         1069.82          554.82 
       0.408854         1054.07         511.437 
       0.424564         971.953         471.399 
       0.440253         953.931         437.041 
       0.455999         928.109         407.166 
       0.471626         895.012         379.711 
        0.48727          858.57         354.029 
       0.502856         832.403         330.957 
       0.518488         827.083          310.37 
       0.534347         776.493         291.232 
       0.550082         760.855         273.586 
       0.565732         754.256         257.443 
       0.581496         715.423         242.657 
       0.597222         699.848         229.097 
       0.612804         689.577         216.628 
       0.628434         670.856         205.006 
       0.644267         653.682          194.14 
       0.660051         636.994         184.126 
       0.675724         629.502         174.879 
       0.691403         609.674         166.259 
       0.707174         590.017         158.172 
       0.722871         581.588         150.655 
        0.73838         570.685         143.706 
       0.754018         560.263         137.144 
       0.769845         550.893          130.92 
        0.78569         540.551         125.077 
       0.801365         526.721         119.649 
       0.817031         514.691         114.547 
       0.832809          509.39         109.713 
       0.848511         498.492          105.18 
       0.864097         482.844         100.936 
       0.879701         476.427         96.9232 
       0.895507           474.8         93.0822 
       0.911279         462.419         89.4583 
        0.92691          455.85         86.0582 
       0.942635         443.796         82.8169 
       0.958396         433.035         79.7363 
       0.974128         427.725         76.8188 
       0.989692         425.387         74.0767 
        1.00528         412.182         71.4649 
        1.02113         410.195         68.9387 
        1.03692         399.353         66.5444 
        1.05264         395.676         64.2753 
        1.06832         385.142          62.116 
        1.08405         380.578         60.0505 
        1.09979         374.852         58.0781 
        1.11537         367.847         56.2142 
        1.13105         362.324         54.4213 
        1.14679         352.275            52.7 
        1.16256         345.463           51.05 
        1.17828          345.28         49.4764 
        1.19395          337.19         47.9747 
         1.2097         330.101         46.5278 
        1.22537         324.224         45.1479 
          1.241         320.025         43.8283 
        1.25666             316         42.5583 
        1.27241          310.75         41.3328 
        1.28819         305.261         40.1537 
        1.30392         299.233         39.0242 
        1.31957         297.019         37.9433 
        1.33529         292.748         36.8995 
        1.35108          286.36          35.891 
        1.36674         281.333         34.9274 
         1.3824          279.24         34.0003 
        1.39811         274.273         33.1038 
        1.41389         271.281         32.2363 
        1.42964         267.785         31.4014 
        1.44531         264.095         30.6003 
        1.46101         258.552         29.8255 
        1.47667         255.621         29.0799 
        1.49229         252.681         28.3619 
        1.50793         246.369         27.6673 
        1.52367         245.193         26.9916 
        1.53953         240.848          26.334 
        1.55526          237.13         25.7036 
        1.57092         234.773         25.0965 
        1.58662         232.134         24.5076 
        1.60235         227.953         23.9365 
        1.61809         225.091         23.3834 
        1.63369         222.563         22.8527 
        1.64941         218.223         22.3347 
        1.66519         216.319         21.8309 
        1.68085         213.445         21.3463 
        1.69652         210.274         20.8763 
        1.71228         205.047         20.4178 
        1.72806         203.012         19.9727 
        1.74368         200.074         19.5454 
        1.75933         197.325         19.1297 
        1.77505         195.696         18.7243 
        1.79081         193.279         18.3299 
         1.8065         189.262         17.9485 
        1.82218         187.413         17.5784 
        1.83797         186.214         17.2162 
        1.85367         182.952         16.8662 
        1.86928         179.777          16.528 
        1.88497         177.734         16.1973 
        1.90073          175.39         15.8745 
        1.91647         174.276         15.5607 
        1.93218         171.366         15.2561 
        1.94787         167.549         14.9601 
        1.96363         165.669         14.6708 
        1.97935         164.284         14.3898 
        1.99499          162.18         14.1177 
        2.01064         159.969         13.8523 
         2.0264         158.666          13.592 
        2.04216         156.333         13.3386 
        2.05781         154.083         13.0932 
        2.07353         152.618         12.8532 
        2.08928          149.88         12.6186 
        2.10499          148.67         12.3905 
        2.12065         146.296         12.1688 
        2.13633         144.219         11.9523 
        2.15211         142.274         11.7397 
        2.16785         141.045         11.5328 
        2.18349         139.527         11.3323 
        2.19916         137.495         11.1361 
        2.21489         136.262         10.9439 
        2.23063         134.002         10.7561 
         2.2463         132.326         10.5735 
        2.26194           130.3         10.3957 
        2.27765         129.151          10.221 
        2.29341         127.745         10.0499 
        2.30914         126.338         9.88308 
        2.32486         124.398         9.72013 
        2.34061         122.982         9.56059 
        2.35635          121.41         9.40478 
        2.37203         120.297         9.25298 
        2.38768         118.363         9.10485 
        2.40339         117.209         8.95943 
        2.41914         115.716         8.81685 
        2.43483         114.362         8.67788 
         2.4505         113.168         8.54213 
        2.46622         111.805         8.40883 
        2.48195         110.036         8.27837 
        2.49759         108.929         8.15137 
        2.51328         108.083          8.0267 
        2.52906         106.569         7.90386 
        2.54479         105.479         7.78405 
        2.56049         103.871         7.66695 
        2.57618         103.111         7.55237 
        2.59189         102.143         7.43995 
        2.60758         100.861            7.33 
        2.62325         99.2544         7.22241 
        2.63898         98.1248         7.11661 
        2.65468         97.0425         7.01314 
        2.67044          96.299          6.9113 
        2.68618         95.2879         6.81171 
        2.70184         94.3886         6.71448 
        2.71755         92.8072         6.61891 
        2.73329         92.0528         6.52505 
        2.74897         91.0996         6.43332 
        2.76462         90.0258         6.34355 
        2.78034         88.9848         6.25513 
        2.79607          87.727          6.1683 
        2.81179         87.0053         6.08322 
        2.82749         86.0987         5.99984 
        2.84321         85.0031         5.91793 
        2.85893         84.1908         5.83758 
        2.87462         83.2895         5.75885 
        2.89033         82.2394          5.6815 
        2.90605         81.3729         5.60551 
        2.92176         80.3488         5.53095 
        2.93747          79.672         5.45778 
        2.95318         78.7152         5.38592 
        2.96891         78.1075         5.31532 
        2.98456          77.156          5.2463 
        3.00023          76.332         5.17841 
        3.01596         75.2702          5.1115 
        3.03164         74.6937         5.04597 
        3.04738         73.6273          4.9814 
         3.0631         72.9103         4.91797 
        3.07883         72.3369         4.85565 
        3.09456         71.8604         4.79442 
        3.11026         70.8556         4.73434 
        3.12596         69.9711          4.6753 
        3.14163         69.5914          4.6174 
        3.15734         68.5106         4.56034 
        3.17308         67.8314         4.50411 
        3.18879          67.296         4.44898 
        3.20447          66.458         4.39486 
         3.2202         65.9258         4.34147 
         3.2359         65.0798         4.28906 
        3.25157         64.5905         4.23764 
        3.26729         63.9242          4.1869 
        3.28304         63.4034          4.1369 
        3.29877         62.6512         4.08778 
        3.31446         61.7573         4.03957 
        3.33014         61.3076         3.99217 
        3.34585          60.569         3.94546 
        3.36158         60.1291         3.89944 
        3.37727         59.6523         3.85428 
        3.39294         58.7136         3.80989 
        3.40867         58.3328         3.76603 
        3.42439         57.8238         3.72289 
        3.44008         57.1292         3.68051 
        3.45578         56.5464         3.63875 
        3.47153         55.9972         3.59756 
        3.48724         55.6118         3.55707 
        3.50292         55.1435          3.5173 
        3.51859         54.4452         3.47815 
        3.53431         54.0952         3.43948 
        3.55007         53.5559         3.40131 
        3.56577         53.1515         3.36386 
        3.58146         52.5505         3.32699 
        3.59719         51.9116         3.29059 
        3.61292         51.4508         3.25475 
        3.62859         50.8678         3.21958 
        3.64429          50.475         3.18485 
        3.66003         50.1022         3.15054 
        3.67578         49.5711         3.11674 
        3.69146         49.0197         3.08357 
        3.70712         48.5384         3.05093 
        3.72284         48.1781         3.01865 
        3.73853         47.6685          2.9869 
        3.75422         47.1661         2.95558 
        3.76993         46.6509         2.92469 
        3.78564         46.3442         2.89425 
        3.80137         45.9078          2.8642 
        3.81707         45.3732         2.83464 
        3.83279         45.0336         2.80547 
        3.84853         44.7458         2.77666 
        3.86424         44.2657         2.74831 
        3.87992         43.7507          2.7204 
        3.89561         43.4789         2.69288 
        3.91134         43.0662         2.66568 
        3.92704          42.548         2.63889 
        3.94273         42.1567         2.61249 
        3.95845         41.8912          2.5864 
        3.97418         41.5172         2.56067 
        3.98988         41.1247         2.53532 
        4.00554         40.8031         2.51038 
        4.02125          40.371         2.48571 
        4.03698         39.9655         2.46133 
        4.05268         39.6496         2.43733 
        4.06839         39.2348         2.41364 
         4.0841         38.9443         2.39026 
        4.09983          38.678         2.36717 
        4.11555         38.2619         2.34438 
        4.13124         37.9492         2.32196 
        4.14693         37.6847         2.29982 
        4.16266         37.3472         2.27791 
        4.17839         36.9463          2.2563 
        4.19408         36.5581         2.23502 
        4.20977         36.3344           2.214 
        4.22551         36.0186          2.1932 
        4.24123         35.7255         2.17269 
        4.25691         35.3929         2.15251 
        4.27259         35.0577         2.13256 
        4.28831          34.808         2.11284 
        4.30404         34.5095         2.09334 
        4.31974         34.2183         2.07413 
        4.33543         33.8466         2.05518 
        4.35116         33.6783         2.03641 
        4.36688         33.2989         2.01789 
        4.38255         33.0028         1.99966 
        4.39825         32.7877         1.98162 
        4.41398         32.5231         1.96377 
         4.4297          32.207         1.94615 
        4.44541         31.9864         1.92876 
        4.46111         31.6636         1.91159 
        4.47683         31.3863         1.89462 
        4.49251         31.1589         1.87789 
        4.50819         30.9232         1.86136 
         4.5239          30.706         1.84501 
        4.53962         30.4092         1.82883 
        4.55535         30.1401         1.81284 
        4.57106         29.8849         1.79707 
        4.58678         29.6871         1.78148 
         4.6025         29.3691         1.76607 
        4.61821         29.2144         1.75085 
        4.63391          28.933         1.73582 
         4.6496         28.7188         1.72098 
        4.66532         28.4863         1.70628 
        4.68103         28.2712         1.69177 
        4.69673          28.015         1.67744 
        4.71241         27.8415         1.66328 
        4.72811          27.613         1.64927 
        4.74384         27.4253          1.6354 
        4.75955         27.1008         1.62171 
        4.77525         26.9766         1.60819 
        4.79096         26.7346          1.5948 
        4.80669         26.4992         1.58156 
         4.8224         26.2717         1.56849 
        4.83809         26.1297         1.55557 
        4.85379         25.9484          1.5428 
         4.8695         25.6667         1.53015 
        4.88521         25.4776         1.51766 
        4.90093         25.2617          1.5053 
        4.91663         25.0426         1.49309 
        4.93234          24.805           1.481 
        4.94807         24.7346         1.46904 
        4.96377         24.5365         1.45723 
        4.97943         24.2825         1.44558 
        4.99514         24.1043         1.43402 
        5.01086         23.9535         1.42258 
        5.02654         23.7264          1.4113 
        5.04227         23.5543          1.4001 
          5.058         23.4244         1.38902 
        5.07371          23.194         1.37809 
        5.08942         22.9761         1.36727 
        5.10513         22.8475         1.35656 
        5.12084         22.7242         1.34596 
        5.13656         22.5558         1.33548 
        5.15225         22.3344         1.32513 
        5.16796          22.147         1.31487 
        5.18369         21.9872         1.30471 
         5.1994         21.8023         1.29467 
        5.21509         21.6785         1.28475 
        5.23079          21.486         1.27492 
        5.24649         21.3929         1.26521 
        5.26217          21.193          1.2556 
        5.27788         21.0526         1.24607 
        5.29359         20.8898         1.23665 
        5.30933         20.6735          1.2273 
        5.32504         20.5404         1.21807 
        5.34073         20.4554         1.20895 
        5.35646         20.2812          1.1999 
        5.37218         20.1126         1.19094 
        5.38789          19.976         1.18208 
        5.40357         19.8568         1.17333 
        5.41929         19.6244         1.16464 
        5.43502         19.5862         1.15605 
         5.4507         19.3807         1.14756 
        5.46639         19.2603         1.13915 
        5.48212          19.131         1.13081 
        5.49786         18.9705         1.12254 
        5.51353         18.8148          1.1144 
        5.52921         18.6739         1.10632 
        5.54495          18.565         1.09831 
        5.56066         18.4295         1.09038 
        5.57637          18.284         1.08253 
        5.59207         18.1497         1.07477 
        5.60778         17.9875         1.06708 
        5.62346         17.8902         1.05947 
        5.63916          17.769         1.05193 
        5.65487         17.6765         1.04446 
         5.6706         17.5265         1.03706 
        5.68633         17.3919         1.02972 
        5.70203         17.2414         1.02247 
        5.71773         17.1806         1.01529 
        5.73344         17.0556         1.00818 
        5.74916         16.8917         1.00112 
        5.76486         16.8051        0.994148 
        5.78054         16.6935         0.98725 
        5.79626         16.5456        0.980397 
          5.812         16.4676        0.973603 
         5.8277         16.3013        0.966893 
        5.84339         16.2246        0.960246 
        5.85911         16.1257        0.953649 
        5.87484         15.9765        0.947115 
        5.89053         15.8493        0.940655 
        5.90623         15.7506        0.934252 
        5.92195         15.6564        0.927898 
        5.93767         15.5431        0.921606 
        5.95336         15.4534        0.915383 
        5.96905         15.3193         0.90922 
        5.98476         15.2224        0.903104 
        6.00048         15.1222        0.897043 
        6.01617         15.0226        0.891046 
        6.03185         14.9153         0.88511 
        6.04756          14.791        0.879215 
        6.06331          14.704        0.873361 
        6.07903         14.6187        0.867572 
        6.09473         14.5217         0.86184 
        6.11044         14.3838        0.856156 
        6.12616         14.2926        0.850524 
        6.14186         14.1934        0.844948 
        6.15755         14.1092        0.839422 
        6.17326         14.0193        0.833941 
        6.18898         13.9355        0.828507 
        6.20467         13.8388         0.82313 
        6.22036         13.7337        0.817802 
         6.2361         13.6284        0.812507 
         6.2518         13.5542        0.807267 
        6.26748         13.4566        0.802084 
        6.28319         13.3577        0.796933 
        6.29893         13.2817        0.791823 
        6.31463         13.1684        0.786766 
        6.33033         13.1357        0.781755 
        6.34604         13.0221        0.776783 
        6.36177         12.9348        0.771851 
        6.37747         12.8529         0.76697 
