# k  (h/Mpc)    Pcb(k)  (Mpc/h)^3    Pcb_linear(k) (Mpc/h)^3   ShotnoiseSubtracted = true
      0.0200456         291.982         295.748 
      0.0350414         216.781         214.999 
      0.0492313          156.86         156.214 
      0.0637834          129.18         129.859 
      0.0800726         102.319         103.066 
       0.096163         75.5872         74.7835 
       0.111083         60.4561         59.6492 
       0.126058         52.6583         52.8613 
       0.142273         44.4998         44.7852 
       0.158546         35.4974         35.3709 
        0.17375         30.0982            29.8 
       0.188953         27.0315         26.9832 
       0.204907         23.5559         23.8746 
       0.220756         20.2411         20.1994 
        0.23588         17.6192         17.5717 
         0.2514         15.9934         15.9637 
       0.267535         14.4963         14.4444 
       0.283568         12.7856          12.738 
       0.299022         11.4174         11.3489 
       0.314451         10.5449         10.3722 
       0.330372          9.5907         9.51529 
       0.346141         8.71105         8.63658 
       0.361624         7.90445         7.84946 
       0.377134         7.25097         7.22275 
       0.392932         6.84291         6.68307 
       0.408854         6.20408          6.1605 
       0.424564         5.80822         5.67822 
       0.440253         5.33775         5.26436 
       0.455999         4.92582          4.9045 
       0.471626         4.59669          4.5738 
        0.48727         4.35266         4.26444 
       0.502856         4.07543         3.98652 
       0.518488         3.76468         3.73855 
       0.534347         3.51653         3.50803 
       0.550082          3.3504         3.29547 
       0.565732          3.1851         3.10101 
       0.581496          2.9789         2.92291 
       0.597222         2.80831         2.75958 
       0.612804         2.64925         2.60938 
       0.628434         2.51434         2.46939 
       0.644267          2.3924         2.33851 
       0.660051         2.26891         2.21788 
       0.675724         2.13916          2.1065 
       0.691403         2.03917         2.00267 
       0.707174         1.93923         1.90525 
       0.722871         1.88097          1.8147 
        0.73838         1.75925         1.73101 
       0.754018         1.67913         1.65196 
       0.769845         1.58992         1.57699 
        0.78569         1.53811         1.50661 
       0.801365         1.47382         1.44122 
       0.817031         1.41486         1.37978 
       0.832809         1.34368         1.32154 
       0.848511         1.29413         1.26694 
       0.864097         1.24759         1.21582 
       0.879701         1.20509         1.16749 
       0.895507         1.14234         1.12122 
       0.911279         1.10696         1.07757 
        0.92691         1.07296         1.03661 
       0.942635         1.01795        0.997567 
       0.958396        0.984435        0.960461 
       0.974128        0.950069        0.925318 
       0.989692        0.915252        0.892288 
        1.00528        0.878745        0.860828 
        1.02113        0.856746        0.830398 
        1.03692        0.829922        0.801558 
        1.05264        0.793179        0.774226 
        1.06832          0.7697        0.748216 
        1.08405        0.739723        0.723336 
        1.09979        0.719874        0.699578 
        1.11537        0.692501        0.677126 
        1.13105        0.666565         0.65553 
        1.14679        0.650974        0.634796 
        1.16256        0.631547        0.614921 
        1.17828        0.613873        0.595966 
        1.19395        0.594346        0.577877 
         1.2097        0.574442        0.560449 
        1.22537        0.555221        0.543827 
          1.241        0.540439        0.527932 
        1.25666        0.528237        0.512634 
        1.27241        0.510415        0.497873 
        1.28819        0.494132         0.48367 
        1.30392        0.482347        0.470065 
        1.31957         0.46792        0.457045 
        1.33529        0.455155        0.444472 
        1.35108        0.441676        0.432323 
        1.36674        0.429681        0.420717 
         1.3824        0.420515        0.409549 
        1.39811        0.406559        0.398751 
        1.41389        0.397995        0.388301 
        1.42964         0.38712        0.378245 
        1.44531        0.376071        0.368595 
        1.46101        0.365122        0.359262 
        1.47667        0.357314        0.350281 
        1.49229        0.347167        0.341632 
        1.50793        0.339989        0.333266 
        1.52367        0.329812        0.325127 
        1.53953         0.32144        0.317205 
        1.55526        0.314359        0.309612 
        1.57092        0.309474        0.302299 
        1.58662        0.301338        0.295206 
        1.60235        0.293759        0.288326 
        1.61809        0.285586        0.281664 
        1.63369        0.278406        0.275271 
        1.64941        0.273099        0.269032 
        1.66519         0.26751        0.262963 
        1.68085        0.259835        0.257126 
        1.69652         0.25463        0.251464 
        1.71228        0.248161        0.245941 
        1.72806        0.243686         0.24058 
        1.74368        0.237813        0.235433 
        1.75933        0.233212        0.230427 
        1.77505        0.228617        0.225542 
        1.79081        0.221965        0.220792 
         1.8065         0.21872        0.216198 
        1.82218        0.212578         0.21174 
        1.83797        0.207512        0.207377 
        1.85367        0.204209        0.203161 
        1.86928        0.199171        0.199088 
        1.88497        0.194985        0.195104 
        1.90073        0.191084        0.191215 
        1.91647        0.188016        0.187436 
        1.93218        0.184933        0.183767 
        1.94787        0.179616        0.180201 
        1.96363        0.176445        0.176717 
        1.97935         0.17276        0.173332 
        1.99499        0.169152        0.170054 
        2.01064         0.16615        0.166857 
         2.0264        0.163174        0.163722 
        2.04216        0.159146         0.16067 
        2.05781        0.156272        0.157714 
        2.07353        0.153685        0.154822 
        2.08928        0.151108        0.151997 
        2.10499        0.147459         0.14925 
        2.12065        0.145014        0.146579 
        2.13633        0.142352        0.143971 
        2.15211        0.139985         0.14141 
        2.16785        0.136768        0.138918 
        2.18349        0.134618        0.136503 
        2.19916        0.131576        0.134139 
        2.21489        0.129124        0.131824 
        2.23063        0.127105        0.129562 
         2.2463         0.12503        0.127363 
        2.26194        0.122864        0.125221 
        2.27765        0.120494        0.123117 
        2.29341        0.118105        0.121056 
        2.30914        0.115931        0.119046 
        2.32486        0.113961        0.117084 
        2.34061        0.111957        0.115162 
        2.35635        0.110099        0.113285 
        2.37203        0.109158        0.111456 
        2.38768        0.106631        0.109672 
        2.40339        0.104844        0.107921 
        2.41914        0.102893        0.106203 
        2.43483        0.101455        0.104529 
         2.4505       0.0994493        0.102894 
        2.46622       0.0978804        0.101288 
        2.48195       0.0962909       0.0997168 
        2.49759       0.0948639        0.098187 
        2.51328       0.0924018       0.0966854 
        2.52906       0.0915574       0.0952057 
        2.54479       0.0900244       0.0937625 
        2.56049       0.0882831        0.092352 
        2.57618       0.0874417       0.0909718 
        2.59189        0.085519       0.0896177 
        2.60758        0.084586       0.0882933 
        2.62325       0.0829215       0.0869973 
        2.63898        0.081993       0.0857228 
        2.65468       0.0803067       0.0844766 
        2.67044       0.0791658       0.0832498 
        2.68618       0.0778704       0.0820502 
        2.70184       0.0769805        0.080879 
        2.71755       0.0755673       0.0797278 
        2.73329       0.0744235       0.0785972 
        2.74897       0.0734026       0.0774923 
        2.76462       0.0720309        0.076411 
        2.78034       0.0711625       0.0753459 
        2.79607       0.0702412       0.0743001 
        2.81179       0.0688575       0.0732752 
        2.82749        0.068094       0.0722709 
        2.84321       0.0669895       0.0712842 
        2.85893       0.0658195       0.0703163 
        2.87462       0.0652509        0.069368 
        2.89033       0.0640156       0.0684364 
        2.90605       0.0632439        0.067521 
        2.92176       0.0624953       0.0666229 
        2.93747       0.0613277       0.0657415 
        2.95318       0.0607729       0.0648759 
        2.96891       0.0597929       0.0640255 
        2.98456       0.0589203       0.0631941 
        3.00023       0.0583273       0.0623763 
        3.01596       0.0571202       0.0615704 
        3.03164       0.0564247       0.0607811 
        3.04738       0.0557011       0.0600032 
         3.0631       0.0546846       0.0592393 
        3.07883       0.0541617       0.0584886 
        3.09456       0.0535223        0.057751 
        3.11026       0.0526478       0.0570273 
        3.12596       0.0522319       0.0563161 
        3.14163       0.0513409       0.0556187 
        3.15734       0.0508755       0.0549314 
        3.17308       0.0500838       0.0542541 
        3.18879       0.0493987       0.0535901 
        3.20447       0.0486264       0.0529381 
         3.2202       0.0481508        0.052295 
         3.2359       0.0476211       0.0516637 
        3.25157       0.0470046       0.0510443 
        3.26729       0.0463402       0.0504332 
        3.28304       0.0459653       0.0498309 
        3.29877       0.0452032       0.0492392 
        3.31446       0.0446025       0.0486585 
        3.33014       0.0442754       0.0480876 
        3.34585       0.0435695        0.047525 
        3.36158       0.0430851       0.0469705 
        3.37727       0.0424821       0.0464266 
        3.39294       0.0421047       0.0458919 
        3.40867       0.0416648       0.0453636 
        3.42439       0.0411823       0.0448439 
        3.44008       0.0407453       0.0443334 
        3.45578        0.040328       0.0438305 
        3.47153       0.0398886       0.0433342 
        3.48724       0.0393452       0.0428465 
        3.50292       0.0390843       0.0423675 
        3.51859       0.0385541        0.041896 
        3.53431        0.038092       0.0414302 
        3.55007       0.0377509       0.0409703 
        3.56577       0.0373325       0.0405193 
        3.58146       0.0369507       0.0400752 
        3.59719       0.0365037       0.0396367 
        3.61292       0.0360528        0.039205 
        3.62859       0.0357295       0.0387813 
        3.64429       0.0354353       0.0383631 
        3.66003       0.0351458       0.0379497 
        3.67578       0.0348167       0.0375426 
        3.69146       0.0345019        0.037143 
        3.70712       0.0341172       0.0367499 
        3.72284       0.0336776       0.0363611 
        3.73853       0.0335408       0.0359785 
        3.75422       0.0330507       0.0356014 
        3.76993       0.0327977       0.0352293 
        3.78564       0.0325045       0.0348626 
        3.80137       0.0322773       0.0345006 
        3.81707       0.0318676       0.0341445 
        3.83279       0.0315856       0.0337931 
        3.84853       0.0313153       0.0334461 
        3.86424       0.0311619       0.0331047 
        3.87992       0.0308759       0.0327685 
        3.89561       0.0304365        0.032437 
        3.91134       0.0302436       0.0321093 
        3.92704       0.0299123       0.0317866 
        3.94273        0.029665       0.0314686 
        3.95845       0.0294253       0.0311544 
        3.97418       0.0291237       0.0308445 
        3.98988        0.028744       0.0305391 
        4.00554        0.028587       0.0302387 
        4.02125       0.0282217       0.0299415 
        4.03698       0.0278056       0.0296479 
        4.05268       0.0275678       0.0293588 
        4.06839       0.0271221       0.0290734 
         4.0841       0.0267003       0.0287918 
        4.09983       0.0262949       0.0285136 
        4.11555       0.0259536       0.0282392 
        4.13124       0.0255581       0.0279691 
        4.14693       0.0252476       0.0277023 
        4.16266        0.024846       0.0274384 
        4.17839       0.0245642       0.0271781 
        4.19408       0.0242594       0.0269218 
        4.20977       0.0239389       0.0266686 
        4.22551       0.0236601       0.0264181 
        4.24123        0.023364       0.0261711 
        4.25691       0.0231477       0.0259279 
        4.27259       0.0229037       0.0256877 
        4.28831       0.0226822       0.0254501 
        4.30404       0.0223938       0.0252153 
        4.31974       0.0221941       0.0249839 
        4.33543       0.0219579       0.0247555 
        4.35116        0.021738       0.0245295 
        4.36688       0.0216252       0.0243064 
        4.38255       0.0213656       0.0240868 
        4.39825       0.0213089       0.0238695 
        4.41398       0.0211272       0.0236545 
         4.4297       0.0209974       0.0234423 
        4.44541       0.0208152       0.0232328 
        4.46111       0.0206545        0.023026 
        4.47683       0.0206338       0.0228215 
        4.49251       0.0205012         0.02262 
        4.50819       0.0204238       0.0224209 
         4.5239       0.0203069        0.022224 
        4.53962       0.0202623       0.0220292 
        4.55535       0.0202111       0.0218366 
        4.57106       0.0201994       0.0216465 
        4.58678       0.0200643       0.0214587 
         4.6025       0.0200075       0.0212731 
        4.61821       0.0200633       0.0210897 
        4.63391       0.0200205       0.0209088 
         4.6496       0.0199764         0.02073 
        4.66532       0.0199487        0.020553 
        4.68103       0.0200928       0.0203781 
        4.69673       0.0200321       0.0202055 
        4.71241       0.0201001        0.020035 
        4.72811       0.0200541       0.0198662 
        4.74384       0.0201159       0.0196992 
        4.75955        0.020231       0.0195343 
        4.77525       0.0203048       0.0193714 
        4.79096       0.0203662       0.0192102 
        4.80669       0.0204849       0.0190507 
         4.8224       0.0205681       0.0188932 
        4.83809       0.0206401       0.0187376 
        4.85379       0.0208625       0.0185837 
         4.8695       0.0209462       0.0184314 
        4.88521       0.0210615       0.0182809 
        4.90093       0.0211958        0.018132 
        4.91663       0.0213534        0.017985 
        4.93234       0.0215302       0.0178393 
        4.94807       0.0217326       0.0176953 
        4.96377       0.0218811        0.017553 
        4.97943       0.0222277       0.0174127 
        4.99514       0.0222872       0.0172735 
        5.01086       0.0225607       0.0171357 
        5.02654       0.0227718       0.0169998 
        5.04227       0.0230096       0.0168649 
          5.058       0.0232506       0.0167314 
        5.07371       0.0234697       0.0165997 
        5.08942       0.0237821       0.0164693 
        5.10513       0.0241009       0.0163404 
        5.12084       0.0244049       0.0162127 
        5.13656        0.024799       0.0160865 
        5.15225       0.0250727       0.0159618 
        5.16796       0.0254105       0.0158382 
        5.18369       0.0257616       0.0157158 
         5.1994       0.0261347       0.0155949 
        5.21509       0.0265949       0.0154754 
        5.23079       0.0268889        0.015357 
        5.24649       0.0273523         0.01524 
        5.26217       0.0277272       0.0151242 
        5.27788       0.0282585       0.0150095 
        5.29359       0.0286034        0.014896 
        5.30933       0.0291333       0.0147834 
        5.32504       0.0296246       0.0146722 
        5.34073       0.0301765       0.0145623 
        5.35646       0.0305846       0.0144533 
        5.37218       0.0311261       0.0143454 
        5.38789       0.0315759       0.0142387 
        5.40357       0.0323504       0.0141333 
        5.41929       0.0329984       0.0140287 
        5.43502       0.0334752       0.0139251 
         5.4507       0.0341161       0.0138229 
        5.46639       0.0347402       0.0137216 
        5.48212       0.0353993       0.0136211 
        5.49786       0.0361532       0.0135215 
        5.51353        0.037051       0.0134234 
        5.52921       0.0374199       0.0133262 
        5.54495       0.0383544       0.0132296 
        5.56066       0.0392179       0.0131341 
        5.57637       0.0400693       0.0130396 
        5.59207       0.0407719       0.0129461 
        5.60778       0.0414092       0.0128534 
        5.62346       0.0424218       0.0127618 
        5.63916       0.0433534        0.012671 
        5.65487       0.0441796        0.012581 
         5.6706       0.0450256       0.0124918 
        5.68633       0.0458991       0.0124035 
        5.70203       0.0470636       0.0123161 
        5.71773       0.0483385       0.0122297 
        5.73344       0.0492789        0.012144 
        5.74916       0.0504962        0.012059 
        5.76486       0.0517233        0.011975 
        5.78054       0.0532696       0.0118919 
        5.79626       0.0537966       0.0118093 
          5.812       0.0554495       0.0117275 
         5.8277        0.056436       0.0116467 
        5.84339       0.0578871       0.0115666 
        5.85911       0.0591302       0.0114871 
        5.87484       0.0603112       0.0114084 
        5.89053       0.0622643       0.0113306 
        5.90623       0.0634525       0.0112535 
        5.92195       0.0649492        0.011177 
        5.93767       0.0668462       0.0111012 
        5.95336       0.0676329       0.0110262 
        5.96905       0.0696949        0.010952 
        5.98476        0.070871       0.0108783 
        6.00048       0.0730086       0.0108053 
        6.01617       0.0750894       0.0107331 
        6.03185       0.0766337       0.0106616 
        6.04756       0.0786198       0.0105906 
        6.06331       0.0810979         0.01052 
        6.07903       0.0825101       0.0104503 
        6.09473       0.0843233       0.0103813 
        6.11044       0.0868112       0.0103128 
        6.12616         0.08879        0.010245 
        6.14186       0.0912079       0.0101778 
        6.15755       0.0934229       0.0101112 
        6.17326       0.0957638       0.0100452 
        6.18898       0.0987287      0.00997975 
        6.20467        0.100651      0.00991499 
        6.22036        0.104231       0.0098508 
         6.2361        0.106256      0.00978702 
         6.2518        0.108996       0.0097239 
        6.26748        0.110595      0.00966148 
        6.28319        0.114374      0.00959943 
        6.29893        0.117132      0.00953787 
        6.31463        0.120505      0.00947696 
        6.33033        0.123444       0.0094166 
        6.34604        0.127013      0.00935672 
        6.36177        0.129714       0.0092973 
        6.37747        0.132677      0.00923851 
