# k  (h/Mpc)    Pcb(k)  (Mpc/h)^3    Pcb_linear(k) (Mpc/h)^3   ShotnoiseSubtracted = true
      0.0200456         177.228         179.617 
      0.0350414          130.61         130.575 
      0.0492313         95.2815         94.8737 
      0.0637834         79.1323         78.8676 
      0.0800726         62.7194         62.5953 
       0.096163         45.5139         45.4183 
       0.111083         36.2261         36.2268 
       0.126058         32.1242         32.1043 
       0.142273         27.2436         27.1994 
       0.158546         21.6091         21.4819 
        0.17375         18.0897         18.0984 
       0.188953         16.3936         16.3877 
       0.204907         14.6602         14.4998 
       0.220756         12.3433         12.2677 
        0.23588         10.7375         10.6718 
         0.2514         9.70243         9.69526 
       0.267535         8.78221         8.77255 
       0.283568         7.76834         7.73621 
       0.299022         6.94188         6.89256 
       0.314451         6.27703         6.29933 
       0.330372         5.78281         5.77893 
       0.346141         5.25282         5.24526 
       0.361624         4.79042         4.76722 
       0.377134         4.42278          4.3866 
       0.392932         4.01953         4.05883 
       0.408854           3.766         3.74146 
       0.424564         3.45253         3.44856 
       0.440253         3.20452         3.19721 
       0.455999         3.00006         2.97866 
       0.471626         2.80509         2.77781 
        0.48727         2.59956         2.58993 
       0.502856         2.42336         2.42114 
       0.518488         2.29721         2.27054 
       0.534347          2.1678         2.13054 
       0.550082         2.00676         2.00144 
       0.565732         1.86734         1.88334 
       0.581496         1.78757         1.77518 
       0.597222         1.69203         1.67598 
       0.612804         1.59151         1.58476 
       0.628434         1.51886         1.49974 
       0.644267         1.43074         1.42025 
       0.660051         1.35226         1.34699 
       0.675724          1.2888         1.27934 
       0.691403         1.23023         1.21628 
       0.707174         1.16539         1.15712 
       0.722871         1.10447         1.10213 
        0.73838         1.06196          1.0513 
       0.754018         1.01919         1.00329 
       0.769845        0.969301        0.957754 
        0.78569        0.924953        0.915009 
       0.801365        0.882333        0.875299 
       0.817031        0.846885        0.837982 
       0.832809        0.810928        0.802613 
       0.848511        0.774462        0.769455 
       0.864097        0.739808        0.738407 
       0.879701        0.709946         0.70905 
       0.895507        0.687375        0.680951 
       0.911279        0.661364         0.65444 
        0.92691        0.634122        0.629566 
       0.942635        0.610525        0.605854 
       0.958396        0.585718        0.583318 
       0.974128        0.564334        0.561975 
       0.989692        0.546035        0.541914 
        1.00528        0.527336        0.522808 
        1.02113        0.504196        0.504327 
        1.03692        0.489993        0.486811 
        1.05264        0.472872        0.470211 
        1.06832        0.457577        0.454415 
        1.08405        0.439002        0.439305 
        1.09979        0.424858        0.424875 
        1.11537        0.414492         0.41124 
        1.13105        0.400619        0.398124 
        1.14679        0.389819        0.385531 
        1.16256        0.373337        0.373461 
        1.17828        0.362133        0.361949 
        1.19395        0.350302        0.350963 
         1.2097        0.338766        0.340378 
        1.22537        0.331664        0.330283 
          1.241        0.320904        0.320629 
        1.25666        0.313495        0.311339 
        1.27241        0.302192        0.302374 
        1.28819        0.293347        0.293748 
        1.30392        0.285363        0.285485 
        1.31957        0.277787        0.277577 
        1.33529        0.269106        0.269941 
        1.35108        0.261639        0.262563 
        1.36674        0.252503        0.255515 
         1.3824        0.249048        0.248732 
        1.39811        0.240872        0.242174 
        1.41389        0.234815        0.235827 
        1.42964        0.229712         0.22972 
        1.44531         0.22164        0.223859 
        1.46101         0.21709        0.218191 
        1.47667        0.209895        0.212737 
        1.49229        0.205914        0.207484 
        1.50793        0.199766        0.202403 
        1.52367        0.195464        0.197459 
        1.53953        0.190884        0.192649 
        1.55526        0.186305        0.188037 
        1.57092        0.180375        0.183596 
        1.58662         0.17706        0.179287 
        1.60235         0.17344         0.17511 
        1.61809        0.167577        0.171063 
        1.63369        0.165421        0.167181 
        1.64941        0.161212        0.163391 
        1.66519        0.156909        0.159706 
        1.68085        0.152935        0.156161 
        1.69652        0.149441        0.152722 
        1.71228        0.146948        0.149368 
        1.72806        0.142404        0.146112 
        1.74368        0.140284        0.142986 
        1.75933        0.136938        0.139945 
        1.77505        0.133745        0.136979 
        1.79081        0.131418        0.134094 
         1.8065        0.127508        0.131304 
        1.82218        0.125378        0.128596 
        1.83797        0.122399        0.125946 
        1.85367        0.120017        0.123386 
        1.86928        0.117778        0.120912 
        1.88497        0.115439        0.118493 
        1.90073        0.112674        0.116131 
        1.91647         0.11029        0.113836 
        1.93218        0.107878        0.111607 
        1.94787         0.10563        0.109442 
        1.96363        0.103791        0.107326 
        1.97935        0.101184         0.10527 
        1.99499       0.0995864        0.103279 
        2.01064       0.0978287        0.101338 
         2.0264       0.0956811       0.0994336 
        2.04216       0.0940147       0.0975796 
        2.05781       0.0921143       0.0957846 
        2.07353         0.08979       0.0940285 
        2.08928       0.0882602       0.0923125 
        2.10499       0.0863878       0.0906441 
        2.12065        0.085292       0.0890219 
        2.13633       0.0831938       0.0874381 
        2.15211       0.0822655       0.0858827 
        2.16785        0.080421       0.0843695 
        2.18349       0.0783915       0.0829022 
        2.19916       0.0777925       0.0814668 
        2.21489       0.0763036       0.0800607 
        2.23063       0.0748282       0.0786869 
         2.2463       0.0731937       0.0773515 
        2.26194       0.0718544       0.0760504 
        2.27765       0.0705395       0.0747726 
        2.29341        0.069658       0.0735209 
        2.30914       0.0680489       0.0723005 
        2.32486        0.066854       0.0711085 
        2.34061       0.0658387       0.0699413 
        2.35635        0.064545       0.0688015 
        2.37203       0.0635029        0.067691 
        2.38768       0.0623719       0.0666073 
        2.40339       0.0612699       0.0655435 
        2.41914       0.0604873       0.0645004 
        2.43483       0.0590997       0.0634837 
         2.4505       0.0580307       0.0624907 
        2.46622       0.0571548       0.0615155 
        2.48195       0.0560318       0.0605611 
        2.49759          0.0555        0.059632 
        2.51328       0.0546593         0.05872 
        2.52906       0.0536024       0.0578214 
        2.54479       0.0526504       0.0569449 
        2.56049       0.0518363       0.0560882 
        2.57618       0.0510095         0.05525 
        2.59189       0.0501989       0.0544276 
        2.60758       0.0495764       0.0536233 
        2.62325       0.0486075       0.0528362 
        2.63898        0.047886       0.0520622 
        2.65468         0.04691       0.0513053 
        2.67044       0.0465113       0.0505602 
        2.68618       0.0456798       0.0498316 
        2.70184       0.0449024       0.0491203 
        2.71755       0.0440451       0.0484212 
        2.73329       0.0435437       0.0477345 
        2.74897        0.043002       0.0470635 
        2.76462       0.0421609       0.0464068 
        2.78034       0.0416185       0.0457599 
        2.79607       0.0409768       0.0451247 
        2.81179       0.0404197       0.0445023 
        2.82749       0.0397063       0.0438924 
        2.84321       0.0391624       0.0432931 
        2.85893       0.0385819       0.0427053 
        2.87462       0.0382066       0.0421294 
        2.89033       0.0375431       0.0415635 
        2.90605       0.0368291       0.0410076 
        2.92176       0.0365058       0.0404621 
        2.93747       0.0359246       0.0399269 
        2.95318       0.0352874       0.0394012 
        2.96891       0.0349157       0.0388847 
        2.98456       0.0345021       0.0383798 
        3.00023       0.0338665       0.0378831 
        3.01596       0.0333786       0.0373936 
        3.03164       0.0330832       0.0369142 
        3.04738       0.0325528       0.0364418 
         3.0631       0.0319737       0.0359779 
        3.07883       0.0315502       0.0355219 
        3.09456       0.0312936        0.035074 
        3.11026       0.0307534       0.0346345 
        3.12596        0.030476       0.0342025 
        3.14163       0.0299883        0.033779 
        3.15734       0.0296287       0.0333616 
        3.17308        0.029227       0.0329502 
        3.18879       0.0287836       0.0325469 
        3.20447       0.0285267        0.032151 
         3.2202       0.0281271       0.0317604 
         3.2359       0.0278266        0.031377 
        3.25157       0.0273624       0.0310008 
        3.26729        0.027056       0.0306297 
        3.28304       0.0267323       0.0302639 
        3.29877       0.0264225       0.0299045 
        3.31446       0.0260398       0.0295518 
        3.33014        0.025749       0.0292051 
        3.34585       0.0254449       0.0288634 
        3.36158       0.0250364       0.0285266 
        3.37727       0.0248477       0.0281963 
        3.39294       0.0245738       0.0278716 
        3.40867       0.0242522       0.0275507 
        3.42439       0.0239675       0.0272351 
        3.44008       0.0236946       0.0269251 
        3.45578         0.02349       0.0266196 
        3.47153       0.0231438       0.0263182 
        3.48724       0.0230304        0.026022 
        3.50292       0.0226059       0.0257311 
        3.51859       0.0223066       0.0254447 
        3.53431       0.0221997       0.0251618 
        3.55007       0.0219219       0.0248826 
        3.56577       0.0217436       0.0246086 
        3.58146       0.0213943       0.0243389 
        3.59719       0.0212492       0.0240726 
        3.61292       0.0209339       0.0238104 
        3.62859       0.0207346       0.0235531 
        3.64429       0.0205945       0.0232991 
        3.66003       0.0203096        0.023048 
        3.67578       0.0201399       0.0228008 
        3.69146       0.0199609       0.0225581 
        3.70712       0.0197968       0.0223194 
        3.72284       0.0195459       0.0220832 
        3.73853       0.0193235       0.0218509 
        3.75422       0.0192518       0.0216218 
        3.76993       0.0189589       0.0213958 
        3.78564       0.0188351       0.0211732 
        3.80137       0.0186314       0.0209533 
        3.81707       0.0183947        0.020737 
        3.83279       0.0182772       0.0205236 
        3.84853       0.0181151       0.0203129 
        3.86424       0.0179251       0.0201055 
        3.87992       0.0177797       0.0199013 
        3.89561       0.0176501          0.0197 
        3.91134       0.0174888        0.019501 
        3.92704       0.0172596        0.019305 
        3.94273        0.017114       0.0191119 
        3.95845       0.0169702       0.0189211 
        3.97418       0.0168539       0.0187328 
        3.98988       0.0166497       0.0185474 
        4.00554       0.0164753       0.0183649 
        4.02125        0.016258       0.0181844 
        4.03698       0.0160959       0.0180061 
        4.05268       0.0158813       0.0178305 
        4.06839       0.0156238       0.0176572 
         4.0841       0.0154284       0.0174862 
        4.09983       0.0152029       0.0173172 
        4.11555       0.0150548       0.0171505 
        4.13124       0.0148452       0.0169865 
        4.14693       0.0146075       0.0168245 
        4.16266       0.0144396       0.0166642 
        4.17839       0.0142783       0.0165061 
        4.19408       0.0141397       0.0163504 
        4.20977       0.0139599       0.0161967 
        4.22551       0.0137442       0.0160446 
        4.24123       0.0136068       0.0158945 
        4.25691       0.0134805       0.0157468 
        4.27259       0.0133361        0.015601 
        4.28831       0.0132459       0.0154566 
        4.30404       0.0131075        0.015314 
        4.31974        0.012951       0.0151735 
        4.33543       0.0128482       0.0150348 
        4.35116        0.012746       0.0148975 
        4.36688       0.0126461        0.014762 
        4.38255       0.0125307       0.0146287 
        4.39825       0.0124893       0.0144967 
        4.41398       0.0124385       0.0143661 
         4.4297       0.0123322       0.0142373 
        4.44541       0.0122528         0.01411 
        4.46111       0.0121663       0.0139844 
        4.47683       0.0121374       0.0138602 
        4.49251       0.0120496       0.0137378 
        4.50819       0.0120172       0.0136169 
         4.5239       0.0119713       0.0134973 
        4.53962       0.0119451        0.013379 
        4.55535        0.011925        0.013262 
        4.57106       0.0119421       0.0131466 
        4.58678       0.0118768       0.0130326 
         4.6025       0.0118952       0.0129198 
        4.61821       0.0119086       0.0128085 
        4.63391       0.0118623       0.0126985 
         4.6496       0.0118663       0.0125899 
        4.66532       0.0118671       0.0124825 
        4.68103       0.0119041       0.0123763 
        4.69673       0.0119158       0.0122714 
        4.71241       0.0119813       0.0121679 
        4.72811       0.0119796       0.0120654 
        4.74384       0.0120025       0.0119639 
        4.75955       0.0120854       0.0118638 
        4.77525       0.0121364       0.0117649 
        4.79096       0.0122173       0.0116669 
        4.80669       0.0122068       0.0115701 
         4.8224       0.0123353       0.0114744 
        4.83809       0.0123643       0.0113799 
        4.85379       0.0125013       0.0112865 
         4.8695       0.0125269        0.011194 
        4.88521       0.0126281       0.0111026 
        4.90093       0.0127511       0.0110121 
        4.91663       0.0128958       0.0109228 
        4.93234       0.0129767       0.0108344 
        4.94807       0.0130569       0.0107469 
        4.96377       0.0131959       0.0106605 
        4.97943       0.0133439       0.0105752 
        4.99514       0.0134755       0.0104907 
        5.01086        0.013542        0.010407 
        5.02654       0.0137743       0.0103245 
        5.04227       0.0139098       0.0102426 
          5.058       0.0140614       0.0101615 
        5.07371       0.0142242       0.0100815 
        5.08942       0.0145182       0.0100023 
        5.10513       0.0146505      0.00992402 
        5.12084       0.0147548      0.00984649 
        5.13656        0.015047      0.00976981 
        5.15225       0.0152234      0.00969408 
        5.16796       0.0155347      0.00961902 
        5.18369       0.0156487      0.00954469 
         5.1994       0.0159052      0.00947128 
        5.21509       0.0161429      0.00939871 
        5.23079       0.0163391      0.00932681 
        5.24649       0.0166167      0.00925572 
        5.26217       0.0169067      0.00918542 
        5.27788       0.0171695      0.00911575 
        5.29359       0.0174686      0.00904679 
        5.30933       0.0177057      0.00897844 
        5.32504        0.017987      0.00891091 
        5.34073       0.0184388      0.00884415 
        5.35646       0.0186782      0.00877795 
        5.37218       0.0190256       0.0087124 
        5.38789       0.0194531      0.00864763 
        5.40357       0.0197569      0.00858359 
        5.41929       0.0200145      0.00852006 
        5.43502       0.0204963      0.00845716 
         5.4507       0.0208424      0.00839505 
        5.46639        0.021296      0.00833355 
        5.48212       0.0215082      0.00827253 
        5.49786       0.0220241      0.00821204 
        5.51353       0.0225985      0.00815246 
        5.52921       0.0230412       0.0080934 
        5.54495        0.023523      0.00803476 
        5.56066       0.0240267      0.00797677 
        5.57637       0.0244733      0.00791935 
        5.59207       0.0248831      0.00786255 
        5.60778       0.0255134      0.00780628 
        5.62346        0.026044      0.00775064 
        5.63916       0.0265021      0.00769549 
        5.65487       0.0271546      0.00764085 
         5.6706       0.0275918      0.00758668 
        5.68633       0.0283397      0.00753301 
        5.70203         0.02902      0.00747997 
        5.71773       0.0296272      0.00742745 
        5.73344       0.0302493       0.0073754 
        5.74916       0.0310348      0.00732381 
        5.76486       0.0316853      0.00727278 
        5.78054       0.0322553      0.00722231 
        5.79626       0.0330929      0.00717218 
          5.812       0.0338015      0.00712248 
         5.8277        0.034787      0.00707339 
        5.84339       0.0352972      0.00702476 
        5.85911        0.036325       0.0069765 
        5.87484       0.0371815       0.0069287 
        5.89053       0.0380921      0.00688144 
        5.90623       0.0389656       0.0068346 
        5.92195       0.0399852      0.00678811 
        5.93767       0.0409605      0.00674209 
        5.95336         0.04191      0.00669656 
        5.96905       0.0428648      0.00665147 
        5.98476       0.0436199      0.00660674 
        6.00048       0.0448707       0.0065624 
        6.01617       0.0458748      0.00651852 
        6.03185       0.0470474       0.0064751 
        6.04756       0.0484293      0.00643197 
        6.06331       0.0496734      0.00638914 
        6.07903       0.0508353      0.00634679 
        6.09473        0.052152      0.00630487 
        6.11044       0.0537263      0.00626328 
        6.12616        0.055115      0.00622208 
        6.14186       0.0563386      0.00618129 
        6.15755       0.0577333      0.00614086 
        6.17326       0.0588268      0.00610077 
        6.18898       0.0607247      0.00606101 
        6.20467       0.0625425      0.00602168 
        6.22036       0.0641762       0.0059827 
         6.2361       0.0654216      0.00594396 
         6.2518       0.0678831      0.00590563 
        6.26748       0.0688244      0.00586772 
        6.28319       0.0713718      0.00583003 
        6.29893       0.0733574      0.00579265 
        6.31463       0.0750525      0.00575565 
        6.33033       0.0769495      0.00571899 
        6.34604       0.0789573      0.00568263 
        6.36177       0.0813839      0.00564654 
        6.37747       0.0831533      0.00561084 
