# k  (h/Mpc)    Pcb(k)  (Mpc/h)^3    Pcb_linear(k) (Mpc/h)^3   ShotnoiseSubtracted = true
      0.0200456         15768.2         16103.1 
      0.0350414         11267.8         11706.4 
      0.0492313         8383.04         8505.65 
      0.0637834         7211.21         7070.67 
      0.0800726          5698.6         5611.82 
       0.096163         3964.45         4071.86 
       0.111083         3166.71         3247.82 
       0.126058         2920.34         2878.23 
       0.142273         2526.24          2438.5 
       0.158546         2159.34          1925.9 
        0.17375         1726.67         1622.57 
       0.188953         1679.22          1469.2 
       0.204907         1578.47         1299.94 
       0.220756         1355.52         1099.83 
        0.23588         1201.23         956.757 
         0.2514         1045.03         869.204 
       0.267535         1033.66          786.48 
       0.283568         937.183          693.57 
       0.299022         880.682         617.935 
       0.314451         836.335         564.751 
       0.330372          769.91         518.095 
       0.346141         713.759          470.25 
       0.361624         686.316         427.393 
       0.377134         637.066         393.269 
       0.392932         612.131         363.884 
       0.408854         591.938         335.431 
       0.424564         554.958         309.172 
       0.440253         544.016         286.638 
       0.455999         514.485         267.044 
       0.471626         488.415         249.037 
        0.48727         471.073         232.193 
       0.502856          457.66         217.061 
       0.518488         452.949         203.559 
       0.534347         423.131         191.008 
       0.550082         405.053         179.434 
       0.565732         404.071         168.846 
       0.581496         380.032         159.149 
       0.597222         374.263         150.255 
       0.612804         363.527         142.078 
       0.628434         350.072         134.455 
       0.644267         340.397         127.329 
       0.660051         332.028         120.761 
       0.675724         327.622         114.696 
       0.691403         317.491         109.043 
       0.707174         306.274         103.739 
       0.722871         302.423         98.8083 
        0.73838         298.001         94.2512 
       0.754018         289.656         89.9471 
       0.769845         280.475          85.865 
        0.78569         280.016         82.0328 
       0.801365         270.335         78.4727 
       0.817031         261.956         75.1271 
       0.832809         260.044         71.9562 
       0.848511         252.845         68.9835 
       0.864097         249.123         66.1999 
       0.879701         245.314         63.5681 
       0.895507         239.686         61.0489 
       0.911279         231.907         58.6721 
        0.92691         231.717         56.4421 
       0.942635          225.85         54.3163 
       0.958396         223.218         52.2959 
       0.974128         218.776         50.3824 
       0.989692         214.151         48.5839 
        1.00528         211.431          46.871 
        1.02113         209.399         45.2141 
        1.03692         204.163         43.6438 
        1.05264         200.289         42.1556 
        1.06832         196.726         40.7394 
        1.08405         193.293         39.3847 
        1.09979         191.135         38.0911 
        1.11537          187.09         36.8686 
        1.13105         183.425         35.6927 
        1.14679         183.612         34.5638 
        1.16256         180.067         33.4817 
        1.17828         176.476         32.4496 
        1.19395         173.767         31.4647 
         1.2097         173.232         30.5157 
        1.22537         169.194         29.6107 
          1.241         167.621         28.7452 
        1.25666         164.336         27.9123 
        1.27241         161.622         27.1085 
        1.28819         159.846         26.3352 
        1.30392         156.908         25.5944 
        1.31957         156.465         24.8855 
        1.33529         152.112         24.2009 
        1.35108         150.848         23.5394 
        1.36674          149.55         22.9075 
         1.3824         146.891         22.2994 
        1.39811         146.443         21.7115 
        1.41389         143.289         21.1425 
        1.42964          140.56          20.595 
        1.44531         138.485         20.0695 
        1.46101         136.993         19.5614 
        1.47667         134.748         19.0723 
        1.49229         133.039         18.6014 
        1.50793         131.951         18.1459 
        1.52367         130.503         17.7027 
        1.53953         127.668         17.2714 
        1.55526          126.31          16.858 
        1.57092         124.791         16.4598 
        1.58662          122.87         16.0736 
        1.60235         121.814          15.699 
        1.61809         119.802         15.3362 
        1.63369         118.388         14.9881 
        1.64941         117.105         14.6484 
        1.66519         115.121          14.318 
        1.68085         114.323         14.0002 
        1.69652         111.666         13.6919 
        1.71228         111.389         13.3912 
        1.72806         109.938         13.0993 
        1.74368         108.746          12.819 
        1.75933         107.105         12.5464 
        1.77505         105.797         12.2805 
        1.79081         104.627         12.0218 
         1.8065         103.218         11.7717 
        1.82218         101.404         11.5289 
        1.83797         99.9274         11.2914 
        1.85367         99.1148         11.0618 
        1.86928         98.0082         10.8401 
        1.88497         96.1172         10.6232 
        1.90073          95.692         10.4114 
        1.91647         94.2985         10.2056 
        1.93218         93.1992         10.0059 
        1.94787         92.2189         9.81174 
        1.96363         90.8734           9.622 
        1.97935         89.5094         9.43768 
        1.99499         88.8398         9.25924 
        2.01064         87.7995         9.08516 
         2.0264         86.3142         8.91447 
        2.04216         85.5871         8.74825 
        2.05781         84.4126         8.58732 
        2.07353         83.0322         8.42988 
        2.08928         82.0747         8.27604 
        2.10499         80.9099         8.12646 
        2.12065         80.6271         7.98103 
        2.13633         79.6283         7.83904 
        2.15211         78.6106         7.69959 
        2.16785         77.2933         7.56393 
        2.18349         76.3406         7.43238 
        2.19916         75.6728          7.3037 
        2.21489         74.6897         7.17764 
        2.23063         73.7244         7.05447 
         2.2463          72.968         6.93475 
        2.26194         72.7219          6.8181 
        2.27765         71.3928         6.70355 
        2.29341         70.4665         6.59133 
        2.30914         69.5371         6.48191 
        2.32486         68.8011         6.37504 
        2.34061         68.0552         6.27041 
        2.35635         67.1662         6.16822 
        2.37203         66.1904         6.06866 
        2.38768         65.5174         5.97151 
        2.40339          64.836         5.87613 
        2.41914         64.1163         5.78262 
        2.43483         63.8082         5.69147 
         2.4505         62.8001         5.60244 
        2.46622         62.1076         5.51501 
        2.48195         61.3221         5.42945 
        2.49759         60.5308         5.34615 
        2.51328         59.9369         5.26439 
        2.52906          59.429         5.18382 
        2.54479         58.6911         5.10524 
        2.56049          57.814         5.02845 
        2.57618         57.3545         4.95329 
        2.59189         56.5181         4.87957 
        2.60758         56.1409         4.80746 
        2.62325         55.4712         4.73689 
        2.63898         54.8696          4.6675 
        2.65468         54.4314         4.59964 
        2.67044         53.5698         4.53284 
        2.68618         53.2483         4.46753 
        2.70184         52.5973         4.40376 
        2.71755         52.2475         4.34107 
        2.73329         51.3099         4.27952 
        2.74897         50.9002         4.21935 
        2.76462          50.294         4.16048 
        2.78034         49.8333         4.10249 
        2.79607         49.1734         4.04554 
        2.81179          48.632         3.98974 
        2.82749         48.1095         3.93506 
        2.84321         47.6667         3.88133 
        2.85893         47.0911         3.82863 
        2.87462         46.5041           3.777 
        2.89033           46.02         3.72627 
        2.90605         45.5613         3.67643 
        2.92176         45.0898         3.62753 
        2.93747         44.6568         3.57954 
        2.95318         44.0254         3.53241 
        2.96891         43.4746         3.48611 
        2.98456         43.3029         3.44084 
        3.00023         42.6931         3.39631 
        3.01596         42.4251         3.35243 
        3.03164         41.8275         3.30945 
        3.04738         41.5778          3.2671 
         3.0631         41.0683          3.2255 
        3.07883         40.6604         3.18463 
        3.09456         40.1868         3.14447 
        3.11026         39.7044         3.10506 
        3.12596         39.4817         3.06634 
        3.14163         38.9173         3.02836 
        3.15734         38.3374         2.99094 
        3.17308         38.3044         2.95407 
        3.18879         37.9556         2.91791 
        3.20447         37.3883         2.88241 
         3.2202         36.9835         2.84739 
         3.2359         36.6147         2.81302 
        3.25157         36.3115          2.7793 
        3.26729         35.8803         2.74602 
        3.28304         35.4283         2.71323 
        3.29877         35.1835         2.68101 
        3.31446         34.9026         2.64939 
        3.33014         34.4685         2.61831 
        3.34585         34.2214         2.58767 
        3.36158         33.8376         2.55748 
        3.37727         33.4564         2.52787 
        3.39294         33.1611         2.49875 
        3.40867         32.8323         2.46999 
        3.42439         32.5132         2.44169 
        3.44008         32.3596          2.4139 
        3.45578         31.8491         2.38651 
        3.47153         31.5259         2.35949 
        3.48724         31.2787         2.33294 
        3.50292         31.0099         2.30685 
        3.51859         30.6848         2.28118 
        3.53431         30.4152         2.25582 
        3.55007         30.1431         2.23078 
        3.56577         29.8816         2.20622 
        3.58146         29.5866         2.18204 
        3.59719         29.2854         2.15817 
        3.61292         29.0716         2.13466 
        3.62859         28.7026         2.11159 
        3.64429         28.3935         2.08882 
        3.66003         28.1459         2.06631 
        3.67578         27.8911         2.04415 
        3.69146         27.6908         2.02239 
        3.70712         27.4033         2.00099 
        3.72284         27.2742         1.97981 
        3.73853         26.9353         1.95898 
        3.75422          26.667         1.93845 
        3.76993           26.49         1.91819 
        3.78564         26.2162         1.89823 
        3.80137          25.972         1.87851 
        3.81707         25.7677         1.85912 
        3.83279         25.5684         1.83999 
        3.84853         25.2604          1.8211 
        3.86424         25.0118         1.80251 
        3.87992         24.8121          1.7842 
        3.89561         24.5599         1.76615 
        3.91134         24.3657         1.74831 
        3.92704         24.1565         1.73074 
        3.94273         23.9399         1.71343 
        3.95845         23.6065         1.69632 
        3.97418         23.5263         1.67944 
        3.98988         23.2596         1.66282 
        4.00554         23.0351         1.64646 
        4.02125         22.9441         1.63028 
        4.03698         22.6294         1.61429 
        4.05268          22.487         1.59855 
        4.06839         22.2574         1.58301 
         4.0841         22.1028         1.56768 
        4.09983         21.9229         1.55253 
        4.11555         21.7246         1.53759 
        4.13124         21.4315         1.52288 
        4.14693         21.2622         1.50836 
        4.16266         21.0615         1.49399 
        4.17839         20.9032         1.47981 
        4.19408         20.7239         1.46586 
        4.20977         20.5751         1.45207 
        4.22551         20.3656         1.43843 
        4.24123         20.1872         1.42498 
        4.25691         20.0275         1.41174 
        4.27259         19.8411         1.39866 
        4.28831         19.6705         1.38573 
        4.30404         19.4721         1.37294 
        4.31974         19.3835         1.36034 
        4.33543         19.1903         1.34791 
        4.35116         19.0589          1.3356 
        4.36688         18.8541         1.32345 
        4.38255         18.7411          1.3115 
        4.39825         18.6088         1.29967 
        4.41398         18.4022         1.28796 
         4.4297         18.2501          1.2764 
        4.44541         18.1272           1.265 
        4.46111         17.9618         1.25374 
        4.47683         17.7948          1.2426 
        4.49251         17.6806         1.23163 
        4.50819         17.5155         1.22079 
         4.5239         17.3754         1.21007 
        4.53962         17.2006         1.19946 
        4.55535         17.0684         1.18897 
        4.57106         16.9505         1.17863 
        4.58678         16.7948          1.1684 
         4.6025         16.6547         1.15829 
        4.61821         16.5544         1.14831 
        4.63391           16.38         1.13845 
         4.6496         16.2544         1.12872 
        4.66532         16.1177         1.11908 
        4.68103         15.9595         1.10956 
        4.69673         15.8661         1.10016 
        4.71241         15.7814         1.09088 
        4.72811          15.594         1.08169 
        4.74384         15.4925          1.0726 
        4.75955         15.3657         1.06362 
        4.77525         15.2647         1.05475 
        4.79096         15.1254         1.04597 
        4.80669         15.0203         1.03728 
         4.8224         14.8784         1.02871 
        4.83809         14.7407         1.02024 
        4.85379         14.6332         1.01186 
         4.8695         14.5586         1.00357 
        4.88521         14.4497        0.995371 
        4.90093         14.3085        0.987265 
        4.91663         14.2063        0.979257 
        4.93234         14.1187        0.971329 
        4.94807         13.9853        0.963484 
        4.96377          13.869         0.95574 
        4.97943         13.7585        0.948097 
        4.99514         13.6422        0.940518 
        5.01086         13.5515        0.933016 
        5.02654         13.4344        0.925615 
        5.04227         13.3634        0.918272 
          5.058         13.2269        0.911005 
        5.07371         13.1545        0.903832 
        5.08942          13.037        0.896734 
        5.10513         12.9476        0.889712 
        5.12084         12.8407        0.882762 
        5.13656          12.759        0.875887 
        5.15225         12.6316        0.869097 
        5.16796         12.5439        0.862368 
        5.18369         12.4526        0.855704 
         5.1994         12.3828        0.849123 
        5.21509         12.2724        0.842617 
        5.23079         12.1776        0.836171 
        5.24649         12.0829        0.829798 
        5.26217         11.9944        0.823495 
        5.27788         11.8883        0.817249 
        5.29359           11.83        0.811066 
        5.30933         11.7176        0.804939 
        5.32504         11.6663        0.798885 
        5.34073         11.5454          0.7929 
        5.35646         11.4985        0.786964 
        5.37218           11.39        0.781088 
        5.38789         11.3071        0.775281 
        5.40357         11.2264         0.76954 
        5.41929         11.1345        0.763844 
        5.43502         11.0647        0.758205 
         5.4507         10.9761        0.752637 
        5.46639         10.8981        0.747123 
        5.48212         10.8448        0.741652 
        5.49786         10.7509        0.736229 
        5.51353         10.6816        0.730887 
        5.52921         10.5969        0.725593 
        5.54495         10.5199        0.720336 
        5.56066         10.4269        0.715136 
        5.57637         10.3557        0.709989 
        5.59207         10.2766        0.704896 
        5.60778         10.2141        0.699852 
        5.62346         10.1542        0.694864 
        5.63916         10.0702         0.68992 
        5.65487         9.99853        0.685021 
         5.6706         9.94528        0.680164 
        5.68633         9.86059        0.675352 
        5.70203         9.79606        0.670597 
        5.71773         9.72968        0.665889 
        5.73344         9.65193        0.661223 
        5.74916         9.58706        0.656597 
        5.76486         9.50681        0.652022 
        5.78054         9.44956        0.647498 
        5.79626         9.38501        0.643003 
          5.812         9.32658        0.638547 
         5.8277          9.2477        0.634146 
        5.84339         9.20908        0.629787 
        5.85911         9.12768         0.62546 
        5.87484         9.05332        0.621175 
        5.89053         8.99206        0.616938 
        5.90623         8.92785        0.612738 
        5.92195         8.88412        0.608571 
        5.93767         8.81138        0.604444 
        5.95336           8.757        0.600363 
        5.96905         8.71773        0.596321 
        5.98476         8.64971         0.59231 
        6.00048         8.58908        0.588335 
        6.01617         8.53675        0.584401 
        6.03185         8.46886        0.580508 
        6.04756         8.42567        0.576642 
        6.06331         8.35398        0.572802 
        6.07903         8.31119        0.569005 
        6.09473         8.26298        0.565247 
        6.11044         8.20329        0.561518 
        6.12616         8.14767        0.557824 
        6.14186         8.08485        0.554167 
        6.15755         8.03388        0.550543 
        6.17326         7.98568        0.546948 
        6.18898         7.92049        0.543384 
        6.20467         7.86471        0.539858 
        6.22036         7.81878        0.536364 
         6.2361         7.76835         0.53289 
         6.2518          7.7015        0.529454 
        6.26748         7.66881        0.526055 
        6.28319         7.62627        0.522676 
        6.29893         7.56966        0.519325 
        6.31463         7.51532        0.516008 
        6.33033          7.4676        0.512722 
        6.34604         7.42958        0.509461 
        6.36177          7.3742        0.506226 
        6.37747         7.32961        0.503025 
