# k  (h/Mpc)    Pcb(k)  (Mpc/h)^3    Pcb_linear(k) (Mpc/h)^3   ShotnoiseSubtracted = true
      0.0200456         13452.6         13660.2 
      0.0350414         10204.1          9930.5 
      0.0492313         7130.99         7215.31 
      0.0637834         5764.73         5998.03 
      0.0800726         4538.01         4760.49 
       0.096163         3576.63         3454.15 
       0.111083         2908.29         2755.12 
       0.126058         2418.85         2441.59 
       0.142273         2092.41         2068.57 
       0.158546         1718.63         1633.73 
        0.17375         1509.02         1376.42 
       0.188953         1404.09         1246.32 
       0.204907         1200.95         1102.74 
       0.220756         1078.04         932.982 
        0.23588         959.141         811.613 
         0.2514         859.588         737.342 
       0.267535         834.044         667.168 
       0.283568         730.815         588.353 
       0.299022         697.482         524.192 
       0.314451         709.755         479.076 
       0.330372         610.882         439.498 
       0.346141         565.284         398.912 
       0.361624         540.778         362.556 
       0.377134         508.746         333.609 
       0.392932         492.069         308.682 
       0.408854          468.41         284.545 
       0.424564         453.687         262.269 
       0.440253         411.823         243.154 
       0.455999         394.484         226.532 
       0.471626         397.903         211.257 
        0.48727         376.711         196.969 
       0.502856         347.594         184.132 
       0.518488         348.153         172.679 
       0.534347         324.279         162.031 
       0.550082         313.629         152.213 
       0.565732         311.938         143.232 
       0.581496         298.429         135.005 
       0.597222         290.006         127.461 
       0.612804          282.49         120.524 
       0.628434         271.717         114.058 
       0.644267         260.277         108.013 
       0.660051         256.299         102.441 
       0.675724         253.061         97.2963 
       0.691403         246.363         92.5005 
       0.707174         237.485          88.001 
       0.722871         233.897         83.8187 
        0.73838         231.668         79.9529 
       0.754018         220.467         76.3018 
       0.769845         220.146          72.839 
        0.78569         214.591         69.5881 
       0.801365         208.719         66.5681 
       0.817031         204.457           63.73 
       0.832809         201.095         61.0402 
       0.848511         196.035         58.5184 
       0.864097          191.57         56.1572 
       0.879701         190.507         53.9246 
       0.895507         185.945         51.7875 
       0.911279         180.491         49.7713 
        0.92691         178.142         47.8796 
       0.942635         176.249         46.0763 
       0.958396         172.447         44.3624 
       0.974128         169.194         42.7392 
       0.989692         164.185         41.2136 
        1.00528         163.302         39.7605 
        1.02113         159.814          38.355 
        1.03692         157.322         37.0229 
        1.05264         155.081         35.7604 
        1.06832          153.33         34.5591 
        1.08405         149.811         33.4099 
        1.09979         148.929         32.3126 
        1.11537         145.699         31.2755 
        1.13105         143.867          30.278 
        1.14679         141.756         29.3203 
        1.16256         139.402         28.4024 
        1.17828          137.82         27.5269 
        1.19395         134.482         26.6914 
         1.2097         133.636         25.8864 
        1.22537          131.69         25.1186 
          1.241         129.612         24.3844 
        1.25666         126.941         23.6779 
        1.27241         124.239         22.9961 
        1.28819         123.559         22.3401 
        1.30392         121.451         21.7116 
        1.31957          119.29         21.1103 
        1.33529         118.062         20.5295 
        1.35108         116.731         19.9684 
        1.36674         114.571         19.4324 
         1.3824         114.233         18.9165 
        1.39811         111.295         18.4177 
        1.41389         110.408         17.9351 
        1.42964         108.127         17.4706 
        1.44531         107.255         17.0249 
        1.46101         105.359         16.5938 
        1.47667         105.039          16.179 
        1.49229         103.773         15.7795 
        1.50793         101.715         15.3931 
        1.52367         100.599         15.0172 
        1.53953         99.3808         14.6513 
        1.55526         98.0929         14.3006 
        1.57092         97.3455         13.9628 
        1.58662         95.8919         13.6351 
        1.60235         94.2719         13.3174 
        1.61809         93.6418         13.0097 
        1.63369         91.8832         12.7144 
        1.64941         91.8491         12.4262 
        1.66519         89.9943         12.1459 
        1.68085          88.744         11.8763 
        1.69652         87.3685         11.6148 
        1.71228         86.5162         11.3597 
        1.72806         85.7637         11.1121 
        1.74368         84.2454         10.8743 
        1.75933         83.6186         10.6431 
        1.77505         82.7397         10.4175 
        1.79081         81.3095         10.1981 
         1.8065         80.7559          9.9859 
        1.82218         79.4058         9.77997 
        1.83797         79.0142         9.57844 
        1.85367         77.4379         9.38372 
        1.86928         76.8368         9.19558 
        1.88497         76.0952         9.01159 
        1.90073         75.1888         8.83197 
        1.91647         73.9291          8.6574 
        1.93218         73.1522         8.48794 
        1.94787         72.2586         8.32326 
        1.96363         71.3957         8.16231 
        1.97935          70.775         8.00595 
        1.99499         69.9297         7.85458 
        2.01064         69.0031         7.70691 
         2.0264          68.036         7.56211 
        2.04216         67.2755         7.42111 
        2.05781         66.5726          7.2846 
        2.07353         65.8081         7.15104 
        2.08928         64.9641         7.02054 
        2.10499         64.2211         6.89365 
        2.12065         63.7067         6.77028 
        2.13633         63.0968         6.64983 
        2.15211         62.1124         6.53154 
        2.16785          61.099         6.41645 
        2.18349         60.6438         6.30487 
        2.19916         59.8884          6.1957 
        2.21489         59.2099         6.08876 
        2.23063         58.4796         5.98428 
         2.2463          57.963         5.88272 
        2.26194          57.529         5.78377 
        2.27765         56.6404          5.6866 
        2.29341         55.9756          5.5914 
        2.30914         55.2647         5.49858 
        2.32486          54.569         5.40793 
        2.34061         54.2378         5.31917 
        2.35635         53.3764         5.23248 
        2.37203         52.9232         5.14802 
        2.38768         52.4143         5.06561 
        2.40339         51.8248          4.9847 
        2.41914         51.1675         4.90537 
        2.43483         50.5832         4.82805 
         2.4505         50.1952         4.75253 
        2.46622         49.6213         4.67837 
        2.48195         48.9877         4.60578 
        2.49759         48.4111         4.53512 
        2.51328         48.0982         4.46577 
        2.52906         47.3842         4.39742 
        2.54479         47.0002         4.33076 
        2.56049         46.1693         4.26561 
        2.57618          45.862         4.20186 
        2.59189          45.475         4.13932 
        2.60758         44.7136         4.07815 
        2.62325         44.4126         4.01829 
        2.63898         43.9883         3.95942 
        2.65468         43.5565         3.90186 
        2.67044         43.1056         3.84519 
        2.68618         42.7308         3.78979 
        2.70184         41.9881         3.73569 
        2.71755          41.758         3.68252 
        2.73329         41.1752          3.6303 
        2.74897         40.9776         3.57926 
        2.76462         40.3702         3.52932 
        2.78034         40.0099         3.48013 
        2.79607         39.5271         3.43182 
        2.81179         39.1958         3.38448 
        2.82749         38.7068         3.33809 
        2.84321         38.3446         3.29252 
        2.85893         37.8578         3.24781 
        2.87462         37.4262         3.20401 
        2.89033         37.1762         3.16098 
        2.90605         36.6638          3.1187 
        2.92176         36.4775         3.07722 
        2.93747         36.1437         3.03651 
        2.95318         35.7314         2.99653 
        2.96891           35.25         2.95725 
        2.98456         35.0512         2.91885 
        3.00023         34.6292         2.88108 
        3.01596         34.2914         2.84385 
        3.03164         33.9277         2.80739 
        3.04738         33.5936         2.77147 
         3.0631         33.3946         2.73618 
        3.07883         32.9347         2.70151 
        3.09456         32.4798         2.66744 
        3.11026         32.1953         2.63402 
        3.12596         31.9255         2.60116 
        3.14163         31.6123         2.56895 
        3.15734         31.3038         2.53721 
        3.17308          30.998         2.50592 
        3.18879          30.638         2.47525 
        3.20447         30.3572         2.44514 
         3.2202         30.0973         2.41543 
         3.2359         29.7882         2.38628 
        3.25157         29.5802         2.35767 
        3.26729         29.1932         2.32944 
        3.28304         28.8947         2.30162 
        3.29877         28.5183         2.27429 
        3.31446          28.314         2.24747 
        3.33014         28.0633          2.2211 
        3.34585         27.7831         2.19511 
        3.36158         27.5637          2.1695 
        3.37727         27.2641         2.14438 
        3.39294         26.9739         2.11968 
        3.40867         26.7191         2.09528 
        3.42439           26.54         2.07128 
        3.44008         26.2612          2.0477 
        3.45578         26.0956         2.02447 
        3.47153         25.7406         2.00155 
        3.48724         25.5051         1.97902 
        3.50292         25.2893          1.9569 
        3.51859         24.9801         1.93512 
        3.53431         24.7757          1.9136 
        3.55007         24.5272         1.89236 
        3.56577         24.2807         1.87153 
        3.58146         24.1171         1.85102 
        3.59719         23.8792         1.83077 
        3.61292         23.6645         1.81082 
        3.62859         23.4686         1.79126 
        3.64429         23.1851         1.77194 
        3.66003         23.0587         1.75285 
        3.67578         22.8108         1.73404 
        3.69146         22.6177         1.71558 
        3.70712         22.4303         1.69743 
        3.72284         22.2487         1.67947 
        3.73853         22.0581          1.6618 
        3.75422         21.7273         1.64438 
        3.76993         21.5678         1.62719 
        3.78564         21.3707         1.61026 
        3.80137         21.1788         1.59354 
        3.81707         21.0336         1.57709 
        3.83279         20.8448         1.56086 
        3.84853         20.6336         1.54483 
        3.86424         20.4439         1.52906 
        3.87992         20.2525         1.51353 
        3.89561         20.1386         1.49822 
        3.91134         19.8441         1.48309 
        3.92704         19.7734         1.46818 
        3.94273         19.5119         1.45349 
        3.95845         19.3857         1.43898 
        3.97418         19.1614         1.42466 
        3.98988         19.0362         1.41056 
        4.00554         18.9268         1.39669 
        4.02125         18.6649         1.38296 
        4.03698         18.5048         1.36939 
        4.05268         18.3642         1.35604 
        4.06839          18.237         1.34286 
         4.0841          18.025         1.32986 
        4.09983         17.8486           1.317 
        4.11555         17.6949         1.30433 
        4.13124          17.608         1.29186 
        4.14693         17.4165         1.27953 
        4.16266         17.3341         1.26734 
        4.17839         17.1455         1.25532 
        4.19408         16.9665         1.24348 
        4.20977         16.8676         1.23179 
        4.22551         16.7013         1.22022 
        4.24123         16.5605         1.20881 
        4.25691         16.3636         1.19758 
        4.27259         16.2879         1.18648 
        4.28831         16.1708         1.17551 
        4.30404         16.0109         1.16466 
        4.31974         15.9186         1.15397 
        4.33543         15.7638         1.14342 
        4.35116         15.5928         1.13298 
        4.36688         15.5044         1.12268 
        4.38255         15.3767         1.11254 
        4.39825         15.1894          1.1025 
        4.41398         15.1306         1.09257 
         4.4297         14.9842         1.08277 
        4.44541         14.8182         1.07309 
        4.46111         14.7414         1.06354 
        4.47683         14.5735          1.0541 
        4.49251         14.4854         1.04479 
        4.50819         14.3598         1.03559 
         4.5239         14.2257          1.0265 
        4.53962         14.1402          1.0175 
        4.55535         14.0073          1.0086 
        4.57106         13.9274        0.999824 
        4.58678         13.7819         0.99115 
         4.6025         13.6822        0.982577 
        4.61821         13.5785        0.974107 
        4.63391          13.452        0.965747 
         4.6496         13.3253        0.957488 
        4.66532         13.2224        0.949314 
        4.68103         13.1247        0.941239 
        4.69673         13.0193        0.933265 
        4.71241         12.9271        0.925391 
        4.72811         12.8079        0.917595 
        4.74384         12.7314        0.909879 
        4.75955         12.6201        0.902263 
        4.77525         12.5126        0.894739 
        4.79096         12.4144        0.887291 
        4.80669         12.3437        0.879924 
         4.8224         12.2353         0.87265 
        4.83809          12.161        0.865465 
        4.85379         12.0435        0.858357 
         4.8695         11.9534        0.851322 
        4.88521         11.8746         0.84437 
        4.90093         11.8027        0.837494 
        4.91663         11.7147          0.8307 
        4.93234         11.6099        0.823975 
        4.94807         11.5262         0.81732 
        4.96377         11.4276         0.81075 
        4.97943         11.3532        0.804267 
        4.99514         11.2335        0.797838 
        5.01086         11.1574        0.791474 
        5.02654         11.0708        0.785196 
        5.04227         10.9476        0.778967 
          5.058         10.9057        0.772803 
        5.07371         10.8245        0.766717 
        5.08942         10.7604        0.760697 
        5.10513         10.6602         0.75474 
        5.12084          10.593        0.748844 
        5.13656         10.5164        0.743012 
        5.15225         10.4224        0.737252 
        5.16796         10.3587        0.731544 
        5.18369         10.2817        0.725891 
         5.1994         10.1719        0.720308 
        5.21509         10.1266        0.714789 
        5.23079         10.0143        0.709321 
        5.24649         9.96009        0.703914 
        5.26217         9.87813        0.698568 
        5.27788         9.82151        0.693269 
        5.29359         9.72979        0.688025 
        5.30933         9.68747        0.682827 
        5.32504         9.59569        0.677691 
        5.34073         9.55201        0.672614 
        5.35646         9.45992        0.667579 
        5.37218         9.39422        0.662594 
        5.38789         9.31497        0.657668 
        5.40357          9.2469        0.652798 
        5.41929         9.19814        0.647966 
        5.43502         9.13264        0.643183 
         5.4507         9.04551        0.638459 
        5.46639         9.00722        0.633782 
        5.48212         8.91285        0.629141 
        5.49786         8.85137        0.624541 
        5.51353         8.80193        0.620009 
        5.52921         8.74387        0.615518 
        5.54495         8.68045        0.611058 
        5.56066         8.60344        0.606648 
        5.57637         8.54635        0.602281 
        5.59207         8.49562        0.597961 
        5.60778         8.42027        0.593682 
        5.62346         8.37571        0.589451 
        5.63916         8.31937        0.585256 
        5.65487         8.26138        0.581101 
         5.6706         8.19682        0.576981 
        5.68633         8.13769        0.572899 
        5.70203         8.06802        0.568865 
        5.71773         8.02903        0.564871 
        5.73344         7.98262        0.560913 
        5.74916         7.91897        0.556989 
        5.76486         7.86933        0.553108 
        5.78054         7.80667         0.54927 
        5.79626         7.74542        0.545457 
          5.812         7.71323        0.541677 
         5.8277         7.66477        0.537944 
        5.84339         7.60005        0.534246 
        5.85911           7.538        0.530576 
        5.87484         7.50154         0.52694 
        5.89053         7.43624        0.523346 
        5.90623         7.37729        0.519784 
        5.92195         7.34515        0.516249 
        5.93767         7.28995        0.512748 
        5.95336         7.26019        0.509286 
        5.96905         7.18099        0.505857 
        5.98476         7.14142        0.502454 
        6.00048         7.09815        0.499082 
        6.01617         7.04487        0.495745 
        6.03185         7.00687        0.492443 
        6.04756         6.95854        0.489163 
        6.06331          6.9112        0.485906 
        6.07903         6.86188        0.482685 
        6.09473          6.8162        0.479497 
        6.11044         6.78935        0.476334 
        6.12616         6.72333          0.4732 
        6.14186         6.69045        0.470098 
        6.15755          6.6355        0.467024 
        6.17326         6.60693        0.463974 
        6.18898         6.55332        0.460951 
        6.20467          6.5069         0.45796 
        6.22036         6.47713        0.454995 
         6.2361         6.42145        0.452049 
         6.2518         6.38285        0.449134 
        6.26748         6.33552         0.44625 
        6.28319         6.29987        0.443385 
        6.29893         6.26649        0.440541 
        6.31463         6.21863        0.437728 
        6.33033         6.18782         0.43494 
        6.34604         6.14494        0.432174 
        6.36177         6.08963         0.42943 
        6.37747         6.07385        0.426714 
