# k  (h/Mpc)    Pcb(k)  (Mpc/h)^3    Pcb_linear(k) (Mpc/h)^3   ShotnoiseSubtracted = true
      0.0200456           805.1          816.37 
      0.0350414         591.077         593.474 
      0.0492313         432.763         431.207 
      0.0637834         361.045         358.458 
      0.0800726         286.212         284.499 
       0.096163          206.05         206.429 
       0.111083         163.715         164.653 
       0.126058         146.424         145.916 
       0.142273         124.571         123.623 
       0.158546         98.9196         97.6363 
        0.17375         82.1944         82.2585 
       0.188953         75.1237         74.4832 
       0.204907         68.0535         65.9025 
       0.220756         56.9145         55.7575 
        0.23588         49.5277         48.5042 
         0.2514         44.5556         44.0656 
       0.267535         40.5565         39.8718 
       0.283568         36.0021         35.1615 
       0.299022         32.3552         31.3271 
       0.314451         29.0215         28.6309 
       0.330372         26.8781         26.2656 
       0.346141         24.4191           23.84 
       0.361624         22.3836         21.6673 
       0.377134         20.8208         19.9374 
       0.392932         18.6206         18.4476 
       0.408854         17.7319         17.0052 
       0.424564         16.3433         15.6739 
       0.440253         15.1064         14.5315 
       0.455999         14.2065         13.5382 
       0.471626         13.3371         12.6253 
        0.48727         12.4203         11.7714 
       0.502856         11.5649         11.0042 
       0.518488         11.0294         10.3197 
       0.534347         10.4888         9.68341 
       0.550082          9.6029         9.09668 
       0.565732         8.87442         8.55991 
       0.581496         8.64398         8.06829 
       0.597222         8.24996         7.61742 
       0.612804         7.69598         7.20283 
       0.628434         7.40285          6.8164 
       0.644267         7.03188         6.45512 
       0.660051         6.62966         6.12215 
       0.675724         6.30509         5.81469 
       0.691403         6.07015         5.52808 
       0.707174         5.74709         5.25918 
       0.722871         5.48862         5.00923 
        0.73838         5.27253          4.7782 
       0.754018         5.09412            4.56 
       0.769845         4.82082         4.35305 
        0.78569         4.64568         4.15877 
       0.801365         4.43716         3.97829 
       0.817031         4.28096         3.80868 
       0.832809         4.11762         3.64793 
       0.848511         3.89728         3.49722 
       0.864097         3.74426          3.3561 
       0.879701         3.61316         3.22268 
       0.895507         3.46694         3.09496 
       0.911279         3.39967         2.97447 
        0.92691         3.26345         2.86142 
       0.942635         3.12332         2.75364 
       0.958396          3.0049         2.65122 
       0.974128         2.91453         2.55421 
       0.989692         2.84767         2.46303 
        1.00528         2.72105         2.37619 
        1.02113         2.61757          2.2922 
        1.03692         2.56847         2.21259 
        1.05264         2.47185         2.13714 
        1.06832         2.40793         2.06534 
        1.08405         2.29071         1.99667 
        1.09979         2.24066         1.93109 
        1.11537         2.18035         1.86911 
        1.13105         2.12273          1.8095 
        1.14679         2.06372         1.75226 
        1.16256         1.98781          1.6974 
        1.17828         1.93959         1.64508 
        1.19395         1.88524         1.59515 
         1.2097         1.80246         1.54704 
        1.22537         1.76686         1.50116 
          1.241         1.72571         1.45728 
        1.25666         1.70661         1.41505 
        1.27241         1.62503         1.37431 
        1.28819         1.58714          1.3351 
        1.30392         1.55767         1.29755 
        1.31957         1.51803         1.26161 
        1.33529         1.47038          1.2269 
        1.35108         1.43588         1.19337 
        1.36674         1.38733         1.16133 
         1.3824         1.35957          1.1305 
        1.39811         1.32465         1.10069 
        1.41389          1.2998         1.07185 
        1.42964         1.26954         1.04409 
        1.44531         1.23599         1.01745 
        1.46101         1.21243        0.991692 
        1.47667         1.16591        0.966901 
        1.49229         1.15671        0.943026 
        1.50793         1.12356        0.919932 
        1.52367         1.10344        0.897465 
        1.53953          1.0677          0.8756 
        1.55526         1.04745        0.854639 
        1.57092         1.02435        0.834453 
        1.58662         1.00622        0.814873 
        1.60235        0.981562        0.795884 
        1.61809        0.956096        0.777492 
        1.63369        0.949263        0.759846 
        1.64941        0.919516        0.742623 
        1.66519        0.903261        0.725873 
        1.68085        0.875881        0.709759 
        1.69652        0.861152        0.694131 
        1.71228        0.848979        0.678886 
        1.72806         0.82364        0.664088 
        1.74368        0.814721         0.64988 
        1.75933        0.793545         0.63606 
        1.77505        0.780077        0.622578 
        1.79081        0.764709        0.609464 
         1.8065        0.743997        0.596784 
        1.82218        0.736007        0.584477 
        1.83797        0.721132        0.572433 
        1.85367        0.713925        0.560796 
        1.86928        0.697585        0.549553 
        1.88497        0.680385        0.538557 
        1.90073        0.665672        0.527822 
        1.91647        0.660492         0.51739 
        1.93218         0.64426        0.507262 
        1.94787        0.632379         0.49742 
        1.96363          0.6199        0.487802 
        1.97935        0.608331        0.478457 
        1.99499        0.597938        0.469411 
        2.01064        0.587026        0.460585 
         2.0264        0.577566        0.451932 
        2.04216        0.569011        0.443505 
        2.05781        0.557877        0.435347 
        2.07353        0.547363        0.427365 
        2.08928         0.53574        0.419566 
        2.10499        0.529604        0.411983 
        2.12065        0.524147         0.40461 
        2.13633        0.513529        0.397412 
        2.15211        0.503192        0.390342 
        2.16785        0.493762        0.383464 
        2.18349        0.486218        0.376796 
        2.19916         0.47963        0.370272 
        2.21489        0.470228        0.363881 
        2.23063        0.463147        0.357637 
         2.2463        0.458357        0.351567 
        2.26194        0.444755        0.345654 
        2.27765        0.440288        0.339846 
        2.29341        0.435419        0.334157 
        2.30914        0.430674         0.32861 
        2.32486        0.421533        0.323192 
        2.34061        0.414599        0.317888 
        2.35635        0.406588        0.312707 
        2.37203        0.401607         0.30766 
        2.38768        0.396002        0.302734 
        2.40339        0.390655        0.297899 
        2.41914        0.384934        0.293158 
        2.43483        0.378468        0.288537 
         2.4505        0.371925        0.284024 
        2.46622        0.366948        0.279592 
        2.48195        0.363631        0.275254 
        2.49759        0.357316        0.271031 
        2.51328        0.350725        0.266886 
        2.52906        0.347249        0.262802 
        2.54479         0.34124        0.258818 
        2.56049        0.335199        0.254924 
        2.57618        0.331692        0.251115 
        2.59189        0.327803        0.247377 
        2.60758        0.323762        0.243721 
        2.62325        0.318106        0.240144 
        2.63898        0.314571        0.236626 
        2.65468        0.309283        0.233186 
        2.67044         0.30504        0.229799 
        2.68618        0.300881        0.226488 
        2.70184        0.297222        0.223255 
        2.71755        0.292249        0.220077 
        2.73329        0.288766        0.216956 
        2.74897        0.285691        0.213906 
        2.76462        0.281749        0.210922 
        2.78034        0.277724        0.207982 
        2.79607         0.27436        0.205095 
        2.81179         0.27087        0.202266 
        2.82749        0.267131        0.199493 
        2.84321        0.264536         0.19677 
        2.85893        0.260676        0.194098 
        2.87462        0.257065         0.19148 
        2.89033         0.25359        0.188909 
        2.90605        0.251256        0.186382 
        2.92176        0.247584        0.183903 
        2.93747        0.244422         0.18147 
        2.95318         0.24192        0.179081 
        2.96891        0.238758        0.176733 
        2.98456        0.235726        0.174438 
        3.00023        0.233509        0.172181 
        3.01596        0.230107        0.169956 
        3.03164        0.228046        0.167777 
        3.04738        0.223947         0.16563 
         3.0631        0.222541        0.163522 
        3.07883        0.218952        0.161449 
        3.09456        0.216628        0.159413 
        3.11026        0.214929        0.157416 
        3.12596        0.211376        0.155453 
        3.14163        0.209684        0.153527 
        3.15734        0.207846         0.15163 
        3.17308        0.205281        0.149761 
        3.18879        0.203334        0.147928 
        3.20447        0.199608        0.146128 
         3.2202        0.198748        0.144353 
         3.2359        0.196148         0.14261 
        3.25157        0.194368        0.140901 
        3.26729        0.191841        0.139214 
        3.28304        0.190535        0.137551 
        3.29877        0.187961        0.135918 
        3.31446        0.186247        0.134315 
        3.33014        0.184435        0.132739 
        3.34585        0.183581        0.131186 
        3.36158        0.180922        0.129655 
        3.37727        0.179369        0.128154 
        3.39294        0.177147        0.126678 
        3.40867        0.175151         0.12522 
        3.42439        0.173992        0.123785 
        3.44008        0.171798        0.122376 
        3.45578         0.17096        0.120988 
        3.47153        0.168932        0.119618 
        3.48724         0.16769        0.118272 
        3.50292        0.166164        0.116949 
        3.51859        0.163873        0.115648 
        3.53431        0.162321        0.114362 
        3.55007        0.161533        0.113093 
        3.56577          0.1594        0.111848 
        3.58146        0.158016        0.110622 
        3.59719        0.156815        0.109412 
        3.61292         0.15584         0.10822 
        3.62859        0.153871         0.10705 
        3.64429        0.152611        0.105896 
        3.66003        0.151458        0.104755 
        3.67578        0.150148        0.103631 
        3.69146        0.148672        0.102528 
        3.70712        0.147757        0.101443 
        3.72284         0.14635         0.10037 
        3.73853        0.145431       0.0993136 
        3.75422        0.144123       0.0982725 
        3.76993        0.142884       0.0972454 
        3.78564        0.141421       0.0962333 
        3.80137        0.140368        0.095234 
        3.81707        0.139255        0.094251 
        3.83279        0.138269       0.0932811 
        3.84853        0.136761       0.0923232 
        3.86424        0.135716       0.0913807 
        3.87992          0.1347       0.0904527 
        3.89561        0.133396       0.0895376 
        3.91134        0.132798       0.0886332 
        3.92704        0.131199       0.0877424 
        3.94273        0.129925       0.0868647 
        3.95845        0.128866       0.0859974 
        3.97418         0.12828       0.0851417 
        3.98988        0.126483       0.0842989 
        4.00554        0.125647       0.0834697 
        4.02125        0.124425       0.0826493 
        4.03698        0.122802       0.0818387 
        4.05268        0.121734       0.0810408 
        4.06839        0.119935       0.0802529 
         4.0841        0.118428       0.0794757 
        4.09983        0.117023       0.0787077 
        4.11555        0.115645       0.0779502 
        4.13124        0.113857       0.0772047 
        4.14693        0.113136       0.0764684 
        4.16266        0.111563       0.0757399 
        4.17839        0.110446       0.0750214 
        4.19408        0.109294       0.0743138 
        4.20977        0.108299        0.073615 
        4.22551        0.107134       0.0729235 
        4.24123        0.106066       0.0722416 
        4.25691        0.104857       0.0715703 
        4.27259        0.103944       0.0709073 
        4.28831         0.10291       0.0702514 
        4.30404        0.101979       0.0696031 
        4.31974         0.10168       0.0689644 
        4.33543        0.100437       0.0683341 
        4.35116       0.0993602       0.0677102 
        4.36688       0.0987067       0.0670942 
        4.38255       0.0975813       0.0664883 
        4.39825       0.0973824       0.0658885 
        4.41398       0.0965769       0.0652949 
         4.4297       0.0959791       0.0647092 
        4.44541       0.0954642       0.0641308 
        4.46111        0.094703         0.06356 
        4.47683       0.0942018       0.0629956 
        4.49251       0.0935504       0.0624393 
        4.50819       0.0931379       0.0618898 
         4.5239       0.0926068       0.0613461 
        4.53962        0.092343       0.0608083 
        4.55535       0.0917993       0.0602767 
        4.57106       0.0914335       0.0597522 
        4.58678       0.0908698       0.0592338 
         4.6025        0.090852       0.0587214 
        4.61821       0.0906487       0.0582152 
        4.63391       0.0903534       0.0577156 
         4.6496       0.0901135       0.0572221 
        4.66532       0.0900297       0.0567336 
        4.68103        0.089886       0.0562509 
        4.69673       0.0893664       0.0557744 
        4.71241       0.0895615       0.0553038 
        4.72811       0.0893157       0.0548379 
        4.74384        0.089367       0.0543768 
        4.75955       0.0896975       0.0539217 
        4.77525       0.0896674        0.053472 
        4.79096       0.0893335       0.0530269 
        4.80669        0.089525       0.0525866 
         4.8224       0.0897931       0.0521519 
        4.83809       0.0896782       0.0517225 
        4.85379       0.0898935       0.0512977 
         4.8695       0.0899968       0.0508773 
        4.88521       0.0903538       0.0504618 
        4.90093       0.0905053       0.0500509 
        4.91663       0.0907275       0.0496449 
        4.93234        0.091019        0.049243 
        4.94807       0.0915716       0.0488452 
        4.96377       0.0919859       0.0484526 
        4.97943       0.0927454       0.0480652 
        4.99514       0.0925401       0.0476809 
        5.01086       0.0935137       0.0473006 
        5.02654       0.0936523       0.0469254 
        5.04227       0.0942596       0.0465531 
          5.058       0.0949158       0.0461848 
        5.07371       0.0957173       0.0458211 
        5.08942       0.0960103       0.0454613 
        5.10513       0.0969121       0.0451053 
        5.12084       0.0973942       0.0447529 
        5.13656       0.0979156       0.0444044 
        5.15225       0.0992104       0.0440602 
        5.16796       0.0998474        0.043719 
        5.18369        0.100431       0.0433812 
         5.1994        0.101743       0.0430475 
        5.21509        0.102366       0.0427177 
        5.23079        0.103597       0.0423909 
        5.24649        0.104753       0.0420678 
        5.26217        0.105634       0.0417483 
        5.27788         0.10672       0.0414316 
        5.29359        0.107462       0.0411182 
        5.30933        0.108811       0.0408076 
        5.32504        0.110115       0.0405006 
        5.34073        0.111048       0.0401972 
        5.35646        0.111913       0.0398963 
        5.37218        0.113776       0.0395984 
        5.38789        0.114676        0.039304 
        5.40357        0.115837       0.0390129 
        5.41929        0.117757       0.0387242 
        5.43502        0.118993       0.0384383 
         5.4507        0.120609        0.038156 
        5.46639        0.121897       0.0378765 
        5.48212        0.123648       0.0375991 
        5.49786        0.125337       0.0373242 
        5.51353        0.126872       0.0370534 
        5.52921         0.12815        0.036785 
        5.54495        0.130426       0.0365185 
        5.56066        0.132088       0.0362549 
        5.57637        0.133946       0.0359939 
        5.59207        0.136202       0.0357358 
        5.60778        0.137978         0.03548 
        5.62346        0.140313       0.0352271 
        5.63916        0.142161       0.0349765 
        5.65487        0.143934       0.0347281 
         5.6706        0.146227       0.0344819 
        5.68633        0.147685        0.034238 
        5.70203        0.150287       0.0339969 
        5.71773        0.152746       0.0337582 
        5.73344        0.154195       0.0335217 
        5.74916         0.15752       0.0332872 
        5.76486        0.159488       0.0330552 
        5.78054        0.161687       0.0328258 
        5.79626        0.164404        0.032598 
          5.812        0.166946       0.0323721 
         5.8277        0.169786        0.032149 
        5.84339        0.171966        0.031928 
        5.85911        0.175332       0.0317086 
        5.87484        0.177374       0.0314914 
        5.89053        0.181007       0.0312766 
        5.90623        0.183135       0.0310637 
        5.92195         0.18589       0.0308524 
        5.93767        0.188412       0.0306432 
        5.95336        0.192854       0.0304363 
        5.96905        0.194533       0.0302314 
        5.98476        0.196726        0.030028 
        6.00048        0.201239       0.0298265 
        6.01617        0.203987       0.0296271 
        6.03185        0.206724       0.0294297 
        6.04756        0.210905       0.0292337 
        6.06331        0.212893        0.029039 
        6.07903        0.216231       0.0288466 
        6.09473         0.21977        0.028656 
        6.11044         0.22359        0.028467 
        6.12616        0.225987       0.0282797 
        6.14186        0.230164       0.0280943 
        6.15755        0.233176       0.0279106 
        6.17326        0.237594       0.0277284 
        6.18898        0.240061       0.0275477 
        6.20467        0.244912       0.0273689 
        6.22036        0.247476       0.0271917 
         6.2361        0.250814       0.0270157 
         6.2518         0.25556       0.0268414 
        6.26748        0.257261       0.0266691 
        6.28319        0.262171       0.0264979 
        6.29893        0.266381       0.0263279 
        6.31463        0.270539       0.0261598 
        6.33033        0.273367       0.0259932 
        6.34604        0.276578       0.0258279 
        6.36177        0.281762       0.0256639 
        6.37747        0.285654       0.0255016 
