# k  (h/Mpc)    Pcb(k)  (Mpc/h)^3    Pcb_linear(k) (Mpc/h)^3   ShotnoiseSubtracted = true
      0.0200456         14823.2         15057.3 
      0.0350414         11256.1         10946.1 
      0.0492313         7846.99         7953.24 
      0.0637834         6339.45         6611.46 
      0.0800726         4987.73         5247.35 
       0.096163         3945.21         3807.41 
       0.111083         3209.48         3036.89 
       0.126058         2665.24          2691.3 
       0.142273         2310.89         2280.12 
       0.158546         1898.36         1800.82 
        0.17375          1671.6         1517.19 
       0.188953         1560.56         1373.78 
       0.204907         1336.28         1215.52 
       0.220756         1200.89          1028.4 
        0.23588         1069.41         894.619 
         0.2514         959.422         812.752 
       0.267535         930.985         735.401 
       0.283568         817.763         648.525 
       0.299022         780.916         577.802 
       0.314451         799.157         528.072 
       0.330372         689.472         484.447 
       0.346141         637.168         439.709 
       0.361624         610.168         399.636 
       0.377134         576.574         367.728 
       0.392932         556.404         340.251 
       0.408854         530.108         313.646 
       0.424564         514.484         289.092 
       0.440253         468.549         268.022 
       0.455999          448.87           249.7 
       0.471626          454.55         232.863 
        0.48727         429.786         217.113 
       0.502856         398.778         202.964 
       0.518488         397.947         190.339 
       0.534347         371.966         178.602 
       0.550082         358.494         167.781 
       0.565732         356.328          157.88 
       0.581496         343.531         148.813 
       0.597222         333.645         140.497 
       0.612804         325.407          132.85 
       0.628434          312.71         125.723 
       0.644267          300.16         119.059 
       0.660051         295.887         112.918 
       0.675724         291.648         107.247 
       0.691403         284.305         101.961 
       0.707174         273.693         97.0011 
       0.722871         269.566         92.3911 
        0.73838         266.653         88.1299 
       0.754018          255.12         84.1054 
       0.769845         254.366         80.2884 
        0.78569         248.236         76.7051 
       0.801365         241.392         73.3762 
       0.817031          237.16         70.2479 
       0.832809         233.166         67.2829 
       0.848511         227.206         64.5033 
       0.864097          221.89         61.9005 
       0.879701         220.874         59.4396 
       0.895507         215.447          57.084 
       0.911279         209.335         54.8616 
        0.92691         206.955         52.7764 
       0.942635         205.259         50.7886 
       0.958396          200.23         48.8995 
       0.974128         196.836         47.1102 
       0.989692           190.5         45.4286 
        1.00528         189.858         43.8269 
        1.02113         186.412         42.2776 
        1.03692         182.659         40.8093 
        1.05264         179.909         39.4178 
        1.06832         179.109         38.0935 
        1.08405         174.173         36.8268 
        1.09979         173.123         35.6172 
        1.11537         169.638         34.4742 
        1.13105         167.037         33.3746 
        1.14679         165.095          32.319 
        1.16256         162.493         31.3072 
        1.17828         160.675         30.3421 
        1.19395          156.55         29.4211 
         1.2097         155.743         28.5339 
        1.22537         154.209         27.6876 
          1.241         150.791         26.8783 
        1.25666         148.494         26.0995 
        1.27241         145.058         25.3479 
        1.28819         144.035         24.6248 
        1.30392         141.891         23.9322 
        1.31957         138.874         23.2693 
        1.33529         137.477         22.6291 
        1.35108         135.713         22.0106 
        1.36674         133.371         21.4198 
         1.3824          132.86         20.8512 
        1.39811         129.559         20.3014 
        1.41389         128.215         19.7694 
        1.42964         125.984         19.2574 
        1.44531         124.844         18.7661 
        1.46101         122.268         18.2909 
        1.47667         122.137         17.8337 
        1.49229         120.341         17.3933 
        1.50793         118.072         16.9674 
        1.52367         116.566          16.553 
        1.53953         114.936         16.1497 
        1.55526         114.061         15.7631 
        1.57092         112.645         15.3908 
        1.58662         110.833         15.0296 
        1.60235         109.137         14.6794 
        1.61809         108.419         14.3402 
        1.63369         106.373         14.0147 
        1.64941         106.095         13.6971 
        1.66519         104.175         13.3881 
        1.68085         102.502         13.0909 
        1.69652         101.341         12.8027 
        1.71228         100.416         12.5215 
        1.72806         99.1773         12.2485 
        1.74368         97.4494         11.9865 
        1.75933         96.8084         11.7316 
        1.77505         95.2975         11.4829 
        1.79081         94.0174          11.241 
         1.8065         92.7667         11.0072 
        1.82218         91.6789         10.7802 
        1.83797         91.3178         10.5581 
        1.85367         89.2664         10.3434 
        1.86928         88.9198          10.136 
        1.88497         87.6728         9.93323 
        1.90073         86.8835         9.73523 
        1.91647         85.2636         9.54282 
        1.93218         84.2592         9.35602 
        1.94787         83.2562          9.1745 
        1.96363         82.3791         8.99709 
        1.97935         81.6945         8.82474 
        1.99499         80.8004         8.65789 
        2.01064         79.1848         8.49511 
         2.0264          78.447         8.33551 
        2.04216         77.2933         8.18008 
        2.05781         76.6904         8.02961 
        2.07353          75.732         7.88239 
        2.08928         74.7261         7.73855 
        2.10499         73.7667         7.59868 
        2.12065         73.3798          7.4627 
        2.13633         72.5235         7.32992 
        2.15211         71.3052         7.19953 
        2.16785         70.1834         7.07268 
        2.18349         69.5236         6.94968 
        2.19916         68.7852         6.82935 
        2.21489          67.803         6.71148 
        2.23063         67.0386         6.59631 
         2.2463         66.5357         6.48436 
        2.26194         65.7275         6.37529 
        2.27765         64.9011         6.26818 
        2.29341          64.142         6.16325 
        2.30914         63.3897         6.06094 
        2.32486         62.1951         5.96101 
        2.34061         61.9044         5.86317 
        2.35635          61.157         5.76762 
        2.37203          60.366         5.67452 
        2.38768         59.8128         5.58368 
        2.40339          59.104          5.4945 
        2.41914           58.25         5.40706 
        2.43483         57.8621         5.32183 
         2.4505         57.1681         5.23859 
        2.46622         56.6641         5.15684 
        2.48195         55.8558         5.07683 
        2.49759         55.3147         4.99894 
        2.51328         54.8071         4.92249 
        2.52906          54.065         4.84716 
        2.54479         53.4522         4.77368 
        2.56049         52.6779         4.70187 
        2.57618         52.1808          4.6316 
        2.59189         51.8177         4.56266 
        2.60758         51.0087         4.49523 
        2.62325         50.6044         4.42925 
        2.63898         50.0437         4.36436 
        2.65468         49.5219         4.30091 
        2.67044           48.98         4.23845 
        2.68618         48.5851         4.17738 
        2.70184         47.7427         4.11775 
        2.71755         47.3163         4.05914 
        2.73329         46.9235         4.00158 
        2.74897         46.5777         3.94532 
        2.76462         45.9425         3.89027 
        2.78034         45.4147         3.83605 
        2.79607         44.8123          3.7828 
        2.81179          44.456         3.73062 
        2.82749         44.0194         3.67949 
        2.84321         43.6589         3.62926 
        2.85893         43.0437         3.57998 
        2.87462         42.3708          3.5317 
        2.89033         42.1361         3.48426 
        2.90605          41.582         3.43766 
        2.92176         41.2736         3.39193 
        2.93747         40.8595         3.34706 
        2.95318         40.5194         3.30299 
        2.96891         39.9778          3.2597 
        2.98456         39.6626         3.21737 
        3.00023         39.1693         3.17573 
        3.01596         38.8679          3.1347 
        3.03164         38.3903         3.09451 
        3.04738          37.934         3.05491 
         3.0631         37.7933         3.01602 
        3.07883         37.3247          2.9778 
        3.09456         36.8297         2.94025 
        3.11026         36.4041          2.9034 
        3.12596         36.0686         2.86719 
        3.14163         35.7275         2.83168 
        3.15734         35.4592         2.79669 
        3.17308         35.1554         2.76221 
        3.18879         34.6663          2.7284 
        3.20447         34.2236         2.69521 
         3.2202         33.9839         2.66247 
         3.2359         33.7424         2.63033 
        3.25157         33.3392         2.59879 
        3.26729         33.0486         2.56768 
        3.28304          32.773         2.53701 
        3.29877         32.2519         2.50689 
        3.31446         32.0743         2.47732 
        3.33014           31.62         2.44826 
        3.34585         31.3745         2.41961 
        3.36158         31.0421         2.39138 
        3.37727         30.7893         2.36369 
        3.39294         30.5258         2.33647 
        3.40867         30.2348         2.30957 
        3.42439         29.9666         2.28312 
        3.44008         29.6623         2.25712 
        3.45578         29.3757         2.23152 
        3.47153         29.1198         2.20625 
        3.48724         28.7955         2.18142 
        3.50292         28.5952         2.15703 
        3.51859         28.2257         2.13303 
        3.53431         27.9548         2.10931 
        3.55007         27.6491          2.0859 
        3.56577          27.361         2.06294 
        3.58146          27.167         2.04033 
        3.59719         26.9494           2.018 
        3.61292         26.7447         1.99602 
        3.62859         26.4328         1.97445 
        3.64429         26.1158         1.95316 
        3.66003           25.97         1.93211 
        3.67578         25.6895         1.91139 
        3.69146         25.5771         1.89104 
        3.70712         25.2416         1.87103 
        3.72284         25.0838         1.85123 
        3.73853         24.8371         1.83176 
        3.75422         24.5556         1.81255 
        3.76993         24.3144         1.79361 
        3.78564         24.1149         1.77494 
        3.80137         23.8499         1.75651 
        3.81707         23.6736         1.73838 
        3.83279         23.4518         1.72049 
        3.84853         23.2931         1.70282 
        3.86424         22.9691         1.68544 
        3.87992         22.7797         1.66832 
        3.89561          22.678         1.65145 
        3.91134         22.3887         1.63477 
        3.92704         22.2104         1.61834 
        3.94273         21.9811         1.60215 
        3.95845         21.8578         1.58615 
        3.97418         21.6398         1.57037 
        3.98988         21.4054         1.55482 
        4.00554         21.2279         1.53953 
        4.02125         21.0292          1.5244 
        4.03698         20.8796         1.50945 
        4.05268         20.6868         1.49473 
        4.06839         20.5326          1.4802 
         4.0841         20.3674         1.46586 
        4.09983         20.1311          1.4517 
        4.11555         19.9403         1.43773 
        4.13124         19.8608         1.42398 
        4.14693          19.649         1.41039 
        4.16266         19.4754         1.39696 
        4.17839         19.3256         1.38371 
        4.19408         19.1025         1.37066 
        4.20977         19.0031         1.35777 
        4.22551         18.7919         1.34501 
        4.24123         18.6427         1.33244 
        4.25691          18.465         1.32005 
        4.27259         18.3412         1.30783 
        4.28831         18.1746         1.29573 
        4.30404         18.0138         1.28377 
        4.31974         17.8987         1.27199 
        4.33543         17.7682         1.26037 
        4.35116         17.5652         1.24886 
        4.36688         17.4321          1.2375 
        4.38255         17.2414         1.22632 
        4.39825         17.1282         1.21526 
        4.41398         16.9746         1.20431 
         4.4297         16.8862         1.19351 
        4.44541         16.6784         1.18284 
        4.46111          16.506         1.17231 
        4.47683         16.4119          1.1619 
        4.49251         16.3338         1.15164 
        4.50819          16.175         1.14151 
         4.5239         16.0252         1.13148 
        4.53962          15.931         1.12156 
        4.55535         15.7487         1.11175 
        4.57106         15.6527         1.10208 
        4.58678         15.4921         1.09252 
         4.6025          15.356         1.08307 
        4.61821         15.2654         1.07373 
        4.63391         15.1169         1.06452 
         4.6496         14.9688         1.05541 
        4.66532         14.8696          1.0464 
        4.68103         14.7835          1.0375 
        4.69673         14.6451         1.02871 
        4.71241         14.5471         1.02003 
        4.72811         14.4079         1.01144 
        4.74384         14.2854         1.00293 
        4.75955         14.1984         0.99454 
        4.77525         14.0581        0.986246 
        4.79096         13.9159        0.978036 
        4.80669         13.8582        0.969916 
         4.8224         13.7183        0.961898 
        4.83809         13.6222        0.953978 
        4.85379         13.5256        0.946143 
         4.8695         13.3944        0.938389 
        4.88521         13.2834        0.930725 
        4.90093         13.1981        0.923146 
        4.91663         13.1196        0.915658 
        4.93234         13.0229        0.908245 
        4.94807         12.9187        0.900909 
        4.96377         12.8242        0.893668 
        4.97943         12.7236        0.886521 
        4.99514         12.6186        0.879435 
        5.01086          12.518         0.87242 
        5.02654         12.4225          0.8655 
        5.04227         12.3125        0.858634 
          5.058         12.2152        0.851839 
        5.07371         12.1348        0.845132 
        5.08942         12.0228        0.838495 
        5.10513          11.966        0.831929 
        5.12084         11.8393         0.82543 
        5.13656         11.7818        0.819002 
        5.15225         11.6954        0.812653 
        5.16796         11.5993        0.806361 
        5.18369         11.4887         0.80013 
         5.1994         11.4357        0.793976 
        5.21509          11.331        0.787892 
        5.23079         11.2464        0.781865 
        5.24649         11.1613        0.775905 
        5.26217         11.0726        0.770012 
        5.27788         10.9949        0.764172 
        5.29359         10.9166        0.758391 
        5.30933           10.82        0.752661 
        5.32504         10.7563           0.747 
        5.34073         10.6855        0.741404 
        5.35646         10.6213        0.735854 
        5.37218         10.5014        0.730359 
        5.38789         10.4406        0.724929 
        5.40357         10.3795        0.719561 
        5.41929         10.3276        0.714235 
        5.43502         10.2356        0.708963 
         5.4507         10.1346        0.703756 
        5.46639         10.0712          0.6986 
        5.48212         10.0034        0.693485 
        5.49786         9.93616        0.688414 
        5.51353           9.856        0.683419 
        5.52921         9.78278        0.678469 
        5.54495         9.69916        0.673553 
        5.56066         9.65655        0.668691 
        5.57637         9.57672        0.663878 
        5.59207         9.52451        0.659116 
        5.60778         9.43874        0.654399 
        5.62346          9.3719        0.649735 
        5.63916         9.31712        0.645112 
        5.65487         9.24747        0.640531 
         5.6706         9.16035         0.63599 
        5.68633         9.09938        0.631491 
        5.70203         9.04494        0.627045 
        5.71773         8.98072        0.622642 
        5.73344         8.93671        0.618279 
        5.74916         8.86565        0.613954 
        5.76486         8.80181        0.609676 
        5.78054         8.74511        0.605445 
        5.79626         8.64766        0.601243 
          5.812         8.60207        0.597076 
         5.8277         8.55526        0.592961 
        5.84339         8.47979        0.588885 
        5.85911         8.44818        0.584839 
        5.87484         8.36767        0.580832 
        5.89053         8.32249         0.57687 
        5.90623         8.25854        0.572943 
        5.92195          8.2134        0.569047 
        5.93767         8.14008        0.565188 
        5.95336         8.10137        0.561372 
        5.96905         8.05217        0.557592 
        5.98476         7.99365        0.553842 
        6.00048         7.92351        0.550125 
        6.01617         7.87566        0.546447 
        6.03185         7.82846        0.542807 
        6.04756          7.7816        0.539191 
        6.06331         7.72721        0.535601 
        6.07903         7.68546        0.532051 
        6.09473          7.6161        0.528536 
        6.11044         7.57994         0.52505 
        6.12616         7.52329        0.521596 
        6.14186         7.47906        0.518176 
        6.15755         7.42447        0.514787 
        6.17326         7.38141        0.511426 
        6.18898         7.33267        0.508093 
        6.20467         7.26816        0.504796 
        6.22036         7.22958        0.501529 
         6.2361         7.17834        0.498281 
         6.2518         7.14072        0.495068 
        6.26748         7.08176         0.49189 
        6.28319         7.04479        0.488731 
        6.29893         6.99834        0.485597 
        6.31463         6.94766        0.482495 
        6.33033         6.91204        0.479422 
        6.34604         6.86053        0.476374 
        6.36177         6.81464        0.473349 
        6.37747         6.76396        0.470355 
