# k  (h/Mpc)    Pcb(k)  (Mpc/h)^3    Pcb_linear(k) (Mpc/h)^3   ShotnoiseSubtracted = true
      0.0200456         435.032          440.63 
      0.0350414         323.277         320.323 
      0.0492313         233.664         232.741 
      0.0637834         192.246         193.475 
      0.0800726         152.252         153.557 
       0.096163         112.741         111.419 
       0.111083         90.2352         88.8704 
       0.126058         78.4227         78.7573 
       0.142273          66.267         66.7247 
       0.158546         52.9275         52.6985 
        0.17375         44.9375         44.3985 
       0.188953         40.3475         40.2018 
       0.204907         35.0607         35.5704 
       0.220756         30.2116         30.0947 
        0.23588          26.305         26.1798 
         0.2514         23.8776         23.7841 
       0.267535         21.6761         21.5205 
       0.283568           19.11         18.9782 
       0.299022         17.0907         16.9086 
       0.314451         15.8227         15.4533 
       0.330372         14.3654         14.1767 
       0.346141         13.0524         12.8675 
       0.361624         11.8471         11.6948 
       0.377134         10.8639         10.7611 
       0.392932          10.293         9.95699 
       0.408854         9.31425         9.17842 
       0.424564         8.75179         8.45988 
       0.440253         8.02773         7.84329 
       0.455999         7.39345         7.30714 
       0.471626         6.90643         6.81442 
        0.48727         6.56518         6.35352 
       0.502856         6.14822         5.93946 
       0.518488         5.66973         5.57001 
       0.534347         5.29564         5.22656 
       0.550082         5.05546         4.90987 
       0.565732         4.81335         4.62015 
       0.581496          4.5049          4.3548 
       0.597222         4.24533         4.11145 
       0.612804         4.00215         3.88768 
       0.628434         3.81212         3.67911 
       0.644267         3.62671         3.48411 
       0.660051         3.43784         3.30439 
       0.675724         3.24014         3.13844 
       0.691403         3.09598         2.98374 
       0.707174         2.94353          2.8386 
       0.722871         2.86305          2.7037 
        0.73838         2.67194           2.579 
       0.754018         2.55167         2.46123 
       0.769845          2.4147         2.34953 
        0.78569         2.34251         2.24467 
       0.801365         2.24303         2.14725 
       0.817031         2.15684         2.05571 
       0.832809         2.04524         1.96894 
       0.848511         1.97449          1.8876 
       0.864097         1.90357         1.81143 
       0.879701         1.84165         1.73942 
       0.895507          1.7472         1.67049 
       0.911279         1.69296         1.60545 
        0.92691         1.64244         1.54443 
       0.942635         1.55738         1.48626 
       0.958396         1.50714         1.43098 
       0.974128         1.45704         1.37862 
       0.989692         1.40154         1.32941 
        1.00528         1.34962         1.28253 
        1.02113         1.31544          1.2372 
        1.03692         1.27642         1.19423 
        1.05264         1.21814         1.15351 
        1.06832         1.18391         1.11475 
        1.08405         1.13797         1.07769 
        1.09979         1.10938         1.04229 
        1.11537         1.06849         1.00884 
        1.13105         1.02744        0.976663 
        1.14679         1.00402        0.945772 
        1.16256        0.972901        0.916161 
        1.17828        0.948964         0.88792 
        1.19395          0.9172         0.86097 
         1.2097        0.887585        0.835004 
        1.22537        0.857761        0.810239 
          1.241        0.836425        0.786557 
        1.25666        0.818776        0.763765 
        1.27241        0.791806        0.741773 
        1.28819        0.765265        0.720612 
        1.30392        0.746959        0.700342 
        1.31957        0.726929        0.680943 
        1.33529        0.703696        0.662211 
        1.35108        0.685713        0.644111 
        1.36674        0.665968         0.62682 
         1.3824        0.654556        0.610181 
        1.39811        0.633118        0.594092 
        1.41389         0.61852        0.578524 
        1.42964        0.602116        0.563541 
        1.44531        0.586372        0.549164 
        1.46101         0.56872        0.535259 
        1.47667        0.557528        0.521878 
        1.49229        0.540141        0.508992 
        1.50793        0.529755        0.496527 
        1.52367        0.513911        0.484401 
        1.53953        0.501538        0.472599 
        1.55526        0.491543        0.461286 
        1.57092        0.484337         0.45039 
        1.58662        0.472471        0.439822 
        1.60235        0.459641        0.429573 
        1.61809        0.447415        0.419646 
        1.63369        0.435477        0.410122 
        1.64941        0.428077        0.400826 
        1.66519        0.419792        0.391785 
        1.68085        0.407652        0.383088 
        1.69652        0.399401        0.374653 
        1.71228        0.389699        0.366424 
        1.72806        0.382493        0.358437 
        1.74368        0.373917        0.350768 
        1.75933        0.366699        0.343309 
        1.77505        0.359832        0.336032 
        1.79081        0.348621        0.328954 
         1.8065        0.344731         0.32211 
        1.82218        0.334818        0.315467 
        1.83797         0.32613        0.308967 
        1.85367        0.322483        0.302686 
        1.86928        0.314804        0.296617 
        1.88497        0.307281        0.290682 
        1.90073        0.302487        0.284888 
        1.91647        0.296458        0.279258 
        1.93218        0.291452        0.273791 
        1.94787        0.284336        0.268479 
        1.96363        0.279161        0.263288 
        1.97935        0.273263        0.258244 
        1.99499        0.267981        0.253361 
        2.01064        0.263349        0.248598 
         2.0264        0.257657        0.243927 
        2.04216         0.25197        0.239379 
        2.05781        0.248186        0.234976 
        2.07353        0.243666        0.230667 
        2.08928        0.239744        0.226458 
        2.10499        0.233996        0.222365 
        2.12065         0.23023        0.218386 
        2.13633        0.226317          0.2145 
        2.15211        0.222126        0.210684 
        2.16785        0.217904        0.206972 
        2.18349        0.214451        0.203373 
        2.19916        0.209577        0.199852 
        2.21489        0.205672        0.196402 
        2.23063        0.202267        0.193032 
         2.2463        0.199245        0.189756 
        2.26194        0.196022        0.186564 
        2.27765        0.191955         0.18343 
        2.29341        0.188751        0.180359 
        2.30914        0.184879        0.177365 
        2.32486        0.181927        0.174441 
        2.34061        0.178816        0.171578 
        2.35635        0.175959        0.168781 
        2.37203        0.174376        0.166057 
        2.38768         0.17041        0.163399 
        2.40339        0.167608        0.160789 
        2.41914        0.164921         0.15823 
        2.43483         0.16213        0.155736 
         2.4505        0.159203          0.1533 
        2.46622        0.156901        0.150908 
        2.48195        0.154124        0.148566 
        2.49759        0.152605        0.146287 
        2.51328        0.148489         0.14405 
        2.52906        0.146765        0.141845 
        2.54479        0.144518        0.139695 
        2.56049        0.141646        0.137594 
        2.57618        0.140557        0.135537 
        2.59189        0.137518         0.13352 
        2.60758        0.136134        0.131547 
        2.62325         0.13365        0.129616 
        2.63898        0.132165        0.127717 
        2.65468        0.129196         0.12586 
        2.67044        0.127575        0.124032 
        2.68618        0.125512        0.122245 
        2.70184         0.12403          0.1205 
        2.71755        0.121676        0.118785 
        2.73329        0.120388        0.117101 
        2.74897        0.118266        0.115454 
        2.76462        0.116537        0.113844 
        2.78034        0.114862        0.112257 
        2.79607        0.113485        0.110698 
        2.81179        0.110996        0.109172 
        2.82749        0.110026        0.107675 
        2.84321        0.108459        0.106205 
        2.85893        0.106469        0.104763 
        2.87462        0.105526         0.10335 
        2.89033        0.103478        0.101962 
        2.90605        0.102483        0.100598 
        2.92176        0.101223       0.0992603 
        2.93747       0.0994569       0.0979472 
        2.95318       0.0984069       0.0966576 
        2.96891       0.0970358       0.0953906 
        2.98456       0.0958975       0.0941519 
        3.00023       0.0945264       0.0929335 
        3.01596       0.0928251       0.0917328 
        3.03164       0.0915628       0.0905567 
        3.04738       0.0906356       0.0893978 
         3.0631       0.0892617       0.0882596 
        3.07883       0.0881266       0.0871412 
        3.09456       0.0870777       0.0860423 
        3.11026       0.0856079       0.0849641 
        3.12596       0.0848555       0.0839045 
        3.14163       0.0836512       0.0828654 
        3.15734        0.082872       0.0818414 
        3.17308       0.0815671       0.0808323 
        3.18879       0.0805834        0.079843 
        3.20447       0.0793557       0.0788716 
         3.2202       0.0786242       0.0779135 
         3.2359       0.0776556       0.0769729 
        3.25157       0.0767004       0.0760501 
        3.26729       0.0756887       0.0751396 
        3.28304       0.0750544       0.0742423 
        3.29877       0.0737867       0.0733607 
        3.31446       0.0730073       0.0724955 
        3.33014       0.0723847       0.0716449 
        3.34585       0.0711535       0.0708067 
        3.36158       0.0704139       0.0699806 
        3.37727       0.0696519       0.0691703 
        3.39294        0.069018       0.0683736 
        3.40867       0.0681316       0.0675865 
        3.42439       0.0673952       0.0668123 
        3.44008       0.0667773       0.0660517 
        3.45578       0.0661233       0.0653023 
        3.47153       0.0654155        0.064563 
        3.48724        0.064611       0.0638364 
        3.50292       0.0640401       0.0631226 
        3.51859       0.0632215       0.0624201 
        3.53431        0.062593       0.0617261 
        3.55007       0.0619664        0.061041 
        3.56577       0.0613922        0.060369 
        3.58146        0.060708       0.0597074 
        3.59719       0.0599797       0.0590541 
        3.61292       0.0593523       0.0584109 
        3.62859       0.0588474       0.0577796 
        3.64429       0.0581895       0.0571565 
        3.66003       0.0579481       0.0565406 
        3.67578       0.0572943       0.0559341 
        3.69146       0.0567411       0.0553387 
        3.70712       0.0561773       0.0547531 
        3.72284        0.055511       0.0541738 
        3.73853       0.0552906       0.0536038 
        3.75422       0.0545427       0.0530419 
        3.76993       0.0541009       0.0524875 
        3.78564       0.0537469       0.0519413 
        3.80137        0.053334       0.0514019 
        3.81707       0.0524909       0.0508714 
        3.83279       0.0521775       0.0503478 
        3.84853       0.0517222       0.0498308 
        3.86424       0.0513661       0.0493221 
        3.87992       0.0509359       0.0488212 
        3.89561       0.0502834       0.0483273 
        3.91134       0.0499149       0.0478392 
        3.92704       0.0494177       0.0473584 
        3.94273       0.0489519       0.0468846 
        3.95845       0.0485485       0.0464165 
        3.97418       0.0481336       0.0459547 
        3.98988       0.0474565       0.0454997 
        4.00554       0.0471645       0.0450522 
        4.02125       0.0467172       0.0446094 
        4.03698       0.0459209       0.0441719 
        4.05268       0.0455825       0.0437412 
        4.06839       0.0448444       0.0433159 
         4.0841        0.044058       0.0428965 
        4.09983       0.0434729        0.042482 
        4.11555       0.0428904       0.0420731 
        4.13124       0.0422717       0.0416707 
        4.14693       0.0417821       0.0412733 
        4.16266       0.0410645       0.0408801 
        4.17839       0.0406479       0.0404923 
        4.19408       0.0401197       0.0401103 
        4.20977       0.0396611       0.0397332 
        4.22551       0.0391804         0.03936 
        4.24123       0.0386649       0.0389919 
        4.25691       0.0382972       0.0386296 
        4.27259        0.037878       0.0382717 
        4.28831       0.0375921       0.0379177 
        4.30404       0.0371193       0.0375678 
        4.31974       0.0367393       0.0372231 
        4.33543       0.0363938       0.0368829 
        4.35116       0.0361313       0.0365461 
        4.36688       0.0357431       0.0362137 
        4.38255       0.0354238       0.0358866 
        4.39825       0.0352651       0.0355629 
        4.41398       0.0348924       0.0352425 
         4.4297       0.0347439       0.0349264 
        4.44541       0.0345473       0.0346142 
        4.46111       0.0342071       0.0343061 
        4.47683       0.0340849       0.0340015 
        4.49251       0.0339583       0.0337012 
        4.50819       0.0337012       0.0334046 
         4.5239       0.0335644       0.0331112 
        4.53962       0.0335292       0.0328209 
        4.55535       0.0334396       0.0325339 
        4.57106       0.0332708       0.0322508 
        4.58678       0.0332264        0.031971 
         4.6025       0.0330108       0.0316945 
        4.61821       0.0330989       0.0314213 
        4.63391       0.0329999       0.0311516 
         4.6496       0.0328517       0.0308852 
        4.66532       0.0329442       0.0306215 
        4.68103       0.0330807       0.0303611 
        4.69673       0.0329694       0.0301038 
        4.71241       0.0330232       0.0298499 
        4.72811       0.0329678       0.0295984 
        4.74384       0.0330546       0.0293495 
        4.75955       0.0331624       0.0291039 
        4.77525       0.0332734       0.0288611 
        4.79096       0.0333807       0.0286209 
        4.80669       0.0334887       0.0283833 
         4.8224       0.0335821       0.0281486 
        4.83809       0.0336664       0.0279169 
        4.85379       0.0339434       0.0276876 
         4.8695       0.0341084       0.0274607 
        4.88521       0.0343132       0.0272364 
        4.90093       0.0345379       0.0270146 
        4.91663       0.0348536       0.0267955 
        4.93234       0.0348275       0.0265785 
        4.94807       0.0352626       0.0263639 
        4.96377       0.0354383        0.026152 
        4.97943       0.0358446       0.0259428 
        4.99514       0.0360367       0.0257355 
        5.01086       0.0364273       0.0255302 
        5.02654       0.0367104       0.0253277 
        5.04227       0.0370705       0.0251267 
          5.058       0.0374445       0.0249279 
        5.07371       0.0377513       0.0247316 
        5.08942       0.0382693       0.0245374 
        5.10513        0.038566       0.0243453 
        5.12084       0.0391522       0.0241551 
        5.13656       0.0396424        0.023967 
        5.15225       0.0400317       0.0237812 
        5.16796       0.0406154        0.023597 
        5.18369       0.0411221       0.0234147 
         5.1994       0.0415591       0.0232346 
        5.21509       0.0423323       0.0230566 
        5.23079       0.0426516       0.0228802 
        5.24649         0.04342       0.0227058 
        5.26217       0.0438998       0.0225334 
        5.27788       0.0448448       0.0223624 
        5.29359       0.0454292       0.0221933 
        5.30933        0.046128       0.0220256 
        5.32504        0.046804       0.0218599 
        5.34073       0.0473464       0.0216962 
        5.35646       0.0481372       0.0215338 
        5.37218       0.0491094        0.021373 
        5.38789       0.0498369       0.0212141 
        5.40357       0.0507016        0.021057 
        5.41929       0.0517631       0.0209011 
        5.43502       0.0526498       0.0207468 
         5.4507       0.0534153       0.0205944 
        5.46639       0.0541217       0.0204436 
        5.48212       0.0552079       0.0202939 
        5.49786       0.0566297       0.0201455 
        5.51353        0.057679       0.0199993 
        5.52921       0.0583561       0.0198545 
        5.54495       0.0594936       0.0197106 
        5.56066       0.0608002       0.0195683 
        5.57637       0.0621151       0.0194275 
        5.59207       0.0629387       0.0192881 
        5.60778        0.064093       0.0191501 
        5.62346       0.0653408       0.0190136 
        5.63916       0.0670447       0.0188783 
        5.65487       0.0683415       0.0187443 
         5.6706       0.0691965       0.0186114 
        5.68633       0.0706903       0.0184797 
        5.70203       0.0721908       0.0183496 
        5.71773       0.0740942       0.0182208 
        5.73344       0.0759325       0.0180931 
        5.74916       0.0774553       0.0179665 
        5.76486       0.0791053       0.0178413 
        5.78054        0.081065       0.0177175 
        5.79626       0.0821765       0.0175945 
          5.812       0.0844864       0.0174726 
         5.8277       0.0857768       0.0173522 
        5.84339       0.0878558       0.0172329 
        5.85911       0.0894995       0.0171145 
        5.87484       0.0913274       0.0169972 
        5.89053       0.0939815       0.0168813 
        5.90623       0.0960105       0.0167664 
        5.92195       0.0979865       0.0166524 
        5.93767        0.100026       0.0165395 
        5.95336        0.101993       0.0164278 
        5.96905        0.105215       0.0163172 
        5.98476        0.106775       0.0162074 
        6.00048          0.1093       0.0160986 
        6.01617        0.112301        0.015991 
        6.03185        0.114234       0.0158845 
        6.04756        0.116565       0.0157787 
        6.06331        0.120023       0.0156736 
        6.07903         0.12194       0.0155697 
        6.09473        0.124468       0.0154669 
        6.11044        0.128229       0.0153649 
        6.12616         0.13115       0.0152638 
        6.14186        0.133531       0.0151637 
        6.15755        0.136898       0.0150645 
        6.17326        0.140135       0.0149662 
        6.18898        0.144171       0.0148687 
        6.20467        0.146268       0.0147722 
        6.22036        0.150695       0.0146766 
         6.2361         0.15243       0.0145815 
         6.2518        0.158051       0.0144875 
        6.26748         0.16024       0.0143945 
        6.28319        0.163932        0.014302 
        6.29893        0.169043       0.0142103 
        6.31463        0.172402       0.0141196 
        6.33033        0.175133       0.0140296 
        6.34604        0.180194       0.0139404 
        6.36177         0.18411       0.0138519 
        6.37747        0.187888       0.0137643 
