# k  (h/Mpc)    Pcb(k)  (Mpc/h)^3    Pcb_linear(k) (Mpc/h)^3   ShotnoiseSubtracted = true
      0.0200456         11031.9         11242.9 
      0.0350414          7931.3         8173.22 
      0.0492313         5887.38          5938.5 
      0.0637834         5032.58         4936.63 
      0.0800726          3982.4         3918.08 
       0.096163         2783.91         2842.91 
       0.111083         2214.53         2267.58 
       0.126058         2039.67         2009.53 
       0.142273         1761.71         1702.52 
       0.158546         1472.71         1344.63 
        0.17375         1182.14         1132.85 
       0.188953         1139.82         1025.77 
       0.204907         1070.14         907.598 
       0.220756         909.198         767.883 
        0.23588         800.271         667.991 
         0.2514         699.164         606.863 
       0.267535         680.456         549.107 
       0.283568          616.84         484.239 
       0.299022         574.769         431.432 
       0.314451         539.336         394.299 
       0.330372          497.52         361.725 
       0.346141         451.577         328.321 
       0.361624         434.094         298.399 
       0.377134         403.917         274.574 
       0.392932         382.421         254.058 
       0.408854         366.943         234.192 
       0.424564         348.912         215.858 
       0.440253         336.729         200.126 
       0.455999          316.83         186.446 
       0.471626         295.466         173.874 
        0.48727         286.793         162.113 
       0.502856         277.192         151.548 
       0.518488         273.793         142.122 
       0.534347         257.765         133.358 
       0.550082         242.206         125.278 
       0.565732         238.328         117.886 
       0.581496          226.18         111.115 
       0.597222         220.715         104.906 
       0.612804          212.78         99.1962 
       0.628434         205.492         93.8743 
       0.644267         198.807         88.8989 
       0.660051         196.361         84.3132 
       0.675724         191.959         80.0789 
       0.691403         186.432         76.1318 
       0.707174         178.586         72.4285 
       0.722871         177.029         68.9863 
        0.73838         173.147         65.8046 
       0.754018         167.966         62.7995 
       0.769845         163.122         59.9495 
        0.78569         160.963         57.2739 
       0.801365         156.206         54.7883 
       0.817031         151.071         52.4525 
       0.832809         148.955         50.2386 
       0.848511         145.209         48.1631 
       0.864097         142.714         46.2197 
       0.879701         139.619         44.3822 
       0.895507         136.145         42.6233 
       0.911279         133.505         40.9639 
        0.92691         132.203         39.4069 
       0.942635         128.924         37.9227 
       0.958396          128.64         36.5121 
       0.974128         124.985         35.1761 
       0.989692         121.934         33.9205 
        1.00528         119.632         32.7245 
        1.02113         118.878         31.5677 
        1.03692          114.36         30.4714 
        1.05264         113.725         29.4323 
        1.06832         111.148         28.4436 
        1.08405         109.684         27.4978 
        1.09979         109.131         26.5946 
        1.11537         105.492         25.7411 
        1.13105         105.243         24.9201 
        1.14679         104.087         24.1319 
        1.16256         102.558         23.3763 
        1.17828         99.9625         22.6558 
        1.19395         98.7446         21.9681 
         1.2097         96.6029         21.3056 
        1.22537         96.6024         20.6737 
          1.241         94.3537         20.0694 
        1.25666         92.4954         19.4879 
        1.27241          91.348         18.9267 
        1.28819         89.9384         18.3868 
        1.30392         88.8475         17.8696 
        1.31957         87.5682         17.3746 
        1.33529         85.9945         16.8967 
        1.35108         85.1149         16.4348 
        1.36674         84.1684         15.9936 
         1.3824         82.6122         15.5691 
        1.39811         81.7447         15.1586 
        1.41389         80.5373         14.7613 
        1.42964         79.5498          14.379 
        1.44531          77.861         14.0122 
        1.46101         76.9516         13.6574 
        1.47667         76.7532          13.316 
        1.49229         75.2034         12.9872 
        1.50793         74.7027         12.6692 
        1.52367         73.4969         12.3597 
        1.53953         72.4208         12.0586 
        1.55526         71.7522           11.77 
        1.57092          71.473         11.4919 
        1.58662         69.8955         11.2223 
        1.60235         69.4028         10.9608 
        1.61809         68.4372         10.7075 
        1.63369          67.429         10.4645 
        1.64941         66.8021         10.2273 
        1.66519         65.4743          9.9966 
        1.68085         65.0491         9.77469 
        1.69652         63.9133         9.55946 
        1.71228         63.5958          9.3495 
        1.72806         62.8573          9.1457 
        1.74368         62.0507         8.95003 
        1.75933         61.2903         8.75971 
        1.77505         60.7326         8.57404 
        1.79081         59.8727         8.39343 
         1.8065         59.3452         8.21881 
        1.82218         58.5001         8.04932 
        1.83797         57.9024         7.88345 
        1.85367         57.2448         7.72319 
        1.86928         56.7241         7.56835 
        1.88497         55.9697         7.41692 
        1.90073         55.2172         7.26908 
        1.91647         54.9123          7.1254 
        1.93218         54.1935         6.98592 
        1.94787         53.5879         6.85039 
        1.96363         52.8763         6.71792 
        1.97935         52.4898         6.58923 
        1.99499         51.7069         6.46465 
        2.01064          51.545         6.34311 
         2.0264         50.2827         6.22393 
        2.04216         50.0562         6.10788 
        2.05781         49.4358         5.99553 
        2.07353         48.9121          5.8856 
        2.08928          48.344         5.77819 
        2.10499         47.9649         5.67376 
        2.12065         47.3577         5.57222 
        2.13633         47.1321         5.47309 
        2.15211         46.7203         5.37573 
        2.16785         45.8232         5.28101 
        2.18349         45.5394         5.18917 
        2.19916         45.0903         5.09932 
        2.21489          44.631         5.01131 
        2.23063         43.9732         4.92531 
         2.2463         43.5647         4.84172 
        2.26194         42.8862         4.76029 
        2.27765         42.4666          4.6803 
        2.29341         41.9738         4.60196 
        2.30914         41.5026         4.52556 
        2.32486         40.9511         4.45095 
        2.34061         40.6901          4.3779 
        2.35635         40.2406         4.30655 
        2.37203         39.7576         4.23704 
        2.38768         39.3805         4.16921 
        2.40339         39.1223         4.10262 
        2.41914         38.7439         4.03733 
        2.43483         38.1064         3.97369 
         2.4505          37.839         3.91153 
        2.46622         37.4665         3.85049 
        2.48195         37.1004         3.79075 
        2.49759         36.6629          3.7326 
        2.51328         36.1681         3.67551 
        2.52906         35.9696         3.61926 
        2.54479         35.3807          3.5644 
        2.56049         35.0757         3.51078 
        2.57618         34.7578         3.45831 
        2.59189         34.4255         3.40683 
        2.60758          34.185         3.35649 
        2.62325         33.7129         3.30722 
        2.63898         33.4109         3.25877 
        2.65468         33.0428         3.21139 
        2.67044         32.6893         3.16475 
        2.68618         32.4294         3.11915 
        2.70184         32.0444         3.07463 
        2.71755         31.8807         3.03087 
        2.73329         31.5048         2.98789 
        2.74897         31.1517         2.94588 
        2.76462         30.7475         2.90478 
        2.78034           30.63         2.86429 
        2.79607         30.2785         2.82453 
        2.81179         30.0165         2.78557 
        2.82749          29.725         2.74739 
        2.84321         29.2735         2.70988 
        2.85893          29.032         2.67309 
        2.87462         28.7594         2.63704 
        2.89033         28.4944         2.60162 
        2.90605         28.3124         2.56682 
        2.92176         28.1304         2.53268 
        2.93747         27.7356         2.49917 
        2.95318         27.3595         2.46627 
        2.96891         27.1916         2.43394 
        2.98456         26.8346         2.40234 
        3.00023         26.5984         2.37125 
        3.01596         26.3293         2.34061 
        3.03164         26.1599          2.3106 
        3.04738         25.9273         2.28103 
         3.0631         25.6654         2.25199 
        3.07883         25.4001         2.22345 
        3.09456         25.0956         2.19542 
        3.11026         24.8848          2.1679 
        3.12596         24.7065         2.14087 
        3.14163         24.4509         2.11435 
        3.15734         24.2158         2.08823 
        3.17308         23.9627         2.06248 
        3.18879         23.7956         2.03724 
        3.20447         23.5191         2.01245 
         3.2202          23.305           1.988 
         3.2359         23.0353           1.964 
        3.25157         23.0127         1.94046 
        3.26729         22.7024         1.91723 
        3.28304         22.4841         1.89433 
        3.29877         22.1975         1.87184 
        3.31446          22.003         1.84976 
        3.33014         21.8047         1.82806 
        3.34585         21.6632         1.80667 
        3.36158         21.4022         1.78559 
        3.37727         21.1969         1.76492 
        3.39294         21.0651         1.74459 
        3.40867         20.8529         1.72451 
        3.42439         20.6683         1.70475 
        3.44008         20.4797         1.68534 
        3.45578         20.2948         1.66622 
        3.47153         20.0467         1.64736 
        3.48724         19.9043         1.62882 
        3.50292         19.7702         1.61061 
        3.51859         19.5475         1.59268 
        3.53431         19.3716         1.57498 
        3.55007         19.1742         1.55749 
        3.56577         18.9823         1.54035 
        3.58146         18.8684         1.52346 
        3.59719         18.6483          1.5068 
        3.61292         18.5057         1.49038 
        3.62859         18.3445         1.47428 
        3.64429         18.1983         1.45838 
        3.66003         18.0576         1.44266 
        3.67578          17.838         1.42719 
        3.69146         17.7505           1.412 
        3.70712         17.5594         1.39705 
        3.72284         17.4793         1.38227 
        3.73853         17.2486         1.36773 
        3.75422         17.0476         1.35339 
        3.76993         16.9534         1.33925 
        3.78564         16.8001         1.32531 
        3.80137         16.6248         1.31155 
        3.81707         16.4741         1.29801 
        3.83279          16.355         1.28465 
        3.84853         16.1849         1.27146 
        3.86424         16.0729         1.25848 
        3.87992          15.929          1.2457 
        3.89561          15.748          1.2331 
        3.91134         15.6722         1.22064 
        3.92704         15.5163         1.20837 
        3.94273         15.3947         1.19629 
        3.95845           15.22         1.18434 
        3.97418         15.1463         1.17256 
        3.98988         14.9699         1.16095 
        4.00554         14.8678         1.14953 
        4.02125         14.7457         1.13823 
        4.03698         14.6665         1.12707 
        4.05268         14.4716         1.11608 
        4.06839         14.3633         1.10523 
         4.0841          14.262         1.09453 
        4.09983          14.105         1.08395 
        4.11555         13.9855         1.07352 
        4.13124         13.8874         1.06325 
        4.14693         13.7703         1.05311 
        4.16266         13.6535         1.04308 
        4.17839         13.5217         1.03318 
        4.19408         13.3982         1.02344 
        4.20977         13.3427         1.01381 
        4.22551         13.1851         1.00429 
        4.24123         13.0998        0.994899 
        4.25691         12.9938        0.985654 
        4.27259         12.8598        0.976524 
        4.28831         12.7331         0.96749 
        4.30404         12.6575        0.958562 
        4.31974          12.541        0.949766 
        4.33543         12.4597        0.941086 
        4.35116         12.3668        0.932493 
        4.36688         12.2243        0.924011 
        4.38255         12.1305        0.915665 
        4.39825         12.0328        0.907405 
        4.41398         11.9921         0.89923 
         4.4297         11.8342        0.891164 
        4.44541         11.7414        0.883199 
        4.46111         11.6532        0.875337 
        4.47683         11.5797        0.867565 
        4.49251         11.4773        0.859903 
        4.50819         11.4038        0.852336 
         4.5239         11.2998        0.844849 
        4.53962         11.2171        0.837442 
        4.55535         11.1124        0.830121 
        4.57106         11.0127        0.822897 
        4.58678         10.9154        0.815758 
         4.6025         10.8448        0.808702 
        4.61821          10.766         0.80173 
        4.63391         10.6707         0.79485 
         4.6496         10.5832        0.788053 
        4.66532         10.4933        0.781325 
        4.68103         10.4289        0.774679 
        4.69673         10.3393        0.768116 
        4.71241         10.2358        0.761635 
        4.72811         10.1624        0.755219 
        4.74384         10.1125        0.748868 
        4.75955         10.0128          0.7426 
        4.77525         9.92956        0.736407 
        4.79096         9.88067        0.730277 
        4.80669         9.79536        0.724214 
         4.8224         9.73056        0.718227 
        4.83809         9.64163        0.712314 
        4.85379         9.56768        0.706463 
         4.8695         9.52617        0.700674 
        4.88521         9.42004        0.694951 
        4.90093         9.34599        0.689292 
        4.91663         9.29031        0.683701 
        4.93234         9.23008        0.678166 
        4.94807         9.13763        0.672688 
        4.96377         9.06463        0.667281 
        4.97943          9.0062        0.661945 
        4.99514         8.94883        0.656654 
        5.01086         8.88345        0.651416 
        5.02654         8.81022        0.646249 
        5.04227         8.75152        0.641122 
          5.058         8.65779        0.636049 
        5.07371         8.61842         0.63104 
        5.08942         8.55936        0.626085 
        5.10513         8.48277        0.621182 
        5.12084         8.41659         0.61633 
        5.13656         8.36389         0.61153 
        5.15225         8.30288        0.606789 
        5.16796         8.24777        0.602091 
        5.18369          8.1918        0.597439 
         5.1994          8.0931        0.592844 
        5.21509         8.06571        0.588301 
        5.23079         8.00056        0.583801 
        5.24649         7.94548        0.579351 
        5.26217         7.88443         0.57495 
        5.27788         7.82803        0.570589 
        5.29359         7.76622        0.566273 
        5.30933         7.70431        0.561995 
        5.32504         7.65368        0.557768 
        5.34073         7.62176        0.553589 
        5.35646         7.53698        0.549445 
        5.37218         7.50236        0.545342 
        5.38789         7.43989        0.541288 
        5.40357         7.39524         0.53728 
        5.41929         7.33868        0.533303 
        5.43502         7.28438        0.529366 
         5.4507          7.2406        0.525478 
        5.46639         7.20856        0.521629 
        5.48212         7.14707        0.517809 
        5.49786         7.10799        0.514023 
        5.51353         7.03529        0.510293 
        5.52921         6.98965        0.506597 
        5.54495         6.94984        0.502926 
        5.56066         6.89823        0.499296 
        5.57637         6.83223        0.495702 
        5.59207         6.80375        0.492147 
        5.60778         6.73541        0.488625 
        5.62346          6.6998        0.485142 
        5.63916         6.65354         0.48169 
        5.65487         6.61762         0.47827 
         5.6706         6.55721        0.474879 
        5.68633         6.51398         0.47152 
        5.70203         6.48211          0.4682 
        5.71773         6.43558        0.464912 
        5.73344          6.3877        0.461655 
        5.74916         6.35031        0.458425 
        5.76486         6.31209        0.455231 
        5.78054         6.26605        0.452072 
        5.79626          6.2177        0.448934 
          5.812          6.1829        0.445823 
         5.8277         6.14084         0.44275 
        5.84339         6.08609        0.439707 
        5.85911         6.06164        0.436686 
        5.87484         6.01339        0.433694 
        5.89053         5.97395        0.430736 
        5.90623         5.93492        0.427804 
        5.92195         5.87676        0.424894 
        5.93767          5.8598        0.422013 
        5.95336         5.81175        0.419163 
        5.96905         5.78769        0.416341 
        5.98476         5.73927        0.413541 
        6.00048         5.71411        0.410765 
        6.01617         5.66858        0.408019 
        6.03185         5.64338        0.405301 
        6.04756         5.59378        0.402602 
        6.06331          5.5585        0.399921 
        6.07903         5.53009         0.39727 
        6.09473         5.48244        0.394646 
        6.11044         5.44833        0.392043 
        6.12616         5.42168        0.389464 
        6.14186         5.38202         0.38691 
        6.15755         5.34452         0.38438 
        6.17326         5.30828         0.38187 
        6.18898         5.27043        0.379382 
        6.20467         5.24708         0.37692 
        6.22036         5.21639         0.37448 
         6.2361         5.17897        0.372055 
         6.2518         5.14707        0.369656 
        6.26748         5.12064        0.367283 
        6.28319         5.07629        0.364924 
        6.29893          5.0493        0.362584 
        6.31463         5.02611        0.360268 
        6.33033         4.98174        0.357974 
        6.34604           4.967        0.355697 
        6.36177         4.92912        0.353439 
        6.37747         4.89404        0.351204 
