# k  (h/Mpc)    Pcb(k)  (Mpc/h)^3    Pcb_linear(k) (Mpc/h)^3   ShotnoiseSubtracted = true
      0.0200456         22208.2         22740.9 
      0.0350414         15759.1         16531.8 
      0.0492313         11748.4         12011.7 
      0.0637834         10178.2         9985.24 
      0.0800726         8029.35         7925.04 
       0.096163         5564.07          5750.3 
       0.111083         4476.85         4586.59 
       0.126058         4121.14         4064.65 
       0.142273         3569.38         3443.66 
       0.158546         3131.96         2719.77 
        0.17375         2506.77          2291.4 
       0.188953         2452.57         2074.81 
       0.204907         2304.43         1835.79 
       0.220756          1999.2         1553.19 
        0.23588         1788.86         1351.14 
         0.2514         1558.24         1227.49 
       0.267535         1559.56         1110.67 
       0.283568         1414.24         979.463 
       0.299022          1338.9         872.651 
       0.314451         1276.31         797.543 
       0.330372         1170.64         731.657 
       0.346141          1123.7          664.09 
       0.361624         1079.97         603.567 
       0.377134          1006.2         555.377 
       0.392932         965.341         513.879 
       0.408854         948.252         473.697 
       0.424564         876.378         436.614 
       0.440253         860.822         404.791 
       0.455999          831.75         377.121 
       0.471626         801.489         351.692 
        0.48727         768.462         327.904 
       0.502856         746.633         306.535 
       0.518488         739.657         287.468 
       0.534347         693.658         269.742 
       0.550082          676.96         253.398 
       0.565732         673.289         238.445 
       0.581496         636.484         224.751 
       0.597222         623.924         212.191 
       0.612804         612.828         200.643 
       0.628434         595.608         189.878 
       0.644267         580.161         179.814 
       0.660051         563.321         170.539 
       0.675724         557.606         161.974 
       0.691403         539.169         153.991 
       0.707174         521.639           146.5 
       0.722871         515.301         139.538 
        0.73838         505.692         133.102 
       0.754018         494.882         127.024 
       0.769845         486.002         121.259 
        0.78569         477.017         115.847 
       0.801365         465.023         110.819 
       0.817031         452.509         106.095 
       0.832809         448.765         101.617 
       0.848511         438.915         97.4188 
       0.864097         425.691         93.4879 
       0.879701         420.137         89.7711 
       0.895507         417.679         86.2135 
       0.911279         405.576          82.857 
        0.92691         399.953         79.7078 
       0.942635         390.031         76.7057 
       0.958396         380.339         73.8525 
       0.974128         374.846         71.1502 
       0.989692         372.451         68.6105 
        1.00528         361.969         66.1914 
        1.02113         360.335         63.8516 
        1.03692          349.74          61.634 
        1.05264          347.65         59.5323 
        1.06832         338.016         57.5324 
        1.08405         333.758         55.6193 
        1.09979         328.119         53.7925 
        1.11537         321.966         52.0661 
        1.13105         316.717         50.4055 
        1.14679         308.915         48.8112 
        1.16256         303.181          47.283 
        1.17828         302.476         45.8255 
        1.19395         294.793         44.4345 
         1.2097         290.636         43.0945 
        1.22537         284.581         41.8163 
          1.241         282.207         40.5941 
        1.25666         277.212         39.4178 
        1.27241         273.212         38.2828 
        1.28819         268.907         37.1907 
        1.30392         262.755         36.1446 
        1.31957         262.275         35.1434 
        1.33529         257.037         34.1766 
        1.35108         251.464         33.2425 
        1.36674         247.867         32.3501 
         1.3824         246.507         31.4914 
        1.39811         242.199          30.661 
        1.41389         239.303         29.8575 
        1.42964         236.577         29.0843 
        1.44531         232.822         28.3423 
        1.46101         228.821         27.6246 
        1.47667         226.037         26.9341 
        1.49229         223.657          26.269 
        1.50793         218.062         25.6257 
        1.52367         216.812         24.9999 
        1.53953         213.463         24.3908 
        1.55526         208.966         23.8069 
        1.57092         207.571         23.2446 
        1.58662         205.105         22.6992 
        1.60235         201.374         22.1702 
        1.61809         199.465         21.6579 
        1.63369         196.402         21.1663 
        1.64941         192.492         20.6866 
        1.66519         191.236           20.22 
        1.68085         188.408         19.7711 
        1.69652         185.592         19.3358 
        1.71228         181.527         18.9111 
        1.72806         179.955         18.4989 
        1.74368         177.305         18.1031 
        1.75933         174.316         17.7181 
        1.77505         173.246         17.3426 
        1.79081         171.367         16.9773 
         1.8065         168.193         16.6241 
        1.82218         166.433         16.2812 
        1.83797         164.846         15.9457 
        1.85367         162.089         15.6216 
        1.86928         159.355         15.3084 
        1.88497         157.496         15.0021 
        1.90073         155.952         14.7031 
        1.91647         154.246         14.4124 
        1.93218         152.329         14.1303 
        1.94787         149.077         13.8562 
        1.96363         147.107         13.5882 
        1.97935         146.428         13.3279 
        1.99499         143.761         13.0759 
        2.01064         142.244         12.8301 
         2.0264         140.655         12.5891 
        2.04216         138.743         12.3543 
        2.05781          137.26         12.1271 
        2.07353         135.745         11.9047 
        2.08928         133.304         11.6875 
        2.10499          132.14         11.4762 
        2.12065         129.782         11.2709 
        2.13633         128.812         11.0703 
        2.15211          126.38         10.8734 
        2.16785         125.139         10.6818 
        2.18349         124.057         10.4961 
        2.19916         122.326         10.3143 
        2.21489         121.107         10.1363 
        2.23063         118.863         9.96235 
         2.2463         117.723         9.79328 
        2.26194         115.836         9.62856 
        2.27765          114.87         9.46678 
        2.29341         113.419         9.30831 
        2.30914         112.425         9.15379 
        2.32486         110.653         9.00287 
        2.34061         109.472          8.8551 
        2.35635         108.169         8.71079 
        2.37203         106.891         8.57019 
        2.38768         105.444         8.43299 
        2.40339         104.381          8.2983 
        2.41914          102.92         8.16624 
        2.43483         101.913         8.03752 
         2.4505         100.835          7.9118 
        2.46622         99.6987         7.78833 
        2.48195         98.2874         7.66749 
        2.49759         96.9505         7.54987 
        2.51328         96.5292          7.4344 
        2.52906         94.9366         7.32062 
        2.54479         94.0335         7.20965 
        2.56049         92.8975          7.1012 
        2.57618         91.8116         6.99507 
        2.59189         90.8374         6.89095 
        2.60758         89.7959         6.78911 
        2.62325         88.6472         6.68946 
        2.63898          87.483         6.59146 
        2.65468         86.5575         6.49563 
        2.67044          85.872          6.4013 
        2.68618         84.7673         6.30906 
        2.70184         84.3169         6.21901 
        2.71755         82.8629         6.13049 
        2.73329         82.2118         6.04356 
        2.74897          81.296         5.95859 
        2.76462         80.0968         5.87545 
        2.78034         79.5675         5.79356 
        2.79607         78.1196         5.71313 
        2.81179         77.4039         5.63433 
        2.82749         76.6008          5.5571 
        2.84321         75.9792         5.48124 
        2.85893         75.1167         5.40681 
        2.87462         74.1633          5.3339 
        2.89033         73.2185         5.26226 
        2.90605         72.4805         5.19187 
        2.92176         71.6338         5.12281 
        2.93747         71.2208         5.05504 
        2.95318         70.1382         4.98849 
        2.96891          69.714          4.9231 
        2.98456         68.9739         4.85917 
        3.00023         68.0271         4.79628 
        3.01596         67.3099         4.73432 
        3.03164         66.5351         4.67362 
        3.04738         65.8506         4.61381 
         3.0631         65.1453         4.55507 
        3.07883         64.6791         4.49735 
        3.09456         64.0065         4.44064 
        3.11026         63.1562         4.38499 
        3.12596         62.4597          4.3303 
        3.14163         61.9875         4.27667 
        3.15734         61.1645         4.22383 
        3.17308         60.4679         4.17175 
        3.18879          60.096         4.12069 
        3.20447         59.2494         4.07056 
         3.2202         58.8879          4.0211 
         3.2359         58.0761         3.97256 
        3.25157         57.4974         3.92494 
        3.26729         57.0932         3.87795 
        3.28304         56.6764         3.83163 
        3.29877         55.9582         3.78614 
        3.31446         55.0362         3.74148 
        3.33014         54.8486         3.69758 
        3.34585         54.0711         3.65432 
        3.36158         53.6766         3.61169 
        3.37727         53.1952         3.56987 
        3.39294         52.5596         3.52875 
        3.40867         52.0657         3.48813 
        3.42439         51.6343         3.44817 
        3.44008         51.0752         3.40892 
        3.45578         50.4795         3.37025 
        3.47153         50.0304         3.33209 
        3.48724         49.5285         3.29459 
        3.50292         49.2486         3.25775 
        3.51859         48.6002          3.2215 
        3.53431         48.2957         3.18568 
        3.55007         47.6654         3.15032 
        3.56577         47.3824         3.11564 
        3.58146         46.7889         3.08149 
        3.59719         46.3641         3.04778 
        3.61292         45.8805         3.01458 
        3.62859         45.4596           2.982 
        3.64429         45.0201         2.94984 
        3.66003         44.7018         2.91806 
        3.67578         44.1302         2.88675 
        3.69146         43.8265         2.85602 
        3.70712         43.2844          2.8258 
        3.72284         42.8946          2.7959 
        3.73853         42.5288         2.76649 
        3.75422         41.9887         2.73749 
        3.76993         41.6781         2.70887 
        3.78564         41.2796         2.68068 
        3.80137         40.9235         2.65285 
        3.81707         40.5435         2.62546 
        3.83279         40.1922         2.59845 
        3.84853         39.8775         2.57176 
        3.86424         39.4287         2.54551 
        3.87992         39.1781         2.51966 
        3.89561         38.8128         2.49417 
        3.91134         38.3378         2.46897 
        3.92704         38.0741         2.44416 
        3.94273         37.7075         2.41971 
        3.95845         37.5438         2.39555 
        3.97418         37.1251         2.37171 
        3.98988         36.7981         2.34824 
        4.00554         36.4296         2.32514 
        4.02125         36.2064         2.30229 
        4.03698          35.797         2.27971 
        4.05268         35.5416         2.25748 
        4.06839         35.1888         2.23553 
         4.0841         34.8181         2.21388 
        4.09983         34.5439         2.19249 
        4.11555         34.2622         2.17139 
        4.13124         34.0064         2.15062 
        4.14693         33.6643         2.13011 
        4.16266         33.3904         2.10982 
        4.17839         33.0137          2.0898 
        4.19408         32.7509         2.07009 
        4.20977         32.4371         2.05062 
        4.22551         32.1439         2.03136 
        4.24123           31.96         2.01237 
        4.25691         31.6833         1.99367 
        4.27259         31.3843          1.9752 
        4.28831         31.0862         1.95693 
        4.30404         30.9026         1.93887 
        4.31974         30.5542         1.92108 
        4.33543         30.2573         1.90352 
        4.35116          30.109         1.88614 
        4.36688         29.8412         1.86898 
        4.38255         29.5542          1.8521 
        4.39825         29.3055         1.83539 
        4.41398         29.1423         1.81886 
         4.4297         28.7538         1.80254 
        4.44541         28.5804         1.78643 
        4.46111         28.3076         1.77053 
        4.47683         28.1126         1.75481 
        4.49251         27.8109         1.73931 
        4.50819         27.6871         1.72401 
         4.5239         27.4392         1.70886 
        4.53962         27.2038         1.69388 
        4.55535         27.0352         1.67907 
        4.57106         26.7241         1.66446 
        4.58678         26.5627         1.65002 
         4.6025         26.2327         1.63575 
        4.61821         26.1045         1.62165 
        4.63391         25.8742         1.60773 
         4.6496         25.6705         1.59398 
        4.66532          25.458         1.58037 
        4.68103         25.2489         1.56693 
        4.69673         25.0534         1.55366 
        4.71241         24.9234         1.54055 
        4.72811         24.6157         1.52757 
        4.74384         24.4819         1.51472 
        4.75955         24.2953         1.50205 
        4.77525         24.0367         1.48952 
        4.79096         23.9182         1.47712 
        4.80669          23.683         1.46486 
         4.8224         23.5491         1.45275 
        4.83809         23.3464         1.44079 
        4.85379         23.0972         1.42895 
         4.8695          22.966         1.41724 
        4.88521         22.7573         1.40567 
        4.90093         22.5511         1.39422 
        4.91663         22.4031         1.38291 
        4.93234         22.2698         1.37172 
        4.94807         22.0326         1.36064 
        4.96377         21.8808          1.3497 
        4.97943         21.7194         1.33891 
        4.99514         21.5699          1.3282 
        5.01086         21.4252         1.31761 
        5.02654         21.2027         1.30716 
        5.04227          21.102         1.29679 
          5.058         20.9212         1.28653 
        5.07371         20.7477          1.2764 
        5.08942         20.5187         1.26637 
        5.10513         20.4452         1.25646 
        5.12084         20.2829         1.24664 
        5.13656         20.0959         1.23693 
        5.15225           19.94         1.22734 
        5.16796          19.821         1.21784 
        5.18369         19.6265         1.20843 
         5.1994         19.5294         1.19914 
        5.21509         19.3272         1.18995 
        5.23079         19.2404         1.18084 
        5.24649         19.0677         1.17184 
        5.26217         18.9748         1.16294 
        5.27788         18.8023         1.15412 
        5.29359         18.6415         1.14539 
        5.30933          18.457         1.13674 
        5.32504         18.3688         1.12819 
        5.34073         18.2293         1.11974 
        5.35646         18.0837         1.11135 
        5.37218         17.9502         1.10306 
        5.38789         17.8332         1.09486 
        5.40357         17.6937         1.08675 
        5.41929         17.5628          1.0787 
        5.43502         17.4372         1.07074 
         5.4507         17.3174         1.06288 
        5.46639         17.1704         1.05509 
        5.48212         17.0798         1.04736 
        5.49786         16.8933         1.03971 
        5.51353         16.7978         1.03216 
        5.52921         16.6917         1.02469 
        5.54495         16.5717         1.01726 
        5.56066         16.4491         1.00992 
        5.57637         16.3077         1.00265 
        5.59207         16.1932        0.995458 
        5.60778         16.0646        0.988334 
        5.62346         15.9961         0.98129 
        5.63916         15.8789        0.974308 
        5.65487         15.7415         0.96739 
         5.6706         15.6439        0.960531 
        5.68633         15.5256        0.953736 
        5.70203         15.4162        0.947021 
        5.71773          15.312        0.940371 
        5.73344         15.1766        0.933782 
        5.74916         15.0966         0.92725 
        5.76486         15.0084        0.920789 
        5.78054         14.8923        0.914399 
        5.79626         14.7783        0.908052 
          5.812         14.6902         0.90176 
         5.8277         14.5822        0.895545 
        5.84339         14.4561        0.889388 
        5.85911         14.3573        0.883278 
        5.87484         14.2437        0.877226 
        5.89053         14.1659        0.871243 
        5.90623         14.0746        0.865312 
        5.92195         13.9678        0.859427 
        5.93767         13.8645        0.853599 
        5.95336         13.7566        0.847835 
        5.96905           13.69        0.842127 
        5.98476         13.5745        0.836463 
        6.00048         13.4783        0.830849 
        6.01617         13.3974        0.825294 
        6.03185         13.3035        0.819797 
        6.04756         13.1936        0.814336 
        6.06331         13.1227        0.808914 
        6.07903         13.0359        0.803552 
        6.09473         12.9217        0.798244 
        6.11044         12.8598        0.792979 
        6.12616         12.7602        0.787762 
        6.14186         12.6665        0.782598 
        6.15755         12.5669         0.77748 
        6.17326         12.5075        0.772403 
        6.18898         12.4314         0.76737 
        6.20467         12.3468         0.76239 
        6.22036         12.2436        0.757455 
         6.2361         12.1652        0.752551 
         6.2518         12.0853        0.747697 
        6.26748         12.0197        0.742897 
        6.28319         11.9435        0.738126 
        6.29893         11.8409        0.733393 
        6.31463         11.7627        0.728709 
        6.33033         11.6831        0.724068 
        6.34604         11.6374        0.719464 
        6.36177         11.5327        0.714895 
        6.37747         11.4626        0.710374 
