# k  (h/Mpc)    Pcb(k)  (Mpc/h)^3    Pcb_linear(k) (Mpc/h)^3   ShotnoiseSubtracted = true
      0.0200456         21603.1         22115.8 
      0.0350414         15339.1         16077.4 
      0.0492313         11433.4         11681.6 
      0.0637834         9899.19         9710.77 
      0.0800726         7810.45          7707.2 
       0.096163         5413.84         5592.24 
       0.111083          4352.7         4460.52 
       0.126058         4007.96         3952.93 
       0.142273         3470.98            3349 
       0.158546         3038.79         2645.01 
        0.17375         2431.33         2228.42 
       0.188953         2377.83         2017.78 
       0.204907         2234.38         1785.32 
       0.220756         1936.94         1510.49 
        0.23588         1731.47            1314 
         0.2514         1507.63         1193.75 
       0.267535         1507.89         1080.14 
       0.283568         1367.26          952.54 
       0.299022         1293.61         848.664 
       0.314451         1233.12         775.621 
       0.330372         1131.52         711.545 
       0.346141         1082.75         645.836 
       0.361624          1040.6         586.976 
       0.377134         968.991         540.111 
       0.392932         930.199         499.754 
       0.408854         912.567         460.677 
       0.424564          844.19         424.612 
       0.440253         829.459         393.665 
       0.455999         799.492         366.755 
       0.471626         769.998         342.025 
        0.48727         738.277         318.891 
       0.502856         717.692         298.109 
       0.518488         710.477         279.566 
       0.534347         665.952         262.327 
       0.550082         648.992         246.433 
       0.565732         646.104         231.891 
       0.581496         610.156         218.573 
       0.597222          598.54         206.359 
       0.612804         587.234         195.128 
       0.628434         570.467         184.659 
       0.644267         555.631         174.872 
       0.660051         538.963         165.851 
       0.675724         533.763         157.522 
       0.691403         515.954         149.758 
       0.707174         499.093         142.473 
       0.722871         493.265         135.702 
        0.73838         484.245         129.443 
       0.754018         473.285         123.532 
       0.769845         464.506         117.926 
        0.78569         456.313         112.663 
       0.801365         444.732         107.773 
       0.817031         432.231         103.179 
       0.832809         428.908         98.8238 
       0.848511         419.339         94.7411 
       0.864097         407.048         90.9182 
       0.879701         401.739         87.3036 
       0.895507         398.936         83.8438 
       0.911279         387.016         80.5795 
        0.92691         381.802         77.5169 
       0.942635         372.544         74.5973 
       0.958396         363.408         71.8225 
       0.974128         357.917         69.1945 
       0.989692         355.386         66.7245 
        1.00528         345.849          64.372 
        1.02113         344.201         62.0965 
        1.03692         334.047         59.9399 
        1.05264         332.148          57.896 
        1.06832         323.012          55.951 
        1.08405          318.74         54.0905 
        1.09979         313.111         52.3139 
        1.11537         307.493         50.6349 
        1.13105         302.181           49.02 
        1.14679         295.301         47.4695 
        1.16256         289.913         45.9833 
        1.17828         288.823         44.5659 
        1.19395         281.461         43.2132 
         1.2097         278.171         41.9099 
        1.22537          272.15         40.6669 
          1.241         270.251         39.4783 
        1.25666         265.024         38.3343 
        1.27241         261.359         37.2305 
        1.28819         257.377         36.1685 
        1.30392         251.288          35.151 
        1.31957         251.191         34.1774 
        1.33529         245.907         33.2372 
        1.35108         240.459         32.3288 
        1.36674         237.537         31.4609 
         1.3824          236.18         30.6257 
        1.39811          232.16         29.8182 
        1.41389         229.116         29.0368 
        1.42964         226.579         28.2848 
        1.44531         222.993         27.5632 
        1.46101         219.359         26.8653 
        1.47667         216.427         26.1937 
        1.49229         214.324         25.5469 
        1.50793         209.055         24.9213 
        1.52367         207.739         24.3127 
        1.53953         204.635         23.7204 
        1.55526         200.024         23.1525 
        1.57092         198.879         22.6057 
        1.58662         196.479         22.0752 
        1.60235         192.883         21.5608 
        1.61809         191.279         21.0626 
        1.63369         188.006         20.5845 
        1.64941         184.216          20.118 
        1.66519         183.246         19.6642 
        1.68085         180.514         19.2277 
        1.69652         177.787         18.8043 
        1.71228         174.091         18.3913 
        1.72806         172.545         17.9904 
        1.74368         170.127         17.6055 
        1.75933          167.15         17.2311 
        1.77505         166.086         16.8659 
        1.79081         164.381         16.5106 
         1.8065          161.54         16.1671 
        1.82218         159.624         15.8337 
        1.83797         158.156         15.5074 
        1.85367         155.576         15.1922 
        1.86928         152.923         14.8876 
        1.88497         151.156         14.5897 
        1.90073          149.81         14.2989 
        1.91647         147.951         14.0163 
        1.93218          146.23         13.7419 
        1.94787         143.396         13.4753 
        1.96363         141.392         13.2147 
        1.97935         140.604         12.9616 
        1.99499         137.989         12.7165 
        2.01064         136.674         12.4774 
         2.0264         134.977          12.243 
        2.04216         133.199         12.0147 
        2.05781         131.938         11.7937 
        2.07353         130.458         11.5775 
        2.08928         127.992         11.3662 
        2.10499         126.906         11.1608 
        2.12065         124.673          10.961 
        2.13633         123.936          10.766 
        2.15211         121.389         10.5745 
        2.16785         120.058         10.3882 
        2.18349         119.096         10.2075 
        2.19916         117.563         10.0308 
        2.21489         116.233         9.85768 
        2.23063         114.114         9.68852 
         2.2463         113.074         9.52409 
        2.26194         111.246          9.3639 
        2.27765         110.333         9.20657 
        2.29341         108.995         9.05245 
        2.30914         107.983         8.90218 
        2.32486           106.4         8.75541 
        2.34061         105.216          8.6117 
        2.35635         103.944         8.47135 
        2.37203         102.612         8.33462 
        2.38768         101.373         8.20119 
        2.40339         100.318          8.0702 
        2.41914         98.9425         7.94177 
        2.43483         98.0066         7.81659 
         2.4505         96.8884         7.69432 
        2.46622         95.7903         7.57425 
        2.48195         94.4806         7.45674 
        2.49759         93.1157         7.34234 
        2.51328         92.8167         7.23005 
        2.52906         91.1559          7.1194 
        2.54479         90.2904         7.01148 
        2.56049         89.2295           6.906 
        2.57618         88.1501         6.80279 
        2.59189         87.2097         6.70154 
        2.60758         86.3156          6.6025 
        2.62325         85.2114         6.50559 
        2.63898          83.985         6.41028 
        2.65468         83.1444         6.31709 
        2.67044         82.4029         6.22535 
        2.68618         81.3688         6.13564 
        2.70184         80.9685         6.04806 
        2.71755         79.6271         5.96198 
        2.73329         78.9341         5.87744 
        2.74897         78.0186         5.79481 
        2.76462          76.896         5.71395 
        2.78034         76.3738         5.63431 
        2.79607         74.9348          5.5561 
        2.81179         74.2528         5.47946 
        2.82749         73.4523         5.40436 
        2.84321          72.927         5.33057 
        2.85893         72.0801          5.2582 
        2.87462         71.0977         5.18728 
        2.89033         70.2123         5.11761 
        2.90605         69.5484         5.04916 
        2.92176         68.7331           4.982 
        2.93747         68.3204         4.91609 
        2.95318         67.3095         4.85137 
        2.96891         66.8928         4.78778 
        2.98456         66.1907         4.72561 
        3.00023         65.1988         4.66445 
        3.01596         64.6261         4.60418 
        3.03164         63.7794         4.54516 
        3.04738         63.2622         4.48699 
         3.0631         62.5527         4.42986 
        3.07883         62.0078         4.37373 
        3.09456          61.332         4.31857 
        3.11026         60.5483         4.26446 
        3.12596         59.9035         4.21127 
        3.14163           59.41         4.15912 
        3.15734         58.7522         4.10772 
        3.17308         57.9779         4.05708 
        3.18879         57.6834         4.00742 
        3.20447         56.7809         3.95867 
         3.2202         56.4721         3.91058 
         3.2359         55.7085         3.86337 
        3.25157         55.1453         3.81705 
        3.26729         54.7426         3.77135 
        3.28304         54.3107         3.72631 
        3.29877         53.6285         3.68207 
        3.31446         52.7741         3.63864 
        3.33014         52.5415         3.59595 
        3.34585         51.9275         3.55388 
        3.36158         51.4644         3.51242 
        3.37727         51.0317         3.47174 
        3.39294         50.5116         3.43176 
        3.40867         49.9445         3.39225 
        3.42439         49.4969         3.35339 
        3.44008         49.0214         3.31522 
        3.45578         48.4248         3.27761 
        3.47153         48.0192          3.2405 
        3.48724         47.4773         3.20403 
        3.50292         47.2437          3.1682 
        3.51859          46.639         3.13295 
        3.53431         46.3128         3.09811 
        3.55007         45.6848         3.06373 
        3.56577         45.4388            3.03 
        3.58146         44.8447         2.99679 
        3.59719          44.508           2.964 
        3.61292          43.953         2.93172 
        3.62859         43.6164         2.90003 
        3.64429         43.2078         2.86876 
        3.66003         42.8526         2.83785 
        3.67578         42.2995          2.8074 
        3.69146         42.0171         2.77752 
        3.70712         41.5374         2.74813 
        3.72284         41.1095         2.71905 
        3.73853         40.7963         2.69045 
        3.75422         40.2423         2.66224 
        3.76993         40.0175         2.63442 
        3.78564         39.6159           2.607 
        3.80137         39.2708         2.57993 
        3.81707         38.9283          2.5533 
        3.83279         38.6405         2.52702 
        3.84853         38.2358         2.50107 
        3.86424         37.8519         2.47554 
        3.87992         37.6279          2.4504 
        3.89561         37.2386         2.42561 
        3.91134         36.7835         2.40111 
        3.92704         36.5945         2.37698 
        3.94273         36.1612          2.3532 
        3.95845         36.0167          2.3297 
        3.97418         35.6159         2.30652 
        3.98988         35.3167         2.28369 
        4.00554         34.9682         2.26123 
        4.02125         34.6868           2.239 
        4.03698         34.3244         2.21704 
        4.05268         34.0592         2.19543 
        4.06839         33.7178         2.17408 
         4.0841          33.381         2.15303 
        4.09983         33.1263         2.13222 
        4.11555         32.8414          2.1117 
        4.13124         32.6047         2.09151 
        4.14693          32.254         2.07156 
        4.16266         31.9969         2.05182 
        4.17839         31.6356         2.03236 
        4.19408         31.4141         2.01319 
        4.20977         31.0956         1.99426 
        4.22551          30.804         1.97553 
        4.24123         30.6739         1.95705 
        4.25691         30.4077         1.93887 
        4.27259         30.1032         1.92091 
        4.28831         29.8035         1.90314 
        4.30404         29.6566         1.88558 
        4.31974         29.2859         1.86827 
        4.33543         29.0312          1.8512 
        4.35116         28.8905          1.8343 
        4.36688         28.5984         1.81761 
        4.38255         28.3335         1.80119 
        4.39825         28.0752         1.78494 
        4.41398         27.9236         1.76886 
         4.4297         27.5988           1.753 
        4.44541          27.379         1.73733 
        4.46111         27.1511         1.72186 
        4.47683          26.988         1.70658 
        4.49251         26.6937          1.6915 
        4.50819         26.5541         1.67662 
         4.5239         26.3055         1.66189 
        4.53962         26.0799         1.64732 
        4.55535         25.9066         1.63292 
        4.57106         25.6202         1.61871 
        4.58678         25.4411         1.60467 
         4.6025         25.1736         1.59079 
        4.61821         25.0267         1.57707 
        4.63391          24.817         1.56354 
         4.6496         24.6258         1.55017 
        4.66532         24.4268         1.53693 
        4.68103         24.2067         1.52386 
        4.69673         24.0425         1.51095 
        4.71241         23.8856          1.4982 
        4.72811          23.624         1.48558 
        4.74384         23.4646         1.47309 
        4.75955         23.3215         1.46076 
        4.77525         23.0613         1.44858 
        4.79096         22.9252         1.43652 
        4.80669         22.7337         1.42459 
         4.8224         22.5849         1.41282 
        4.83809         22.3716         1.40118 
        4.85379         22.1422         1.38967 
         4.8695         22.0433         1.37829 
        4.88521         21.8426         1.36703 
        4.90093          21.609          1.3559 
        4.91663         21.4795          1.3449 
        4.93234         21.3587         1.33401 
        4.94807         21.0907         1.32324 
        4.96377         20.9857          1.3126 
        4.97943         20.8607          1.3021 
        4.99514         20.6528          1.2917 
        5.01086         20.5347         1.28139 
        5.02654         20.3136         1.27123 
        5.04227         20.2304         1.26114 
          5.058         20.0197         1.25116 
        5.07371         19.8698         1.24131 
        5.08942         19.6695         1.23156 
        5.10513         19.5869         1.22192 
        5.12084         19.4287         1.21237 
        5.13656         19.2223         1.20293 
        5.15225         19.1212         1.19361 
        5.16796         19.0043         1.18437 
        5.18369         18.8059         1.17521 
         5.1994           18.73         1.16618 
        5.21509         18.5004         1.15724 
        5.23079         18.4354         1.14839 
        5.24649         18.2684         1.13963 
        5.26217         18.1756         1.13098 
        5.27788         18.0029          1.1224 
        5.29359          17.853         1.11391 
        5.30933         17.6925         1.10549 
        5.32504         17.5946         1.09718 
        5.34073          17.455         1.08896 
        5.35646          17.332         1.08081 
        5.37218         17.2017         1.07274 
        5.38789         17.0693         1.06476 
        5.40357         16.9361         1.05688 
        5.41929         16.8349         1.04905 
        5.43502         16.6986         1.04131 
         5.4507         16.5915         1.03366 
        5.46639         16.4554         1.02609 
        5.48212         16.3442         1.01858 
        5.49786         16.1853         1.01113 
        5.51353         16.0928         1.00379 
        5.52921         15.9932        0.996521 
        5.54495         15.8875          0.9893 
        5.56066         15.7534        0.982159 
        5.57637         15.6386         0.97509 
        5.59207         15.5117        0.968096 
        5.60778         15.4178        0.961168 
        5.62346         15.3415        0.954317 
        5.63916         15.2146        0.947527 
        5.65487         15.0798        0.940799 
         5.6706         14.9763        0.934129 
        5.68633         14.8693        0.927521 
        5.70203         14.7807         0.92099 
        5.71773         14.6799        0.914523 
        5.73344         14.5406        0.908115 
        5.74916         14.4717        0.901762 
        5.76486         14.3824        0.895479 
        5.78054         14.2717        0.889265 
        5.79626         14.1701        0.883093 
          5.812         14.0636        0.876973 
         5.8277         13.9667        0.870929 
        5.84339         13.8443        0.864941 
        5.85911         13.7553        0.858999 
        5.87484         13.6452        0.853113 
        5.89053         13.5818        0.847295 
        5.90623         13.4877        0.841527 
        5.92195         13.3818        0.835804 
        5.93767         13.2836        0.830136 
        5.95336         13.1802        0.824531 
        5.96905          13.123        0.818979 
        5.98476         12.9953        0.813471 
        6.00048         12.9311        0.808011 
        6.01617         12.8417        0.802609 
        6.03185         12.7549        0.797263 
        6.04756         12.6589        0.791953 
        6.06331          12.576        0.786679 
        6.07903         12.4968        0.781465 
        6.09473         12.3872        0.776303 
        6.11044         12.3299        0.771182 
        6.12616         12.2375        0.766109 
        6.14186         12.1639        0.761086 
        6.15755         12.0569        0.756109 
        6.17326         11.9913        0.751172 
        6.18898         11.9198        0.746277 
        6.20467         11.8526        0.741434 
        6.22036         11.7377        0.736635 
         6.2361         11.6758        0.731865 
         6.2518         11.6127        0.727145 
        6.26748         11.5405        0.722477 
        6.28319         11.4674        0.717837 
        6.29893         11.3644        0.713234 
        6.31463         11.2831        0.708679 
        6.33033         11.2156        0.704165 
        6.34604         11.1765        0.699688 
        6.36177         11.0637        0.695244 
        6.37747         10.9993        0.690848 
