# k  (h/Mpc)    Pcb(k)  (Mpc/h)^3    Pcb_linear(k) (Mpc/h)^3   ShotnoiseSubtracted = true
      0.0200456         10745.6         10903.8 
      0.0350414         8131.14         7926.69 
      0.0492313         5711.28         5759.38 
      0.0637834         4624.22         4787.72 
      0.0800726         3644.25          3799.9 
       0.096163            2850         2757.16 
       0.111083         2314.55         2199.18 
       0.126058         1932.37         1948.92 
       0.142273         1663.59         1651.16 
       0.158546         1365.13         1304.07 
        0.17375          1191.9         1098.68 
       0.188953         1101.26         994.831 
       0.204907         939.795         880.222 
       0.220756         841.587         744.721 
        0.23588         746.992         647.843 
         0.2514         668.864         588.559 
       0.267535         647.369         532.545 
       0.283568         565.063         469.633 
       0.299022         537.579         418.419 
       0.314451         539.729         382.406 
       0.330372         463.962         350.815 
       0.346141         429.985         318.418 
       0.361624         409.918         289.398 
       0.377134         381.676         266.292 
       0.392932         370.799         246.395 
       0.408854         352.126         227.128 
       0.424564         339.477         209.348 
       0.440253         306.601         194.089 
       0.455999         292.785         180.822 
       0.471626         292.002         168.629 
        0.48727         277.762         157.224 
       0.502856         254.199         146.977 
       0.518488         254.964         137.835 
       0.534347         236.781         129.336 
       0.550082         230.717         121.499 
       0.565732         228.833          114.33 
       0.581496         214.904         107.764 
       0.597222         209.651         101.742 
       0.612804         203.546         96.2042 
       0.628434         196.629         91.0428 
       0.644267         187.567         86.2174 
       0.660051         183.637         81.7701 
       0.675724         181.679         77.6635 
       0.691403         176.841         73.8354 
       0.707174         170.769         70.2439 
       0.722871         168.081         66.9055 
        0.73838         166.214         63.8197 
       0.754018         156.536         60.9053 
       0.769845         156.394         58.1413 
        0.78569         152.258         55.5464 
       0.801365         147.789         53.1357 
       0.817031         143.928         50.8704 
       0.832809         141.518         48.7233 
       0.848511         138.136         46.7104 
       0.864097         135.584         44.8256 
       0.879701         133.964         43.0435 
       0.895507          130.11         41.3377 
       0.911279         126.923         39.7283 
        0.92691         124.458         38.2183 
       0.942635         122.151         36.7788 
       0.958396         120.635         35.4108 
       0.974128         118.037         34.1151 
       0.989692          115.23         32.8973 
        1.00528          113.84         31.7375 
        1.02113         110.854         30.6156 
        1.03692         110.346         29.5523 
        1.05264         108.936         28.5446 
        1.06832         105.718         27.5856 
        1.08405         104.663         26.6684 
        1.09979         103.866         25.7924 
        1.11537         101.079         24.9647 
        1.13105             100         24.1684 
        1.14679         98.2616          23.404 
        1.16256         96.3174         22.6712 
        1.17828         95.4614         21.9724 
        1.19395         92.9354         21.3055 
         1.2097         92.7079         20.6629 
        1.22537         90.5603         20.0501 
          1.241         90.2669         19.4641 
        1.25666         87.2432         18.9001 
        1.27241         86.4908         18.3558 
        1.28819         85.9875         17.8322 
        1.30392         84.3233         17.3306 
        1.31957         83.3777         16.8506 
        1.33529         82.2446          16.387 
        1.35108         81.7533         15.9391 
        1.36674         80.2491         15.5112 
         1.3824         79.7142         15.0995 
        1.39811         77.6933         14.7014 
        1.41389         76.6987         14.3161 
        1.42964         75.6733         13.9453 
        1.44531         75.0897         13.5896 
        1.46101         74.3101         13.2455 
        1.47667         73.2508         12.9143 
        1.49229         72.4267         12.5955 
        1.50793         71.4187          12.287 
        1.52367         70.8877         11.9869 
        1.53953         69.7504         11.6949 
        1.55526         68.5733         11.4149 
        1.57092          68.467         11.1453 
        1.58662         67.4429         10.8838 
        1.60235         66.4985         10.6302 
        1.61809         65.4273         10.3845 
        1.63369         64.6763         10.1488 
        1.64941         64.5047          9.9188 
        1.66519         62.9054         9.69507 
        1.68085         62.5094         9.47985 
        1.69652         61.2695         9.27112 
        1.71228          60.888          9.0675 
        1.72806         60.3988         8.86984 
        1.74368         59.4679         8.68008 
        1.75933         58.9822         8.49549 
        1.77505         58.3827         8.31542 
        1.79081         57.4853         8.14026 
         1.8065         57.2003         7.97091 
        1.82218         55.5954         7.80653 
        1.83797         55.3034         7.64567 
        1.85367          54.838         7.49024 
        1.86928         54.3504         7.34007 
        1.88497         53.4636          7.1932 
        1.90073         52.7427         7.04982 
        1.91647         52.5113         6.91048 
        1.93218         52.0618         6.77521 
        1.94787         51.2266         6.64376 
        1.96363         50.4758         6.51529 
        1.97935         50.0305         6.39048 
        1.99499         49.4838         6.26965 
        2.01064         48.9017         6.15178 
         2.0264         48.6349          6.0362 
        2.04216         47.8233         5.92365 
        2.05781          47.287         5.81468 
        2.07353         46.5582         5.70807 
        2.08928         46.3782         5.60391 
        2.10499           45.94         5.50262 
        2.12065          45.369         5.40415 
        2.13633         45.0489           5.308 
        2.15211         44.3582         5.21358 
        2.16785         43.6434         5.12172 
        2.18349         43.2306         5.03265 
        2.19916         42.8253         4.94551 
        2.21489         42.6021         4.86015 
        2.23063         41.9188         4.77675 
         2.2463         41.6162         4.69568 
        2.26194         41.1618          4.6167 
        2.27765         40.6242         4.53913 
        2.29341          40.069         4.46315 
        2.30914         39.7349         4.38906 
        2.32486         39.1644          4.3167 
        2.34061         38.9094         4.24585 
        2.35635         38.4482         4.17665 
        2.37203         38.1063         4.10924 
        2.38768          37.838         4.04345 
        2.40339         37.4772         3.97887 
        2.41914         37.0852         3.91555 
        2.43483         36.4796         3.85383 
         2.4505         36.3043         3.79355 
        2.46622         35.8679         3.73435 
        2.48195         35.5616         3.67641 
        2.49759         35.0776         3.62001 
        2.51328          34.734         3.56465 
        2.52906         34.4466         3.51009 
        2.54479         34.1038         3.45688 
        2.56049         33.8064         3.40488 
        2.57618         33.4269         3.35399 
        2.59189         33.0283         3.30407 
        2.60758         32.6483         3.25524 
        2.62325          32.545         3.20746 
        2.63898         32.1598         3.16048 
        2.65468         31.7177         3.11453 
        2.67044         31.5168          3.0693 
        2.68618          31.243         3.02507 
        2.70184         30.8591         2.98189 
        2.71755         30.5789         2.93945 
        2.73329         30.2419         2.89776 
        2.74897          29.915         2.85703 
        2.76462         29.6588         2.81716 
        2.78034           29.39         2.77789 
        2.79607         29.0626         2.73933 
        2.81179         28.8515         2.70155 
        2.82749         28.5146         2.66452 
        2.84321         28.2426         2.62814 
        2.85893          28.005         2.59246 
        2.87462         27.7741          2.5575 
        2.89033         27.4539         2.52315 
        2.90605         27.2473          2.4894 
        2.92176         27.0168         2.45629 
        2.93747         26.6939         2.42379 
        2.95318         26.5438         2.39188 
        2.96891         26.2299         2.36053 
        2.98456         25.9727         2.32988 
        3.00023         25.6474         2.29972 
        3.01596         25.3856         2.27001 
        3.03164         25.1723         2.24091 
        3.04738         25.0254         2.21223 
         3.0631         24.7748         2.18407 
        3.07883         24.4478         2.15639 
        3.09456         24.2239          2.1292 
        3.11026         23.9673         2.10251 
        3.12596         23.7208         2.07629 
        3.14163         23.5506         2.05058 
        3.15734         23.3852         2.02524 
        3.17308         23.0841         2.00027 
        3.18879         22.9138         1.97579 
        3.20447         22.7123         1.95175 
         3.2202          22.463         1.92804 
         3.2359         22.2606         1.90476 
        3.25157         22.0595         1.88193 
        3.26729         21.9344          1.8594 
        3.28304         21.6768         1.83719 
        3.29877         21.4641         1.81538 
        3.31446         21.3014         1.79397 
        3.33014         21.0574         1.77292 
        3.34585         20.9503         1.75218 
        3.36158         20.6573         1.73173 
        3.37727         20.5214         1.71168 
        3.39294         20.3848         1.69197 
        3.40867         20.1598         1.67249 
        3.42439         19.9678         1.65333 
        3.44008         19.7715         1.63451 
        3.45578         19.6177         1.61597 
        3.47153         19.4184         1.59767 
        3.48724         19.3186         1.57969 
        3.50292         19.0745         1.56203 
        3.51859         18.9415         1.54464 
        3.53431         18.7899         1.52747 
        3.55007         18.5571         1.51052 
        3.56577         18.4495         1.49389 
        3.58146         18.2323         1.47751 
        3.59719         18.1156         1.46135 
        3.61292          17.946         1.44543 
        3.62859         17.7327         1.42981 
        3.64429         17.5629         1.41439 
        3.66003         17.4995         1.39915 
        3.67578         17.3733         1.38414 
        3.69146         17.1609         1.36941 
        3.70712         17.0006         1.35492 
        3.72284         16.8818         1.34058 
        3.73853         16.7655         1.32648 
        3.75422          16.552         1.31257 
        3.76993         16.4311         1.29885 
        3.78564         16.2889         1.28533 
        3.80137         16.1399         1.27199 
        3.81707         16.0103         1.25886 
        3.83279         15.8743          1.2459 
        3.84853         15.7079         1.23311 
        3.86424         15.5702         1.22052 
        3.87992         15.4787         1.20813 
        3.89561         15.3405          1.1959 
        3.91134         15.2354         1.18382 
        3.92704         15.1147         1.17193 
        3.94273         14.9713          1.1602 
        3.95845          14.805         1.14862 
        3.97418         14.6845         1.13719 
        3.98988         14.5743         1.12593 
        4.00554          14.461         1.11486 
        4.02125          14.316          1.1039 
        4.03698         14.2114         1.09307 
        4.05268         14.1185         1.08242 
        4.06839         13.9551         1.07189 
         4.0841         13.8677         1.06151 
        4.09983         13.6775         1.05125 
        4.11555         13.6372         1.04114 
        4.13124         13.5266         1.03118 
        4.14693         13.3812         1.02134 
        4.16266          13.306         1.01162 
        4.17839         13.1591         1.00202 
        4.19408          13.067        0.992567 
        4.20977         12.9742        0.983234 
        4.22551         12.8366        0.973998 
        4.24123         12.7453        0.964891 
        4.25691         12.6356        0.955924 
        4.27259         12.5237        0.947069 
        4.28831         12.4668        0.938308 
        4.30404         12.3704        0.929649 
        4.31974         12.2579        0.921119 
        4.33543         12.1125          0.9127 
        4.35116         12.0433        0.904367 
        4.36688         11.9073         0.89614 
        4.38255         11.8385        0.888046 
        4.39825         11.7347        0.880035 
        4.41398         11.6459        0.872107 
         4.4297         11.5425        0.864284 
        4.44541         11.4577        0.856559 
        4.46111         11.3631        0.848934 
        4.47683         11.2613        0.841397 
        4.49251         11.1656        0.833966 
        4.50819         11.0778        0.826627 
         4.5239         11.0146        0.819366 
        4.53962          10.915        0.812182 
        4.55535         10.8113        0.805082 
        4.57106         10.7845        0.798076 
        4.58678         10.6655        0.791152 
         4.6025         10.5901        0.784309 
        4.61821         10.5123        0.777548 
        4.63391         10.4261        0.770875 
         4.6496         10.3353        0.764283 
        4.66532         10.2635        0.757758 
        4.68103         10.1585        0.751312 
        4.69673         10.0756        0.744947 
        4.71241         10.0058        0.738662 
        4.72811         9.93724        0.732439 
        4.74384         9.86119         0.72628 
        4.75955         9.77629        0.720201 
        4.77525         9.69465        0.714195 
        4.79096          9.6513         0.70825 
        4.80669         9.54274         0.70237 
         4.8224           9.487        0.696563 
        4.83809         9.40446        0.690828 
        4.85379         9.34595        0.685154 
         4.8695          9.2664        0.679539 
        4.88521         9.17254         0.67399 
        4.90093         9.13595        0.668501 
        4.91663         9.04243        0.663079 
        4.93234         8.99116         0.65771 
        4.94807         8.90639        0.652398 
        4.96377         8.87129        0.647154 
        4.97943         8.79179        0.641979 
        4.99514         8.71475        0.636847 
        5.01086         8.67539        0.631767 
        5.02654         8.58435        0.626756 
        5.04227         8.52506        0.621784 
          5.058         8.46303        0.616864 
        5.07371         8.41439        0.612006 
        5.08942          8.3406        0.607201 
        5.10513         8.26684        0.602446 
        5.12084         8.22477        0.597739 
        5.13656         8.16896        0.593085 
        5.15225         8.09112        0.588487 
        5.16796         8.03795         0.58393 
        5.18369         7.97912        0.579418 
         5.1994         7.92883        0.574962 
        5.21509         7.87604        0.570556 
        5.23079          7.7947        0.566192 
        5.24649         7.75529        0.561876 
        5.26217         7.70247        0.557608 
        5.27788         7.64064        0.553379 
        5.29359         7.58947        0.549193 
        5.30933         7.51642        0.545044 
        5.32504         7.48327        0.540944 
        5.34073         7.42575        0.536892 
        5.35646         7.36143        0.532872 
        5.37218         7.31953        0.528893 
        5.38789         7.25729        0.524961 
        5.40357         7.20881        0.521074 
        5.41929         7.17346        0.517217 
        5.43502         7.11664        0.513399 
         5.4507         7.05879        0.509628 
        5.46639          7.0211        0.505895 
        5.48212         6.96123        0.502191 
        5.49786         6.92282        0.498519 
        5.51353         6.88294        0.494902 
        5.52921         6.80219        0.491317 
        5.54495         6.75982        0.487757 
        5.56066         6.72817        0.484236 
        5.57637         6.68521        0.480751 
        5.59207         6.62658        0.477302 
        5.60778         6.58246        0.473887 
        5.62346         6.53907        0.470509 
        5.63916         6.49421        0.467161 
        5.65487         6.44841        0.463844 
         5.6706         6.41094        0.460556 
        5.68633         6.36443        0.457297 
        5.70203         6.32827        0.454078 
        5.71773         6.27764        0.450889 
        5.73344         6.23852         0.44773 
        5.74916         6.18529        0.444598 
        5.76486         6.15422          0.4415 
        5.78054         6.10182        0.438436 
        5.79626         6.06539        0.435393 
          5.812         6.02288        0.432376 
         5.8277         5.98224        0.429396 
        5.84339         5.94536        0.426444 
        5.85911         5.90056        0.423514 
        5.87484         5.86526        0.420612 
        5.89053         5.82268        0.417743 
        5.90623         5.78709          0.4149 
        5.92195         5.74454        0.412078 
        5.93767         5.71745        0.409284 
        5.95336         5.66692         0.40652 
        5.96905         5.63691        0.403783 
        5.98476         5.60103        0.401067 
        6.00048         5.55786        0.398376 
        6.01617         5.51985        0.395712 
        6.03185         5.49357        0.393076 
        6.04756         5.46099        0.390458 
        6.06331         5.41365        0.387858 
        6.07903         5.37079        0.385287 
        6.09473         5.34249        0.382742 
        6.11044         5.30038        0.380218 
        6.12616         5.27457        0.377716 
        6.14186         5.23902         0.37524 
        6.15755         5.20883        0.372786 
        6.17326         5.17504        0.370352 
        6.18898         5.13889        0.367939 
        6.20467         5.10861        0.365551 
        6.22036         5.07676        0.363185 
         6.2361         5.04726        0.360833 
         6.2518         5.00584        0.358506 
        6.26748         4.98266        0.356204 
        6.28319         4.95149        0.353917 
        6.29893          4.9228        0.351647 
        6.31463         4.89367        0.349402 
        6.33033         4.85081        0.347176 
        6.34604         4.83011        0.344968 
        6.36177         4.79232        0.342778 
        6.37747         4.76423         0.34061 
