# k  (h/Mpc)    Pcb(k)  (Mpc/h)^3    Pcb_linear(k) (Mpc/h)^3   ShotnoiseSubtracted = true
      0.0200456         22506.9         23049.5 
      0.0350414         15966.3         16756.2 
      0.0492313         11903.7         12174.8 
      0.0637834           10316         10120.8 
      0.0800726         8137.41          8032.6 
       0.096163         5638.23         5828.35 
       0.111083         4538.22         4648.84 
       0.126058         4177.04         4119.82 
       0.142273         3617.99         3490.39 
       0.158546         3178.09         2756.68 
        0.17375         2544.19          2322.5 
       0.188953         2489.63         2102.97 
       0.204907         2339.16          1860.7 
       0.220756         2030.08         1574.27 
        0.23588         1817.37         1369.47 
         0.2514         1583.43         1244.15 
       0.267535         1585.25         1125.75 
       0.283568         1437.61         992.757 
       0.299022         1361.45         884.495 
       0.314451         1297.79         808.368 
       0.330372         1190.08         741.587 
       0.346141          1144.1         673.103 
       0.361624          1099.6         611.759 
       0.377134         1024.78         562.915 
       0.392932         982.862         520.854 
       0.408854         966.031         480.127 
       0.424564          892.42          442.54 
       0.440253          876.45         410.285 
       0.455999         847.869         382.239 
       0.471626          817.19         356.465 
        0.48727         783.541         332.355 
       0.502856         761.051         310.695 
       0.518488         754.253         291.369 
       0.534347         707.511         273.403 
       0.550082          690.96         256.837 
       0.565732         686.856         241.682 
       0.581496         649.658         227.801 
       0.597222         636.614         215.071 
       0.612804         625.642         203.366 
       0.628434         608.182         192.455 
       0.644267         592.434         182.255 
       0.660051         575.557         172.854 
       0.675724         569.562         164.173 
       0.691403         550.842         156.081 
       0.707174         532.973         148.488 
       0.722871         526.346         141.431 
        0.73838         516.465         134.908 
       0.754018         505.735         128.748 
       0.769845         496.793         122.905 
        0.78569          487.47         117.419 
       0.801365         475.232         112.324 
       0.817031         462.744         107.535 
       0.832809         458.773         102.996 
       0.848511         448.763         98.7411 
       0.864097         435.104         94.7567 
       0.879701         429.416         90.9896 
       0.895507         427.116         87.3837 
       0.911279         414.943         83.9816 
        0.92691         409.137         80.7897 
       0.942635          398.87         77.7468 
       0.958396         388.929         74.8548 
       0.974128         383.456         72.1159 
       0.989692         381.105         69.5417 
        1.00528         370.157         67.0898 
        1.02113         368.499         64.7182 
        1.03692         357.751         62.4705 
        1.05264         355.494         60.3403 
        1.06832         345.648         58.3132 
        1.08405         341.379         56.3742 
        1.09979         335.739         54.5226 
        1.11537         329.354         52.7728 
        1.13105          324.11         51.0896 
        1.14679         315.876         49.4737 
        1.16256         309.955         47.9247 
        1.17828         309.412         46.4474 
        1.19395          301.61         45.0376 
         1.2097          296.99         43.6794 
        1.22537         290.932         42.3839 
          1.241         288.283         41.1451 
        1.25666         283.435         39.9528 
        1.27241         279.248         38.8024 
        1.28819         274.771         37.6955 
        1.30392         268.612         36.6351 
        1.31957           267.9         35.6204 
        1.33529         262.739         34.6405 
        1.35108         257.084         33.6937 
        1.36674         253.172         32.7892 
         1.3824         251.762         31.9188 
        1.39811         247.324         31.0772 
        1.41389         244.471         30.2628 
        1.42964         241.639          29.479 
        1.44531         237.831          28.727 
        1.46101         233.624         27.9996 
        1.47667         230.879         27.2996 
        1.49229         228.373         26.6255 
        1.50793         222.632         25.9735 
        1.52367         221.417         25.3392 
        1.53953         217.928         24.7218 
        1.55526         213.527           24.13 
        1.57092         211.982         23.5601 
        1.58662         209.495         23.0072 
        1.60235         205.682         22.4711 
        1.61809         203.621         21.9518 
        1.63369         200.665         21.4536 
        1.64941         196.691         20.9673 
        1.66519         195.296         20.4944 
        1.68085         192.444         20.0395 
        1.69652         189.581         19.5982 
        1.71228         185.322         19.1678 
        1.72806         183.712           18.75 
        1.74368         180.976         18.3488 
        1.75933         177.997         17.9586 
        1.77505         176.893          17.578 
        1.79081         174.926         17.2077 
         1.8065         171.604         16.8497 
        1.82218          169.89         16.5022 
        1.83797         168.292         16.1622 
        1.85367         165.446         15.8336 
        1.86928         162.665         15.5162 
        1.88497         160.752         15.2057 
        1.90073         159.081         14.9026 
        1.91647         157.487         14.6081 
        1.93218         155.433         14.3221 
        1.94787         152.006         14.0442 
        1.96363          150.05         13.7727 
        1.97935         149.363         13.5088 
        1.99499         146.728         13.2534 
        2.01064         145.095         13.0042 
         2.0264          143.56         12.7599 
        2.04216         141.576          12.522 
        2.05781         139.965         12.2917 
        2.07353         138.452         12.0663 
        2.08928         136.012         11.8461 
        2.10499         134.801          11.632 
        2.12065         132.405         11.4238 
        2.13633         131.273         11.2206 
        2.15211          128.93          11.021 
        2.16785         127.712         10.8268 
        2.18349         126.568         10.6385 
        2.19916         124.743         10.4543 
        2.21489         123.571         10.2739 
        2.23063         121.288         10.0976 
         2.2463         120.072          9.9262 
        2.26194         118.174         9.75924 
        2.27765         117.171         9.59527 
        2.29341         115.704         9.43465 
        2.30914         114.666         9.27803 
        2.32486         112.834         9.12506 
        2.34061          111.63         8.97529 
        2.35635         110.297         8.82902 
        2.37203         109.059         8.68651 
        2.38768         107.503         8.54745 
        2.40339         106.439         8.41093 
        2.41914         104.948         8.27708 
        2.43483         103.895         8.14661 
         2.4505         102.813         8.01918 
        2.46622         101.652         7.89404 
        2.48195          100.18         7.77156 
        2.49759         98.8806         7.65234 
        2.51328         98.3805         7.53531 
        2.52906         96.8235         7.41998 
        2.54479         95.8891          7.3075 
        2.56049         94.7056         7.19758 
        2.57618         93.6479         7.09001 
        2.59189         92.6592         6.98448 
        2.60758         91.5466         6.88126 
        2.62325         90.3377         6.78025 
        2.63898         89.2047         6.68093 
        2.65468         88.2528          6.5838 
        2.67044         87.5795         6.48818 
        2.68618          86.454         6.39469 
        2.70184         85.9529         6.30342 
        2.71755         84.4533         6.21369 
        2.73329         83.8085         6.12558 
        2.74897         82.8927         6.03947 
        2.76462         81.6795          5.9552 
        2.78034         81.1187         5.87219 
        2.79607         79.6837         5.79068 
        2.81179         78.9575          5.7108 
        2.82749         78.1516         5.63253 
        2.84321         77.4617         5.55563 
        2.85893         76.6076          5.4802 
        2.87462         75.6672         5.40629 
        2.89033         74.6982         5.33368 
        2.90605         73.9241         5.26234 
        2.92176         73.0543         5.19234 
        2.93747         72.6329         5.12365 
        2.95318         71.5253         5.05619 
        2.96891         71.0936         4.98992 
        2.98456         70.3389         4.92512 
        3.00023         69.4156         4.86138 
        3.01596         68.6246         4.79857 
        3.03164         67.9037         4.73705 
        3.04738         67.1255         4.67643 
         3.0631         66.4162         4.61689 
        3.07883         65.9854         4.55839 
        3.09456         65.3298         4.50091 
        3.11026         64.4413          4.4445 
        3.12596         63.7152         4.38907 
        3.14163         63.2632         4.33472 
        3.15734         62.3621         4.28115 
        3.17308         61.6961         4.22837 
        3.18879         61.2849         4.17661 
        3.20447         60.4707          4.1258 
         3.2202         60.0685         4.07568 
         3.2359         59.2458         4.02648 
        3.25157         58.6705         3.97821 
        3.26729         58.2409         3.93058 
        3.28304         57.8113         3.88364 
        3.29877         57.0964         3.83753 
        3.31446         56.1646         3.79226 
        3.33014         55.9834         3.74777 
        3.34585         55.1506         3.70392 
        3.36158         54.7788         3.66071 
        3.37727         54.2905         3.61832 
        3.39294         53.5729         3.57665 
        3.40867         53.1196         3.53547 
        3.42439         52.6828         3.49497 
        3.44008         52.0916         3.45519 
        3.45578         51.5042         3.41599 
        3.47153         51.0304         3.37731 
        3.48724         50.5539          3.3393 
        3.50292         50.2354         3.30197 
        3.51859         49.5857         3.26522 
        3.53431          49.282         3.22892 
        3.55007         48.6527         3.19308 
        3.56577         48.3452         3.15792 
        3.58146         47.7612         3.12331 
        3.59719         47.2792         3.08914 
        3.61292         46.8305         3.05549 
        3.62859         46.3741         3.02247 
        3.64429         45.9175         2.98988 
        3.66003         45.6097         2.95766 
        3.67578         45.0511         2.92593 
        3.69146         44.7078         2.89479 
        3.70712         44.1594         2.86415 
        3.72284          43.783         2.83385 
        3.73853         43.3859         2.80404 
        3.75422         42.8588         2.77464 
        3.76993         42.5004         2.74564 
        3.78564         42.1174         2.71707 
        3.80137          41.749         2.68885 
        3.81707         41.3442          2.6611 
        3.83279         40.9694         2.63371 
        3.84853         40.6958         2.60667 
        3.86424         40.2076         2.58006 
        3.87992         39.9363         2.55386 
        3.89561         39.5863         2.52802 
        3.91134         39.1045         2.50249 
        3.92704         38.7958         2.47733 
        3.94273          38.457         2.45255 
        3.95845         38.2782         2.42806 
        3.97418         37.8629         2.40391 
        3.98988         37.5312         2.38011 
        4.00554         37.1456          2.3567 
        4.02125         36.9261         2.33353 
        4.03698         36.5026         2.31065 
        4.05268         36.2555         2.28812 
        4.06839         35.8959         2.26587 
         4.0841         35.5269         2.24393 
        4.09983         35.2483         2.22225 
        4.11555         34.9583         2.20086 
        4.13124         34.6974         2.17981 
        4.14693         34.3544         2.15902 
        4.16266         34.0749         2.13845 
        4.17839         33.6894         2.11817 
        4.19408         33.4128         2.09819 
        4.20977         33.1163         2.07846 
        4.22551         32.8111         2.05893 
        4.24123         32.6008         2.03968 
        4.25691         32.3146         2.02073 
        4.27259         32.0115         2.00201 
        4.28831         31.7188         1.98349 
        4.30404         31.5108         1.96519 
        4.31974          31.183         1.94715 
        4.33543         30.8626         1.92936 
        4.35116         30.7129         1.91174 
        4.36688         30.4422         1.89435 
        4.38255         30.1547         1.87724 
        4.39825          29.918         1.86031 
        4.41398         29.7353         1.84355 
         4.4297          29.346         1.82701 
        4.44541         29.1782         1.81068 
        4.46111         28.8819         1.79456 
        4.47683         28.6721         1.77863 
        4.49251         28.3701         1.76292 
        4.50819          28.234         1.74741 
         4.5239         28.0004         1.73206 
        4.53962         27.7535         1.71687 
        4.55535         27.5806         1.70186 
        4.57106         27.2693         1.68705 
        4.58678         27.1209         1.67242 
         4.6025         26.7685         1.65795 
        4.61821         26.6435         1.64366 
        4.63391         26.4027         1.62955 
         4.6496         26.1795         1.61562 
        4.66532         25.9735         1.60182 
        4.68103         25.7627          1.5882 
        4.69673         25.5544         1.57474 
        4.71241         25.4346         1.56146 
        4.72811         25.1122          1.5483 
        4.74384          24.989         1.53528 
        4.75955         24.7677         1.52243 
        4.77525         24.5256         1.50974 
        4.79096         24.4011         1.49717 
        4.80669         24.1523         1.48474 
         4.8224         24.0162         1.47246 
        4.83809         23.8298         1.46034 
        4.85379         23.5749         1.44835 
         4.8695         23.4138         1.43648 
        4.88521         23.2051         1.42475 
        4.90093         23.0062         1.41314 
        4.91663           22.84         1.40168 
        4.93234         22.6999         1.39033 
        4.94807         22.5005          1.3791 
        4.96377           22.32         1.36802 
        4.97943         22.1304         1.35708 
        4.99514         22.0079         1.34623 
        5.01086         21.8493         1.33549 
        5.02654         21.6338          1.3249 
        5.04227         21.5169         1.31439 
          5.058         21.3521         1.30399 
        5.07371         21.1715         1.29372 
        5.08942         20.9351         1.28356 
        5.10513          20.861         1.27351 
        5.12084         20.6959         1.26356 
        5.13656         20.5218         1.25372 
        5.15225         20.3459           1.244 
        5.16796         20.2166         1.23437 
        5.18369         20.0242         1.22483 
         5.1994         19.9175         1.21541 
        5.21509         19.7321          1.2061 
        5.23079         19.6266         1.19687 
        5.24649         19.4672         1.18775 
        5.26217          19.354         1.17873 
        5.27788         19.1921         1.16979 
        5.29359         19.0304         1.16094 
        5.30933         18.8302         1.15217 
        5.32504         18.7404          1.1435 
        5.34073         18.6049         1.13493 
        5.35646          18.455         1.12644 
        5.37218         18.3128         1.11803 
        5.38789         18.2007         1.10972 
        5.40357         18.0594          1.1015 
        5.41929         17.9107         1.09334 
        5.43502         17.8044         1.08527 
         5.4507         17.6627          1.0773 
        5.46639         17.5204         1.06941 
        5.48212         17.4337         1.06158 
        5.49786         17.2442         1.05382 
        5.51353         17.1377         1.04617 
        5.52921         17.0339         1.03859 
        5.54495         16.9069         1.03107 
        5.56066         16.7835         1.02363 
        5.57637         16.6386         1.01626 
        5.59207          16.521         1.00897 
        5.60778         16.3786         1.00175 
        5.62346          16.309        0.994609 
        5.63916         16.2023        0.987532 
        5.65487         16.0641         0.98052 
         5.6706         15.9619        0.973568 
        5.68633         15.8435        0.966681 
        5.70203          15.717        0.959874 
        5.71773         15.6245        0.953135 
        5.73344          15.485        0.946456 
        5.74916         15.4025        0.939835 
        5.76486         15.3116        0.933286 
        5.78054         15.1888         0.92681 
        5.79626         15.0695        0.920377 
          5.812         14.9916        0.913999 
         5.8277         14.8658        0.907699 
        5.84339         14.7516         0.90146 
        5.85911         14.6574        0.895266 
        5.87484         14.5345        0.889132 
        5.89053         14.4484        0.883068 
        5.90623         14.3617        0.877057 
        5.92195         14.2525        0.871091 
        5.93767         14.1422        0.865185 
        5.95336         14.0398        0.859343 
        5.96905         13.9633        0.853557 
        5.98476         13.8606        0.847816 
        6.00048         13.7453        0.842126 
        6.01617         13.6741        0.836496 
        6.03185         13.5661        0.830924 
        6.04756         13.4569        0.825389 
        6.06331         13.3894        0.819893 
        6.07903         13.2981        0.814459 
        6.09473         13.1888        0.809078 
        6.11044         13.1113        0.803742 
        6.12616         13.0174        0.798454 
        6.14186         12.9114         0.79322 
        6.15755         12.8202        0.788032 
        6.17326         12.7629        0.782887 
        6.18898         12.6844        0.777785 
        6.20467         12.5921        0.772738 
        6.22036         12.4986        0.767736 
         6.2361         12.4124        0.762765 
         6.2518         12.3248        0.757845 
        6.26748         12.2549         0.75298 
        6.28319         12.1711        0.748145 
        6.29893          12.078        0.743347 
        6.31463         12.0014          0.7386 
        6.33033         11.9199        0.733895 
        6.34604         11.8639        0.729229 
        6.36177         11.7599        0.724598 
        6.37747         11.6959        0.720016 
