# k  (h/Mpc)    Pcb(k)  (Mpc/h)^3    Pcb_linear(k) (Mpc/h)^3   ShotnoiseSubtracted = true
      0.0200456         19193.7           19519 
      0.0350414         14620.8         14189.6 
      0.0492313         10118.4         10309.9 
      0.0637834         8161.88         8570.55 
      0.0800726         6411.05         6802.23 
       0.096163         5123.82         4935.61 
       0.111083          4172.2         3936.77 
       0.126058         3452.46         3488.78 
       0.142273          3013.9         2955.76 
       0.158546         2474.87         2334.43 
        0.17375         2199.58         1966.76 
       0.188953         2073.71         1780.86 
       0.204907          1781.3         1575.69 
       0.220756         1606.77         1333.13 
        0.23588         1433.51         1159.71 
         0.2514         1293.02         1053.58 
       0.267535         1251.41         953.313 
       0.283568         1108.69         840.694 
       0.299022         1058.32         749.015 
       0.314451         1097.16         684.549 
       0.330372         959.126         627.997 
       0.346141         882.374         570.003 
       0.361624         846.664         518.054 
       0.377134         808.211         476.692 
       0.392932          774.45         441.074 
       0.408854         740.135         406.585 
       0.424564         722.449         374.755 
       0.440253         665.301         347.441 
       0.455999         636.516         323.691 
       0.471626         648.345         301.865 
        0.48727          611.73         281.447 
       0.502856         579.168         263.105 
       0.518488         568.446          246.74 
       0.534347         539.816         231.525 
       0.550082         515.961         217.497 
       0.565732          510.49         204.663 
       0.581496         498.728         192.909 
       0.597222         485.835         182.129 
       0.612804         474.785         172.216 
       0.628434         455.266         162.977 
       0.644267         440.562         154.339 
       0.660051         434.977         146.377 
       0.675724         426.425         139.026 
       0.691403         416.334         132.174 
       0.707174         401.533         125.744 
       0.722871         395.388         119.768 
        0.73838         389.134         114.244 
       0.754018         376.627         109.027 
       0.769845         373.643         104.079 
        0.78569         365.661         99.4341 
       0.801365         353.525         95.1188 
       0.817031         350.765         91.0635 
       0.832809         344.821           87.22 
       0.848511         337.614         83.6167 
       0.864097         329.162         80.2427 
       0.879701         327.131         77.0525 
       0.895507         316.298          73.999 
       0.911279          310.16          71.118 
        0.92691         307.507          68.415 
       0.942635         304.521         65.8382 
       0.958396         294.661         63.3892 
       0.974128         291.827         61.0698 
       0.989692         281.184         58.8898 
        1.00528          280.69         56.8136 
        1.02113         276.375         54.8052 
        1.03692         270.713         52.9018 
        1.05264         266.212         51.0979 
        1.06832         263.968         49.3813 
        1.08405         258.636         47.7393 
        1.09979         255.211         46.1712 
        1.11537          249.28         44.6895 
        1.13105          245.57         43.2641 
        1.14679          242.94         41.8957 
        1.16256         240.535          40.584 
        1.17828         236.909          39.333 
        1.19395         230.643         38.1391 
         1.2097         230.578         36.9889 
        1.22537         227.106         35.8919 
          1.241         221.131         34.8428 
        1.25666         219.595         33.8332 
        1.27241         215.767          32.859 
        1.28819         212.593         31.9216 
        1.30392         210.575         31.0237 
        1.31957         204.895         30.1643 
        1.33529         202.139         29.3345 
        1.35108         201.174         28.5328 
        1.36674             196         27.7668 
         1.3824         194.796         27.0297 
        1.39811          192.88          26.317 
        1.41389         187.669         25.6274 
        1.42964         185.674         24.9637 
        1.44531          184.04         24.3268 
        1.46101         180.601         23.7108 
        1.47667         178.809         23.1181 
        1.49229         176.144         22.5473 
        1.50793         173.234         21.9951 
        1.52367         171.462         21.4579 
        1.53953         167.524         20.9351 
        1.55526         166.839          20.434 
        1.57092         165.424         19.9513 
        1.58662         161.079         19.4832 
        1.60235         159.719         19.0292 
        1.61809         157.192         18.5894 
        1.63369         154.597         18.1675 
        1.64941         153.177         17.7557 
        1.66519         151.244         17.3552 
        1.68085         148.611           16.97 
        1.69652         146.862         16.5963 
        1.71228         144.825         16.2318 
        1.72806          143.56          15.878 
        1.74368         141.621         15.5383 
        1.75933         140.403         15.2079 
        1.77505         138.141         14.8855 
        1.79081         135.361          14.572 
         1.8065         133.781         14.2688 
        1.82218         131.703         13.9745 
        1.83797          130.99         13.6866 
        1.85367         129.228         13.4083 
        1.86928         127.624         13.1395 
        1.88497         125.999         12.8766 
        1.90073         124.847         12.6199 
        1.91647         122.639         12.3705 
        1.93218         121.353         12.1284 
        1.94787         119.318         11.8931 
        1.96363         118.652         11.6631 
        1.97935         117.109         11.4397 
        1.99499         116.024         11.2234 
        2.01064         113.385         11.0124 
         2.0264         112.665         10.8055 
        2.04216         110.846          10.604 
        2.05781         109.759         10.4089 
        2.07353         108.262         10.2181 
        2.08928         106.933         10.0316 
        2.10499         105.841          9.8503 
        2.12065         104.803         9.67402 
        2.13633         103.886         9.50191 
        2.15211         102.117         9.33288 
        2.16785          100.73         9.16843 
        2.18349         99.3383         9.00899 
        2.19916          98.384           8.853 
        2.21489         97.5936          8.7002 
        2.23063         95.8007         8.55091 
         2.2463         94.9852         8.40579 
        2.26194         93.9671          8.2644 
        2.27765         92.6037         8.12555 
        2.29341         91.7505         7.98952 
        2.30914         90.5064          7.8569 
        2.32486         88.9174         7.72736 
        2.34061         88.4827         7.60053 
        2.35635         87.2062         7.47666 
        2.37203         85.8587         7.35598 
        2.38768         85.0465         7.23822 
        2.40339         84.5633         7.12261 
        2.41914         82.9267         7.00926 
        2.43483         82.2847         6.89878 
         2.4505         81.2771         6.79087 
        2.46622         80.4221         6.68489 
        2.48195          79.462         6.58118 
        2.49759         78.4723         6.48021 
        2.51328         77.6347         6.38111 
        2.52906         76.1751         6.28345 
        2.54479         75.6446          6.1882 
        2.56049         74.5822         6.09511 
        2.57618         73.7067         6.00402 
        2.59189         73.3153         5.91465 
        2.60758         71.8213         5.82724 
        2.62325         71.4839         5.74171 
        2.63898         70.6831          5.6576 
        2.65468         69.8682         5.57534 
        2.67044         68.9587         5.49438 
        2.68618         68.3706          5.4152 
        2.70184          67.339         5.33791 
        2.71755         66.6494         5.26193 
        2.73329         65.7069         5.18732 
        2.74897         65.3165         5.11439 
        2.76462         64.5369         5.04303 
        2.78034         63.7102         4.97273 
        2.79607          63.102         4.90371 
        2.81179         62.5063         4.83607 
        2.82749         61.9184         4.76978 
        2.84321         61.2488         4.70467 
        2.85893         60.5536         4.64079 
        2.87462         59.8524          4.5782 
        2.89033         59.2235         4.51671 
        2.90605          58.652          4.4563 
        2.92176         57.9466         4.39702 
        2.93747          57.344         4.33885 
        2.95318         56.6977         4.28173 
        2.96891         56.0675          4.2256 
        2.98456         55.4784         4.17073 
        3.00023         54.8528         4.11676 
        3.01596         54.3787         4.06357 
        3.03164         53.7971         4.01147 
        3.04738         53.2782         3.96014 
         3.0631          52.389         3.90972 
        3.07883         51.9397         3.86017 
        3.09456         51.3902         3.81149 
        3.11026         50.8583         3.76373 
        3.12596         50.4588         3.71679 
        3.14163          49.751         3.67076 
        3.15734         49.2767          3.6254 
        3.17308         48.7692          3.5807 
        3.18879         48.2691         3.53687 
        3.20447         47.9478         3.49385 
         3.2202         47.2058          3.4514 
         3.2359         46.7879         3.40974 
        3.25157          46.471         3.36886 
        3.26729         45.8396         3.32853 
        3.28304          45.492         3.28878 
        3.29877         44.9051         3.24973 
        3.31446         44.5498          3.2114 
        3.33014         44.1182         3.17372 
        3.34585         43.5347         3.13659 
        3.36158         43.1399         3.09999 
        3.37727         42.7646          3.0641 
        3.39294         42.3804          3.0288 
        3.40867         41.9918         2.99394 
        3.42439         41.5081         2.95964 
        3.44008         41.0193         2.92595 
        3.45578         40.6745         2.89275 
        3.47153         40.2123            2.86 
        3.48724         39.7687         2.82782 
        3.50292         39.4333          2.7962 
        3.51859         39.1234         2.76508 
        3.53431         38.6492         2.73434 
        3.55007         38.2623         2.70399 
        3.56577         38.0847         2.67422 
        3.58146         37.5695         2.64491 
        3.59719         37.2346         2.61597 
        3.61292         36.8987         2.58748 
        3.62859         36.5992         2.55951 
        3.64429         36.2947         2.53191 
        3.66003         35.9284         2.50463 
        3.67578         35.6465         2.47776 
        3.69146         35.3096         2.45139 
        3.70712         34.8876         2.42545 
        3.72284           34.57         2.39978 
        3.73853         34.3707         2.37454 
        3.75422         33.9927         2.34964 
        3.76993         33.6909         2.32509 
        3.78564         33.4404         2.30089 
        3.80137         33.0347           2.277 
        3.81707         32.7751         2.25349 
        3.83279         32.4081          2.2303 
        3.84853         32.0967          2.2074 
        3.86424          31.804         2.18487 
        3.87992         31.6041         2.16268 
        3.89561         31.3485          2.1408 
        3.91134         31.0523         2.11917 
        3.92704         30.7124         2.09788 
        3.94273         30.4706         2.07689 
        3.95845         30.1945         2.05615 
        3.97418         29.8373         2.03569 
        3.98988         29.5759         2.01554 
        4.00554         29.2931         1.99572 
        4.02125         29.1264          1.9761 
        4.03698         28.7587         1.95672 
        4.05268         28.5402         1.93764 
        4.06839         28.2617          1.9188 
         4.0841         28.0914         1.90022 
        4.09983         27.7388         1.88186 
        4.11555         27.4243         1.86375 
        4.13124         27.3547         1.84593 
        4.14693         27.1064         1.82832 
        4.16266         26.7986          1.8109 
        4.17839         26.6529         1.79372 
        4.19408         26.3376          1.7768 
        4.20977         26.1049          1.7601 
        4.22551         25.9225         1.74356 
        4.24123         25.7073         1.72726 
        4.25691         25.4688         1.71121 
        4.27259         25.3075         1.69536 
        4.28831          25.049         1.67967 
        4.30404         24.8572         1.66417 
        4.31974         24.5797          1.6489 
        4.33543         24.4256         1.63383 
        4.35116         24.2124         1.61891 
        4.36688         24.0439         1.60419 
        4.38255         23.8294          1.5897 
        4.39825         23.5697         1.57536 
        4.41398         23.4208         1.56117 
         4.4297         23.2061         1.54716 
        4.44541         23.0331         1.53333 
        4.46111         22.8254         1.51969 
        4.47683         22.6121         1.50619 
        4.49251         22.4382         1.49289 
        4.50819         22.2606         1.47975 
         4.5239         22.0969         1.46675 
        4.53962          21.903          1.4539 
        4.55535         21.6851         1.44118 
        4.57106         21.5126         1.42864 
        4.58678         21.3692         1.41625 
         4.6025         21.1289           1.404 
        4.61821         21.0131          1.3919 
        4.63391         20.7864         1.37995 
         4.6496          20.683         1.36815 
        4.66532          20.491         1.35647 
        4.68103         20.2635         1.34493 
        4.69673         20.2112         1.33354 
        4.71241         20.0711         1.32229 
        4.72811         19.8548         1.31115 
        4.74384         19.6718         1.30012 
        4.75955         19.5659         1.28924 
        4.77525         19.3913         1.27849 
        4.79096         19.2403         1.26785 
        4.80669         19.0692         1.25732 
         4.8224         18.9138         1.24692 
        4.83809         18.7833         1.23666 
        4.85379         18.6378          1.2265 
         4.8695         18.4678         1.21645 
        4.88521         18.3149         1.20652 
        4.90093         18.1922         1.19669 
        4.91663         18.0405         1.18698 
        4.93234         17.8569         1.17737 
        4.94807         17.7374         1.16786 
        4.96377         17.6309         1.15848 
        4.97943         17.4577         1.14921 
        4.99514         17.3322         1.14003 
        5.01086         17.1857         1.13093 
        5.02654         17.0927         1.12196 
        5.04227         16.9225         1.11306 
          5.058         16.7893         1.10425 
        5.07371         16.7058         1.09556 
        5.08942         16.5614         1.08696 
        5.10513         16.4414         1.07844 
        5.12084         16.3233         1.07002 
        5.13656         16.1707         1.06169 
        5.15225         16.0576         1.05346 
        5.16796         15.9235          1.0453 
        5.18369         15.8188         1.03722 
         5.1994          15.734         1.02924 
        5.21509         15.6011         1.02136 
        5.23079         15.4841         1.01354 
        5.24649         15.3776         1.00582 
        5.26217         15.2328         0.99818 
        5.27788         15.1191        0.990609 
        5.29359         15.0182        0.983115 
        5.30933         14.9038        0.975688 
        5.32504         14.7745        0.968349 
        5.34073         14.7128        0.961095 
        5.35646         14.5773          0.9539 
        5.37218         14.4516        0.946777 
        5.38789         14.3846        0.939738 
        5.40357         14.2535        0.932779 
        5.41929         14.1488        0.925875 
        5.43502         14.0389         0.91904 
         5.4507         13.9689        0.912291 
        5.46639         13.8546        0.905608 
        5.48212          13.731        0.898976 
        5.49786         13.6305        0.892403 
        5.51353         13.5254        0.885928 
        5.52921         13.4462        0.879511 
        5.54495         13.3461        0.873138 
        5.56066         13.2718        0.866835 
        5.57637         13.1611        0.860596 
        5.59207         13.0582        0.854423 
        5.60778         12.9612        0.848309 
        5.62346         12.9132        0.842263 
        5.63916         12.7975         0.83627 
        5.65487         12.6829        0.830332 
         5.6706         12.6111        0.824445 
        5.68633         12.5282        0.818612 
        5.70203          12.423        0.812849 
        5.71773         12.3491        0.807141 
        5.73344         12.2681        0.801485 
        5.74916         12.1785        0.795879 
        5.76486         12.0899        0.790333 
        5.78054          12.012        0.784849 
        5.79626         11.9204        0.779401 
          5.812         11.8471           0.774 
         5.8277         11.7587        0.768665 
        5.84339         11.6582        0.763381 
        5.85911         11.5944        0.758137 
        5.87484         11.5136        0.752942 
        5.89053         11.4146        0.747806 
        5.90623         11.3426        0.742716 
        5.92195         11.2612        0.737665 
        5.93767         11.1827        0.732663 
        5.95336           11.13        0.727716 
        5.96905         11.0401        0.722816 
        5.98476         10.9641        0.717954 
        6.00048         10.8873        0.713136 
        6.01617          10.811        0.708368 
        6.03185         10.7473         0.70365 
        6.04756         10.6661        0.698963 
        6.06331         10.5922        0.694309 
        6.07903         10.5252        0.689706 
        6.09473         10.4642         0.68515 
        6.11044         10.3855        0.680631 
        6.12616         10.3117        0.676154 
        6.14186         10.2435        0.671721 
        6.15755         10.1858        0.667328 
        6.17326         10.1013        0.662971 
        6.18898         10.0383         0.65865 
        6.20467          9.9761        0.654376 
        6.22036         9.89331         0.65014 
         6.2361         9.85421         0.64593 
         6.2518         9.78835        0.641765 
        6.26748         9.70983        0.637645 
        6.28319         9.66417         0.63355 
        6.29893         9.59625        0.629487 
        6.31463          9.5256        0.625467 
        6.33033         9.46325        0.621483 
        6.34604         9.41579        0.617531 
        6.36177         9.33477         0.61361 
        6.37747          9.2805         0.60973 
