# k  (h/Mpc)    Pcb(k)  (Mpc/h)^3    Pcb_linear(k) (Mpc/h)^3   ShotnoiseSubtracted = true
      0.0200456         23096.4         23658.9 
      0.0350414           16375         17199.2 
      0.0492313         12210.2         12496.6 
      0.0637834         10587.9         10388.3 
      0.0800726         8350.67         8244.96 
       0.096163         5784.63         5982.43 
       0.111083         4659.54         4771.74 
       0.126058         4287.44         4228.74 
       0.142273         3714.02         3582.67 
       0.158546         3269.37         2829.56 
        0.17375         2618.36          2383.9 
       0.188953         2563.11         2158.57 
       0.204907         2408.01         1909.89 
       0.220756          2091.3         1615.88 
        0.23588         1873.97         1405.68 
         0.2514         1633.55         1277.05 
       0.267535         1636.31         1155.51 
       0.283568         1484.07            1019 
       0.299022         1406.33         907.878 
       0.314451          1340.5         829.739 
       0.330372         1228.72         761.192 
       0.346141         1184.74         690.898 
       0.361624          1138.7         627.932 
       0.377134         1061.82         577.796 
       0.392932         1017.78         534.623 
       0.408854         1001.43          492.82 
       0.424564         924.381         454.239 
       0.440253         907.585         421.132 
       0.455999         880.055         392.344 
       0.471626         848.472         365.889 
        0.48727         813.644         341.141 
       0.502856         789.758         318.909 
       0.518488          783.43         299.072 
       0.534347         735.182         280.631 
       0.550082          718.96         263.627 
       0.565732         713.917         248.071 
       0.581496             676         233.824 
       0.597222         661.966         220.757 
       0.612804          651.27         208.742 
       0.628434          633.31         197.543 
       0.644267         616.975         187.073 
       0.660051         600.103         177.423 
       0.675724         593.521         168.513 
       0.691403         574.295         160.207 
       0.707174         555.739         152.414 
       0.722871          548.46          145.17 
        0.73838         538.094         138.475 
       0.754018         527.516         132.151 
       0.769845         518.423         126.154 
        0.78569         508.558         120.524 
       0.801365         495.757         115.293 
       0.817031         483.387         110.378 
       0.832809         478.921         105.719 
       0.848511         468.568         101.351 
       0.864097         454.088         97.2618 
       0.879701         448.113          93.395 
       0.895507         446.105         89.6938 
       0.911279         433.824         86.2018 
        0.92691         427.688         82.9255 
       0.942635         416.713         79.8022 
       0.958396         406.356         76.8338 
       0.974128         400.941         74.0224 
       0.989692         398.638         71.3801 
        1.00528         386.769         68.8635 
        1.02113         385.012         66.4292 
        1.03692         374.098         64.1221 
        1.05264         371.378         61.9356 
        1.06832          361.18         59.8548 
        1.08405         356.841         57.8646 
        1.09979         351.194          55.964 
        1.11537         344.445         54.1679 
        1.13105         339.152         52.4403 
        1.14679         330.115         50.7816 
        1.16256         323.819         49.1917 
        1.17828         323.517         47.6754 
        1.19395         315.546         46.2283 
         1.2097          309.96         44.8341 
        1.22537          303.93         43.5044 
          1.241         300.681         42.2328 
        1.25666         296.155         41.0091 
        1.27241         291.565         39.8282 
        1.28819         286.715          38.692 
        1.30392         280.579         37.6036 
        1.31957         279.328         36.5621 
        1.33529         274.432         35.5563 
        1.35108         268.549         34.5845 
        1.36674          264.09          33.656 
         1.3824         262.484         32.7626 
        1.39811         257.812         31.8988 
        1.41389         254.972         31.0628 
        1.42964           251.9         30.2584 
        1.44531         248.059         29.4864 
        1.46101         243.383         28.7398 
        1.47667         240.636         28.0213 
        1.49229         237.918         27.3294 
        1.50793         231.918         26.6602 
        1.52367         230.757         26.0091 
        1.53953         226.956         25.3754 
        1.55526         222.802         24.7679 
        1.57092         220.932         24.1829 
        1.58662         218.406         23.6155 
        1.60235         214.425         23.0652 
        1.61809         212.056         22.5322 
        1.63369           209.3         22.0208 
        1.64941         205.184         21.5216 
        1.66519         203.541         21.0362 
        1.68085         200.665         20.5692 
        1.69652         197.697         20.1163 
        1.71228         193.047         19.6745 
        1.72806         191.306         19.2456 
        1.74368         188.452         18.8339 
        1.75933         185.533         18.4334 
        1.77505         184.287         18.0427 
        1.79081         182.142         17.6626 
         1.8065         178.549         17.2951 
        1.82218         176.852         16.9385 
        1.83797         175.337         16.5894 
        1.85367         172.319         16.2522 
        1.86928         169.415         15.9264 
        1.88497         167.413         15.6077 
        1.90073         165.463         15.2966 
        1.91647         164.109         14.9943 
        1.93218         161.723         14.7007 
        1.94787         158.038         14.4155 
        1.96363         156.116         14.1368 
        1.97935          155.27          13.866 
        1.99499         152.802         13.6038 
        2.01064         150.926          13.348 
         2.0264         149.491         13.0972 
        2.04216         147.362          12.853 
        2.05781         145.477         12.6166 
        2.07353         143.993         12.3853 
        2.08928         141.508         12.1593 
        2.10499         140.233         11.9395 
        2.12065         137.811         11.7258 
        2.13633         136.304         11.5172 
        2.15211         134.144         11.3123 
        2.16785         132.939          11.113 
        2.18349         131.661         10.9198 
        2.19916         129.699         10.7307 
        2.21489         128.564         10.5455 
        2.23063         126.253         10.3645 
         2.2463         124.861         10.1886 
        2.26194         122.931         10.0172 
        2.27765         121.858         9.84894 
        2.29341         120.419         9.68407 
        2.30914         119.216         9.52331 
        2.32486         117.325          9.3663 
        2.34061         116.044         9.21257 
        2.35635         114.624         9.06243 
        2.37203         113.468         8.91616 
        2.38768         111.717         8.77342 
        2.40339         110.635         8.63329 
        2.41914         109.117          8.4959 
        2.43483         107.953         8.36198 
         2.4505          106.83         8.23118 
        2.46622         105.615         8.10273 
        2.48195         104.012         7.97702 
        2.49759         102.809         7.85464 
        2.51328         102.145         7.73451 
        2.52906          100.64         7.61614 
        2.54479         99.6415         7.50069 
        2.56049          98.315         7.38786 
        2.57618         97.3598         7.27744 
        2.59189         96.3665         7.16912 
        2.60758         95.1462         7.06318 
        2.62325         93.7616          6.9595 
        2.63898         92.6621         6.85755 
        2.65468          91.672         6.75785 
        2.67044         90.9962         6.65971 
        2.68618         89.8727         6.56375 
        2.70184         89.2121         6.47006 
        2.71755         87.6573         6.37796 
        2.73329         86.9931         6.28752 
        2.74897          86.069         6.19913 
        2.76462         84.8811         6.11263 
        2.78034         84.1753         6.02743 
        2.79607         82.7929         5.94376 
        2.81179         82.0521         5.86178 
        2.82749         81.2288         5.78143 
        2.84321         80.3681         5.70251 
        2.85893         79.5522         5.62508 
        2.87462         78.6295         5.54922 
        2.89033          77.619         5.47469 
        2.90605         76.7863         5.40146 
        2.92176         75.8448         5.32961 
        2.93747         75.3665         5.25911 
        2.95318         74.2634         5.18986 
        2.96891         73.7868         5.12183 
        2.98456         72.9931         5.05533 
        3.00023         72.1056          4.9899 
        3.01596         71.1781         4.92543 
        3.03164         70.5713         4.86229 
        3.04738         69.6274         4.80006 
         3.0631         68.9085         4.73895 
        3.07883         68.4876          4.6789 
        3.09456         67.9058          4.6199 
        3.11026          66.943           4.562 
        3.12596         66.1473         4.50511 
        3.14163         65.7458         4.44931 
        3.15734         64.7174         4.39433 
        3.17308         64.0862         4.34015 
        3.18879         63.6046         4.28703 
        3.20447         62.8252         4.23488 
         3.2202         62.3425         4.18343 
         3.2359         61.5182         4.13293 
        3.25157         60.9669         4.08338 
        3.26729          60.448         4.03449 
        3.28304         59.9707         3.98631 
        3.29877         59.2688         3.93898 
        3.31446         58.3497         3.89252 
        3.33014         58.1184         3.84685 
        3.34585         57.2674         3.80184 
        3.36158         56.8904         3.75749 
        3.37727         56.4203         3.71398 
        3.39294          55.561          3.6712 
        3.40867         55.1559         3.62894 
        3.42439         54.6965         3.58737 
        3.44008         54.0595         3.54653 
        3.45578         53.4789          3.5063 
        3.47153         52.9691          3.4666 
        3.48724         52.5425         3.42758 
        3.50292         52.1522         3.38926 
        3.51859         51.4999         3.35154 
        3.53431         51.1887         3.31428 
        3.55007         50.5712         3.27749 
        3.56577           50.22         3.24141 
        3.58146         49.6496         3.20588 
        3.59719         49.0593         3.17081 
        3.61292         48.6484         3.13627 
        3.62859         48.1449         3.10238 
        3.64429         47.6718         3.06892 
        3.66003         47.3637         3.03585 
        3.67578         46.8401         3.00328 
        3.69146         46.3863         2.97132 
        3.70712         45.8606         2.93987 
        3.72284         45.5043         2.90877 
        3.73853         45.0525         2.87817 
        3.75422          44.555         2.84799 
        3.76993         44.1008         2.81823 
        3.78564         43.7553          2.7889 
        3.80137          43.359         2.75994 
        3.81707         42.8997         2.73145 
        3.83279         42.5176         2.70334 
        3.84853         42.2766         2.67558 
        3.86424         41.7427         2.64827 
        3.87992         41.3851         2.62137 
        3.89561         41.0697         2.59485 
        3.91134            40.6         2.56864 
        3.92704         40.2053         2.54283 
        3.94273         39.8705         2.51739 
        3.95845         39.6583         2.49225 
        3.97418         39.2631         2.46746 
        3.98988         38.9326         2.44303 
        4.00554         38.5336           2.419 
        4.02125         38.2593         2.39523 
        4.03698         37.8201         2.37173 
        4.05268         37.5749         2.34861 
        4.06839         37.2001         2.32577 
         4.0841         36.8493         2.30325 
        4.09983         36.5745           2.281 
        4.11555         36.2614         2.25904 
        4.13124         35.9857         2.23744 
        4.14693         35.6553          2.2161 
        4.16266          35.348         2.19499 
        4.17839         34.9486         2.17416 
        4.19408         34.6566         2.15366 
        4.20977         34.4009          2.1334 
        4.22551         34.0794         2.11337 
        4.24123         33.8257          2.0936 
        4.25691         33.5268         2.07415 
        4.27259         33.2035         2.05493 
        4.28831         32.9174         2.03593 
        4.30404         32.6711         2.01714 
        4.31974         32.3867         1.99863 
        4.33543          32.016         1.98036 
        4.35116          31.867         1.96228 
        4.36688         31.5571         1.94443 
        4.38255         31.2801         1.92687 
        4.39825         31.0702         1.90949 
        4.41398         30.8395         1.89228 
         4.4297         30.4873         1.87531 
        4.44541         30.3032         1.85855 
        4.46111         29.9734           1.842 
        4.47683         29.7505         1.82565 
        4.49251         29.4659         1.80953 
        4.50819         29.2859          1.7936 
         4.5239         29.0762         1.77785 
        4.53962         28.7945         1.76226 
        4.55535            28.6         1.74685 
        4.57106          28.322         1.73165 
        4.58678         28.1656         1.71663 
         4.6025         27.8102         1.70178 
        4.61821         27.6772         1.68711 
        4.63391         27.4171         1.67263 
         4.6496         27.1748         1.65833 
        4.66532         26.9697         1.64417 
        4.68103         26.7528         1.63018 
        4.69673          26.538         1.61637 
        4.71241         26.4039         1.60274 
        4.72811         26.0987         1.58924 
        4.74384         25.9762         1.57587 
        4.75955         25.6859         1.56268 
        4.77525         25.5032         1.54965 
        4.79096         25.3305         1.53675 
        4.80669         25.0745         1.52399 
         4.8224          24.914         1.51139 
        4.83809         24.7608         1.49895 
        4.85379         24.5204         1.48664 
         4.8695         24.3026         1.47445 
        4.88521         24.1002         1.46241 
        4.90093         23.8943          1.4505 
        4.91663         23.6994         1.43874 
        4.93234         23.5204         1.42709 
        4.94807         23.4068         1.41556 
        4.96377         23.1905         1.40419 
        4.97943         22.9501         1.39296 
        4.99514         22.8426         1.38182 
        5.01086         22.6757          1.3708 
        5.02654          22.466         1.35993 
        5.04227         22.3177         1.34914 
          5.058         22.1677         1.33846 
        5.07371         21.9861         1.32792 
        5.08942         21.7472         1.31749 
        5.10513         21.6547         1.30718 
        5.12084         21.5029         1.29697 
        5.13656         21.3449         1.28687 
        5.15225         21.1433         1.27689 
        5.16796         20.9848           1.267 
        5.18369         20.7895         1.25721 
         5.1994         20.6619         1.24754 
        5.21509         20.5138         1.23798 
        5.23079         20.3655         1.22851 
        5.24649         20.2497         1.21915 
        5.26217         20.0805         1.20989 
        5.27788         19.9464         1.20071 
        5.29359          19.783         1.19163 
        5.30933          19.553         1.18263 
        5.32504         19.4664         1.17373 
        5.34073         19.3338         1.16494 
        5.35646         19.1834         1.15622 
        5.37218          19.027         1.14758 
        5.38789         18.9046         1.13905 
        5.40357          18.776         1.13062 
        5.41929         18.5774         1.12225 
        5.43502         18.5157         1.11396 
         5.4507         18.3235         1.10578 
        5.46639         18.2059         1.09768 
        5.48212         18.1004         1.08965 
        5.49786         17.9288         1.08168 
        5.51353         17.8015         1.07383 
        5.52921         17.6939         1.06605 
        5.54495         17.5604         1.05833 
        5.56066         17.4344         1.05069 
        5.57637         17.2945         1.04312 
        5.59207         17.1631         1.03564 
        5.60778         17.0056         1.02823 
        5.62346         16.9263          1.0209 
        5.63916          16.828         1.01364 
        5.65487         16.7082         1.00644 
         5.6706         16.5806        0.999306 
        5.68633         16.4637        0.992237 
        5.70203         16.3101         0.98525 
        5.71773           16.25        0.978332 
        5.73344         16.0994        0.971477 
        5.74916         16.0017        0.964681 
        5.76486          15.906        0.957959 
        5.78054         15.7766        0.951312 
        5.79626         15.6424        0.944709 
          5.812         15.5844        0.938162 
         5.8277         15.4207        0.931696 
        5.84339          15.326        0.925291 
        5.85911         15.2499        0.918934 
        5.87484         15.1111        0.912638 
        5.89053         15.0019        0.906413 
        5.90623         14.9265        0.900243 
        5.92195         14.8148         0.89412 
        5.93767         14.6981        0.888058 
        5.95336         14.6065        0.882061 
        5.96905         14.5068        0.876122 
        5.98476          14.409        0.870229 
        6.00048         14.2933        0.864389 
        6.01617         14.2269         0.85861 
        6.03185         14.0943        0.852891 
        6.04756          13.997         0.84721 
        6.06331         13.9206        0.841568 
        6.07903         13.8252         0.83599 
        6.09473          13.727        0.830468 
        6.11044         13.6181         0.82499 
        6.12616         13.5321        0.819563 
        6.14186         13.4083         0.81419 
        6.15755         13.3349        0.808865 
        6.17326         13.2672        0.803584 
        6.18898           13.19        0.798347 
        6.20467         13.0956        0.793167 
        6.22036         13.0024        0.788032 
         6.2361         12.9063         0.78293 
         6.2518         12.8208         0.77788 
        6.26748         12.7353        0.772887 
        6.28319         12.6514        0.767923 
        6.29893         12.5572        0.762999 
        6.31463         12.4803        0.758126 
        6.33033         12.4225        0.753297 
        6.34604         12.3303        0.748507 
        6.36177         12.2272        0.743754 
        6.37747         12.1659        0.739051 
