# k  (h/Mpc)    Pcb(k)  (Mpc/h)^3    Pcb_linear(k) (Mpc/h)^3   ShotnoiseSubtracted = true
      0.0200456         3612.48         3659.87 
      0.0350414         2708.77         2660.61 
      0.0492313         1933.86         1933.15 
      0.0637834         1577.17         1607.01 
      0.0800726         1246.98         1275.44 
       0.096163          947.57         925.444 
       0.111083         764.312         738.158 
       0.126058         650.129         654.158 
       0.142273         551.953         554.216 
       0.158546         447.753         437.714 
        0.17375         384.938         368.774 
       0.188953           348.2         333.916 
       0.204907         296.932         295.448 
       0.220756         262.445         249.967 
        0.23588         230.129         217.449 
         0.2514         207.604         197.551 
       0.267535         194.371         178.749 
       0.283568         170.129         157.633 
       0.299022         157.043         140.443 
       0.314451         149.538         128.355 
       0.330372         132.228         117.751 
       0.346141         121.398         106.877 
       0.361624         112.537         97.1369 
       0.377134         102.799         89.3813 
       0.392932         99.7737         82.7028 
       0.408854         92.2499          76.236 
       0.424564         87.9219         70.2678 
       0.440253         80.0607         65.1464 
       0.455999         73.6008         60.6931 
       0.471626         70.2056         56.6006 
        0.48727         68.2084         52.7723 
       0.502856         63.1833         49.3331 
       0.518488         60.0667         46.2645 
       0.534347         56.6672         43.4118 
       0.550082         54.6284         40.7814 
       0.565732         52.7484          38.375 
       0.581496         49.1605          36.171 
       0.597222         46.9546         34.1497 
       0.612804         45.0867         32.2911 
       0.628434         44.1955         30.5587 
       0.644267           41.78          28.939 
       0.660051         39.9313         27.4462 
       0.675724         38.3101         26.0679 
       0.691403         37.6521          24.783 
       0.707174         36.2554         23.5775 
       0.722871         35.0591         22.4569 
        0.73838         33.3882         21.4212 
       0.754018         31.6823          20.443 
       0.769845         31.1158         19.5152 
        0.78569         30.0238         18.6442 
       0.801365         29.0983         17.8351 
       0.817031         27.9757         17.0747 
       0.832809          27.391          16.354 
       0.848511         26.4847         15.6784 
       0.864097         25.7573         15.0458 
       0.879701         25.3302         14.4476 
       0.895507         24.3673          13.875 
       0.911279         23.4982         13.3349 
        0.92691         23.1042          12.828 
       0.942635         22.5877         12.3449 
       0.958396         21.9522         11.8857 
       0.974128         21.3677         11.4508 
       0.989692         20.4936          11.042 
        1.00528         20.3509         10.6527 
        1.02113         19.7238         10.2762 
        1.03692           19.32         9.91926 
        1.05264         18.9299         9.58103 
        1.06832         18.5636         9.25915 
        1.08405         18.0245         8.95127 
        1.09979         17.6865         8.65726 
        1.11537         17.1857         8.37942 
        1.13105         16.9375         8.11217 
        1.14679         16.5134         7.85558 
        1.16256         16.2302         7.60963 
        1.17828         15.9298         7.37507 
        1.19395          15.678         7.15121 
         1.2097         15.2502         6.93555 
        1.22537         14.9977         6.72985 
          1.241         14.6669         6.53314 
        1.25666         14.5199         6.34383 
        1.27241          14.245         6.16117 
        1.28819         13.6894         5.98541 
        1.30392         13.7931         5.81704 
        1.31957         13.4043         5.65592 
        1.33529         13.2133         5.50033 
        1.35108         13.0181         5.34999 
        1.36674         12.7241         5.20637 
         1.3824         12.5305         5.06816 
        1.39811         12.3213         4.93453 
        1.41389         12.1222         4.80522 
        1.42964         11.9532         4.68077 
        1.44531          11.764         4.56135 
        1.46101         11.6081         4.44586 
        1.47667         11.4069         4.33472 
        1.49229         11.1435         4.22769 
        1.50793         11.0507         4.12416 
        1.52367         10.9044         4.02343 
        1.53953         10.7074         3.92541 
        1.55526         10.5385         3.83144 
        1.57092         10.4715         3.74094 
        1.58662         10.2833         3.65316 
        1.60235         10.1564         3.56803 
        1.61809         10.0224         3.48558 
        1.63369         9.83056         3.40647 
        1.64941         9.71366         3.32926 
        1.66519         9.58779         3.25416 
        1.68085         9.41889         3.18193 
        1.69652         9.38484         3.11186 
        1.71228         9.24937         3.04352 
        1.72806         9.08382         2.97718 
        1.74368         8.99568         2.91348 
        1.75933         8.90149         2.85152 
        1.77505         8.74593         2.79108 
        1.79081         8.66643         2.73229 
         1.8065         8.61295         2.67545 
        1.82218         8.49316         2.62027 
        1.83797         8.35966         2.56628 
        1.85367         8.26967         2.51411 
        1.86928         8.16775          2.4637 
        1.88497         8.09041         2.41441 
        1.90073         7.97209         2.36628 
        1.91647         7.79749         2.31951 
        1.93218         7.78713         2.27411 
        1.94787         7.66076         2.22999 
        1.96363         7.60171         2.18687 
        1.97935         7.56294         2.14497 
        1.99499         7.45094         2.10442 
        2.01064         7.36024         2.06485 
         2.0264         7.28161         2.02606 
        2.04216         7.26059         1.98828 
        2.05781         7.16478         1.95171 
        2.07353         7.06704         1.91592 
        2.08928         6.95578         1.88096 
        2.10499         6.90463         1.84696 
        2.12065         6.89268         1.81391 
        2.13633         6.79128         1.78164 
        2.15211         6.71891         1.74995 
        2.16785         6.61123         1.71911 
        2.18349         6.61322         1.68922 
        2.19916         6.52097         1.65997 
        2.21489         6.46611         1.63132 
        2.23063         6.40832         1.60332 
         2.2463         6.31621         1.57611 
        2.26194         6.25008          1.5496 
        2.27765         6.19371         1.52357 
        2.29341         6.10277         1.49806 
        2.30914         6.10899         1.47319 
        2.32486         6.01875         1.44891 
        2.34061         5.98173         1.42512 
        2.35635         5.91135          1.4019 
        2.37203         5.87305         1.37927 
        2.38768         5.82053         1.35719 
        2.40339          5.7622         1.33551 
        2.41914         5.72403         1.31426 
        2.43483          5.6719         1.29354 
         2.4505         5.60336         1.27331 
        2.46622         5.54709         1.25344 
        2.48195         5.54575         1.23399 
        2.49759         5.43831         1.21506 
        2.51328          5.4222         1.19648 
        2.52906         5.35721         1.17817 
        2.54479         5.31844         1.16031 
        2.56049          5.2791         1.14285 
        2.57618         5.24148         1.12577 
        2.59189         5.23696         1.10902 
        2.60758         5.15834         1.09263 
        2.62325         5.08479         1.07659 
        2.63898         5.09501         1.06082 
        2.65468         5.02617          1.0454 
        2.67044         4.99226         1.03021 
        2.68618         4.94555         1.01537 
        2.70184         4.93079         1.00088 
        2.71755         4.86228         0.98663 
        2.73329         4.82499        0.972639 
        2.74897         4.79923        0.958965 
        2.76462         4.75738        0.945585 
        2.78034          4.7251        0.932404 
        2.79607         4.67968        0.919461 
        2.81179         4.64704        0.906779 
        2.82749         4.59566         0.89435 
        2.84321         4.57857        0.882141 
        2.85893         4.53972        0.870163 
        2.87462         4.51341        0.858428 
        2.89033         4.48455        0.846898 
        2.90605         4.44465        0.835571 
        2.92176         4.38992        0.824456 
        2.93747         4.37295         0.81355 
        2.95318         4.33111        0.802838 
        2.96891         4.31307        0.792314 
        2.98456           4.275        0.782026 
        3.00023         4.25784        0.771905 
        3.01596         4.20468        0.761932 
        3.03164         4.17829        0.752164 
        3.04738         4.16256        0.742538 
         3.0631         4.13943        0.733085 
        3.07883         4.09698        0.723795 
        3.09456         4.05209        0.714668 
        3.11026         4.04268        0.705712 
        3.12596         4.01418        0.696911 
        3.14163          3.9825         0.68828 
        3.15734         3.95324        0.679775 
        3.17308         3.92836        0.671393 
        3.18879           3.909        0.663176 
        3.20447         3.88087        0.655108 
         3.2202         3.84411        0.647149 
         3.2359         3.81836        0.639337 
        3.25157         3.80379        0.631672 
        3.26729         3.77585         0.62411 
        3.28304           3.741        0.616656 
        3.29877          3.7227        0.609334 
        3.31446         3.70531        0.602147 
        3.33014         3.66567        0.595083 
        3.34585         3.65775         0.58812 
        3.36158         3.62296        0.581259 
        3.37727         3.60476        0.574528 
        3.39294         3.58166        0.567911 
        3.40867         3.56193        0.561373 
        3.42439         3.51506        0.554943 
        3.44008         3.50822        0.548625 
        3.45578         3.48488        0.542401 
        3.47153         3.46111         0.53626 
        3.48724         3.44675        0.530225 
        3.50292         3.42048        0.524297 
        3.51859         3.39472        0.518462 
        3.53431         3.37483        0.512697 
        3.55007         3.36174        0.507007 
        3.56577         3.32651        0.501425 
        3.58146         3.31588        0.495929 
        3.59719         3.29915        0.490503 
        3.61292         3.27326        0.485161 
        3.62859         3.26133        0.479918 
        3.64429         3.22742        0.474742 
        3.66003         3.22106        0.469627 
        3.67578         3.19772        0.464589 
        3.69146         3.17059        0.459643 
        3.70712         3.15909        0.454779 
        3.72284         3.13763        0.449967 
        3.73853          3.1192        0.445234 
        3.75422         3.09238        0.440566 
        3.76993         3.07834        0.435961 
        3.78564         3.05973        0.431424 
        3.80137         3.03992        0.426944 
        3.81707         3.02832        0.422537 
        3.83279         3.00148        0.418189 
        3.84853         2.98433        0.413895 
        3.86424         2.96603         0.40967 
        3.87992         2.94924        0.405509 
        3.89561          2.9319        0.401407 
        3.91134         2.91248        0.397352 
        3.92704         2.89142        0.393359 
        3.94273         2.87484        0.389424 
        3.95845         2.85942        0.385535 
        3.97418         2.84732        0.381699 
        3.98988         2.82711        0.377921 
        4.00554         2.80914        0.374204 
        4.02125         2.78388        0.370526 
        4.03698         2.77336        0.366892 
        4.05268         2.75484        0.363314 
        4.06839         2.73902        0.359782 
         4.0841         2.72165        0.356298 
        4.09983         2.70278        0.352855 
        4.11555         2.68679        0.349459 
        4.13124         2.67253        0.346117 
        4.14693         2.65431        0.342816 
        4.16266         2.64282         0.33955 
        4.17839         2.62043        0.336329 
        4.19408         2.60596        0.333157 
        4.20977         2.59173        0.330024 
        4.22551         2.57303        0.326924 
        4.24123         2.55951        0.323867 
        4.25691         2.54599        0.320857 
        4.27259         2.52774        0.317885 
        4.28831         2.50665        0.314944 
        4.30404         2.50446        0.312038 
        4.31974         2.48898        0.309175 
        4.33543           2.461        0.306349 
        4.35116         2.45538        0.303552 
        4.36688         2.44108        0.300791 
        4.38255         2.42376        0.298074 
        4.39825         2.41048        0.295385 
        4.41398         2.40285        0.292724 
         4.4297         2.38269        0.290098 
        4.44541         2.36723        0.287505 
        4.46111         2.35651        0.284946 
        4.47683         2.34477        0.282416 
        4.49251         2.33103        0.279922 
        4.50819         2.31565        0.277459 
         4.5239         2.30777        0.275021 
        4.53962         2.29291         0.27261 
        4.55535         2.27834        0.270227 
        4.57106         2.26616        0.267875 
        4.58678         2.24932        0.265551 
         4.6025         2.24002        0.263254 
        4.61821         2.23301        0.260985 
        4.63391         2.21704        0.258745 
         4.6496         2.20819        0.256533 
        4.66532         2.19483        0.254343 
        4.68103         2.17932        0.252179 
        4.69673         2.16843        0.250043 
        4.71241         2.15879        0.247933 
        4.72811         2.14874        0.245844 
        4.74384         2.14046        0.243777 
        4.75955           2.125        0.241737 
        4.77525         2.11254        0.239721 
        4.79096         2.10273        0.237725 
        4.80669         2.09386        0.235752 
         4.8224         2.08152        0.233803 
        4.83809         2.07106        0.231878 
        4.85379         2.06361        0.229973 
         4.8695         2.05121        0.228088 
        4.88521         2.04106        0.226226 
        4.90093         2.03572        0.224383 
        4.91663         2.01932        0.222563 
        4.93234         2.01395        0.220761 
        4.94807         2.00565        0.218978 
        4.96377         1.98788        0.217218 
        4.97943         1.98233        0.215481 
        4.99514         1.96871        0.213759 
        5.01086         1.95981        0.212054 
        5.02654          1.9512        0.210372 
        5.04227         1.94415        0.208703 
          5.058         1.93576        0.207051 
        5.07371         1.92852        0.205421 
        5.08942         1.91925        0.203808 
        5.10513         1.90739        0.202212 
        5.12084         1.89344        0.200632 
        5.13656         1.88772         0.19907 
        5.15225         1.87626        0.197526 
        5.16796         1.86897        0.195997 
        5.18369         1.86131        0.194483 
         5.1994         1.85278        0.192987 
        5.21509          1.8468        0.191508 
        5.23079         1.83829        0.190043 
        5.24649         1.83185        0.188594 
        5.26217         1.82187        0.187162 
        5.27788         1.80993        0.185742 
        5.29359         1.80498        0.184337 
        5.30933         1.79854        0.182945 
        5.32504         1.79137        0.181569 
        5.34073          1.7775        0.180208 
        5.35646         1.77018        0.178859 
        5.37218         1.76729        0.177524 
        5.38789         1.75379        0.176204 
        5.40357           1.749        0.174899 
        5.41929         1.74042        0.173605 
        5.43502         1.73528        0.172323 
         5.4507         1.72339        0.171058 
        5.46639         1.71803        0.169804 
        5.48212         1.71202        0.168561 
        5.49786         1.70291        0.167328 
        5.51353         1.69728        0.166114 
        5.52921         1.68709        0.164911 
        5.54495         1.68465        0.163716 
        5.56066         1.67291        0.162535 
        5.57637         1.66204        0.161365 
        5.59207           1.659        0.160207 
        5.60778         1.65719        0.159061 
        5.62346         1.64227        0.157927 
        5.63916         1.63935        0.156803 
        5.65487         1.63183         0.15569 
         5.6706          1.6263        0.154586 
        5.68633         1.61655        0.153493 
        5.70203         1.61257        0.152412 
        5.71773         1.60414        0.151342 
        5.73344         1.60014        0.150281 
        5.74916         1.59481         0.14923 
        5.76486         1.58483         0.14819 
        5.78054         1.57787        0.147162 
        5.79626         1.57573         0.14614 
          5.812         1.56534        0.145128 
         5.8277         1.56018        0.144127 
        5.84339          1.5535        0.143137 
        5.85911          1.5486        0.142153 
        5.87484         1.53915        0.141179 
        5.89053         1.53649        0.140216 
        5.90623         1.53306        0.139262 
        5.92195         1.52409        0.138315 
        5.93767         1.51686        0.137377 
        5.95336         1.51538        0.136449 
        5.96905          1.5035         0.13553 
        5.98476         1.49982        0.134619 
        6.00048         1.49466        0.133715 
        6.01617          1.4883        0.132821 
        6.03185         1.48227        0.131937 
        6.04756         1.47838        0.131058 
        6.06331         1.47229        0.130185 
        6.07903         1.46652        0.129322 
        6.09473         1.46053        0.128468 
        6.11044         1.45444        0.127621 
        6.12616         1.44648        0.126781 
        6.14186          1.4425         0.12595 
        6.15755         1.43901        0.125126 
        6.17326         1.43374        0.124309 
        6.18898         1.42883        0.123499 
        6.20467         1.42514        0.122698 
        6.22036         1.41915        0.121903 
         6.2361         1.41424        0.121114 
         6.2518         1.40928        0.120333 
        6.26748         1.40302        0.119561 
        6.28319         1.39664        0.118793 
        6.29893         1.39088        0.118031 
        6.31463         1.38718        0.117277 
        6.33033         1.38062         0.11653 
        6.34604         1.37806        0.115789 
        6.36177         1.37042        0.115054 
        6.37747         1.36769        0.114326 
