# k  (h/Mpc)    Pcb(k)  (Mpc/h)^3    Pcb_linear(k) (Mpc/h)^3   ShotnoiseSubtracted = true
      0.0200456           22803         23355.5 
      0.0350414         16171.6         16978.7 
      0.0492313         12057.7         12336.4 
      0.0637834         10452.5         10255.1 
      0.0800726         8244.52         8139.24 
       0.096163         5711.76         5905.73 
       0.111083         4599.12         4710.56 
       0.126058         4232.47         4174.52 
       0.142273         3666.21         3536.73 
       0.158546         3223.89         2793.28 
        0.17375         2581.38         2353.34 
       0.188953         2526.48         2130.89 
       0.204907         2373.69          1885.4 
       0.220756         2060.78         1595.17 
        0.23588         1845.74         1387.66 
         0.2514         1608.53         1260.67 
       0.267535         1610.84         1140.69 
       0.283568         1460.88         1005.94 
       0.299022         1383.92         896.237 
       0.314451         1319.19           819.1 
       0.330372         1209.45         751.433 
       0.346141         1164.45          682.04 
       0.361624         1119.18         619.881 
       0.377134         1043.32         570.388 
       0.392932         1000.34         527.769 
       0.408854          983.76         486.501 
       0.424564         908.423         448.415 
       0.440253         892.039         415.732 
       0.455999         863.973         387.314 
       0.471626         832.852         361.198 
        0.48727         798.604         336.767 
       0.502856         775.429          314.82 
       0.518488         768.846         295.238 
       0.534347         721.355         277.033 
       0.550082         704.962         260.247 
       0.565732         700.401          244.89 
       0.581496         662.832         230.826 
       0.597222         649.297         217.927 
       0.612804         638.459         206.066 
       0.628434         620.751          195.01 
       0.644267         604.708         184.675 
       0.660051          587.82         175.149 
       0.675724         581.535         166.352 
       0.691403         562.553         158.153 
       0.707174         544.343          150.46 
       0.722871         537.402         143.309 
        0.73838         527.267           136.7 
       0.754018         516.616         130.457 
       0.769845         507.602         124.536 
        0.78569         497.986         118.978 
       0.801365         485.479         113.815 
       0.817031         473.039         108.962 
       0.832809         468.827         104.364 
       0.848511         458.649         100.052 
       0.864097         444.573         96.0148 
       0.879701         438.744         92.1976 
       0.895507         436.593         88.5438 
       0.911279         424.361         85.0966 
        0.92691         418.385         81.8623 
       0.942635         407.766          78.779 
       0.958396         397.604         75.8486 
       0.974128         392.156         73.0734 
       0.989692         389.837         70.4649 
        1.00528         378.426         67.9805 
        1.02113         376.726         65.5774 
        1.03692         365.872         63.2999 
        1.05264         363.404         61.1414 
        1.06832         353.369         59.0874 
        1.08405         349.073         57.1226 
        1.09979         343.433         55.2464 
        1.11537         336.846         53.4734 
        1.13105         331.588         51.7679 
        1.14679         322.942         50.1305 
        1.16256         316.833          48.561 
        1.17828         316.425         47.0641 
        1.19395         308.527         45.6356 
         1.2097          303.43         44.2593 
        1.22537          297.38         42.9466 
          1.241         294.438         41.6913 
        1.25666         289.747         40.4833 
        1.27241         285.363         39.3176 
        1.28819         280.706         38.1959 
        1.30392         274.552         37.1215 
        1.31957         273.583         36.0933 
        1.33529         268.536         35.1004 
        1.35108         262.779          34.141 
        1.36674         258.577         33.2245 
         1.3824         257.085         32.3425 
        1.39811         252.526         31.4898 
        1.41389         249.692         30.6646 
        1.42964         246.745         29.8704 
        1.44531         242.907         29.1083 
        1.46101         238.476         28.3713 
        1.47667         235.743         27.6621 
        1.49229         233.124          26.979 
        1.50793         227.248         26.3183 
        1.52367         226.065         25.6756 
        1.53953         222.425           25.05 
        1.55526          218.14         24.4504 
        1.57092         216.435         23.8729 
        1.58662          213.93         23.3127 
        1.60235         210.031         22.7695 
        1.61809         207.818         22.2433 
        1.63369         204.965         21.7384 
        1.64941         200.922         21.2457 
        1.66519         199.397         20.7665 
        1.68085         196.529         20.3055 
        1.69652         193.616         19.8584 
        1.71228         189.162         19.4223 
        1.72806         187.496         18.9989 
        1.74368         184.692         18.5924 
        1.75933         181.737          18.197 
        1.77505         180.575         17.8113 
        1.79081         178.518         17.4361 
         1.8065         175.059         17.0734 
        1.82218         173.365         16.7213 
        1.83797         171.792         16.3767 
        1.85367         168.859         16.0438 
        1.86928         166.023         15.7222 
        1.88497          164.06         15.4076 
        1.90073         162.251         15.1005 
        1.91647         160.779          14.802 
        1.93218         158.565         14.5123 
        1.94787         154.993         14.2307 
        1.96363         153.053         13.9555 
        1.97935         152.311         13.6882 
        1.99499         149.745         13.4294 
        2.01064          147.99         13.1769 
         2.0264         146.507         12.9293 
        2.04216          144.45         12.6882 
        2.05781         142.703         12.4548 
        2.07353         141.202         12.2265 
        2.08928         138.749         12.0034 
        2.10499         137.499         11.7864 
        2.12065         135.081         11.5755 
        2.13633         133.767         11.3696 
        2.15211         131.518         11.1673 
        2.16785          130.31         10.9705 
        2.18349         129.102         10.7797 
        2.19916         127.198         10.5931 
        2.21489         126.055         10.4103 
        2.23063         123.751         10.2316 
         2.2463          122.45          10.058 
        2.26194         120.538         9.88881 
        2.27765         119.499         9.72266 
        2.29341         118.039          9.5599 
        2.30914         116.925         9.40121 
        2.32486         115.057         9.24621 
        2.34061         113.818         9.09445 
        2.35635         112.445         8.94623 
        2.37203         111.249         8.80184 
        2.38768          109.59         8.66093 
        2.40339         108.521          8.5226 
        2.41914         107.011         8.38697 
        2.43483         105.905         8.25477 
         2.4505         104.806         8.12565 
        2.46622          103.62         7.99884 
        2.48195         102.084         7.87474 
        2.49759         100.831         7.75393 
        2.51328         100.247         7.63535 
        2.52906         98.7207         7.51849 
        2.54479         97.7524         7.40452 
        2.56049         96.5059         7.29313 
        2.57618          95.493         7.18414 
        2.59189         94.4978          7.0772 
        2.60758         93.3239         6.97262 
        2.62325          92.033         6.87027 
        2.63898         90.9224         6.76962 
        2.65468          89.951         6.67121 
        2.67044         89.2801         6.57432 
        2.68618         88.1477         6.47959 
        2.70184         87.5745          6.3871 
        2.71755         86.0411         6.29619 
        2.73329         85.3914         6.20691 
        2.74897         84.4738         6.11965 
        2.76462         83.2647         6.03426 
        2.78034         82.6446         5.95015 
        2.79607         81.2317         5.86755 
        2.81179         80.4973         5.78662 
        2.82749         79.6857         5.70731 
        2.84321         78.9144         5.62939 
        2.85893         78.0779         5.55295 
        2.87462         77.1475         5.47807 
        2.89033         76.1562         5.40449 
        2.90605         75.3501          5.3322 
        2.92176          74.448         5.26128 
        2.93747          74.006         5.19168 
        2.95318         72.8905         5.12332 
        2.96891         72.4421         5.05616 
        2.98456         71.6724         4.99051 
        3.00023         70.7679         4.92592 
        3.01596         69.9058         4.86228 
        3.03164         69.2449         4.79994 
        3.04738          68.378         4.73852 
         3.0631         67.6632         4.67819 
        3.07883         67.2495         4.61891 
        3.09456         66.6255         4.56066 
        3.11026         65.6976         4.50351 
        3.12596          64.938         4.44734 
        3.14163         64.5109         4.39227 
        3.15734         63.5407         4.33799 
        3.17308         62.8966          4.2845 
        3.18879         62.4477         4.23206 
        3.20447         61.6582         4.18058 
         3.2202         61.2134         4.12979 
         3.2359         60.3879         4.07994 
        3.25157         59.8236         4.03102 
        3.26729          59.353         3.98276 
        3.28304         58.9012          3.9352 
        3.29877         58.1941         3.88848 
        3.31446         57.2665         3.84261 
        3.33014         57.0709         3.79753 
        3.34585         56.2141          3.7531 
        3.36158         55.8479         3.70931 
        3.37727         55.3656         3.66636 
        3.39294         54.5689         3.62413 
        3.40867         54.1459         3.58241 
        3.42439         53.6998         3.54137 
        3.44008         53.0824         3.50106 
        3.45578         52.5009         3.46134 
        3.47153         52.0067         3.42215 
        3.48724         51.5553         3.38364 
        3.50292         51.1989          3.3458 
        3.51859         50.5502         3.30857 
        3.53431         50.2435         3.27178 
        3.55007         49.6173         3.23547 
        3.56577          49.287         3.19985 
        3.58146         48.7127         3.16478 
        3.59719         48.1727         3.13015 
        3.61292         47.7493         3.09606 
        3.62859         47.2668          3.0626 
        3.64429         46.7953         3.02957 
        3.66003         46.4915         2.99693 
        3.67578         45.9523         2.96478 
        3.69146         45.5561         2.93322 
        3.70712         45.0139         2.90218 
        3.72284         44.6497         2.87147 
        3.73853         44.2227         2.84126 
        3.75422         43.7098         2.81148 
        3.76993         43.3032         2.78209 
        3.78564         42.9379         2.75314 
        3.80137         42.5564         2.72455 
        3.81707         42.1239         2.69643 
        3.83279         41.7384         2.66868 
        3.84853         41.4907         2.64128 
        3.86424         40.9714         2.61431 
        3.87992         40.6653         2.58776 
        3.89561         40.3317         2.56158 
        3.91134         39.8513         2.53571 
        3.92704         39.4987         2.51022 
        3.94273         39.1714         2.48511 
        3.95845         38.9759          2.4603 
        3.97418         38.5697         2.43582 
        3.98988         38.2383         2.41171 
        4.00554         37.8397         2.38799 
        4.02125         37.6041         2.36451 
        4.03698         37.1692         2.34132 
        4.05268         36.9267          2.3185 
        4.06839         36.5606         2.29595 
         4.0841         36.1985         2.27372 
        4.09983         35.9213         2.25175 
        4.11555         35.6209         2.23008 
        4.13124         35.3538         2.20875 
        4.14693         35.0137         2.18768 
        4.16266         34.7223         2.16684 
        4.17839         34.3296         2.14629 
        4.19408         34.0459         2.12604 
        4.20977         33.7704         2.10605 
        4.22551         33.4539         2.08627 
        4.24123         33.2207         2.06676 
        4.25691         32.9268         2.04756 
        4.27259         32.6131         2.02859 
        4.28831          32.325         2.00982 
        4.30404         32.0961         1.99128 
        4.31974         31.7915           1.973 
        4.33543         31.4446         1.95497 
        4.35116         31.2953         1.93712 
        4.36688         31.0088          1.9195 
        4.38255         30.7261         1.90216 
        4.39825          30.504           1.885 
        4.41398         30.2971         1.86802 
         4.4297         29.9239         1.85127 
        4.44541         29.7506         1.83472 
        4.46111         29.4336         1.81839 
        4.47683         29.2157         1.80224 
        4.49251         28.9199         1.78633 
        4.50819         28.7618         1.77061 
         4.5239         28.5443         1.75505 
        4.53962         28.2804         1.73967 
        4.55535          28.098         1.72446 
        4.57106            27.8         1.70945 
        4.58678         27.6523         1.69462 
         4.6025         27.2927         1.67996 
        4.61821         27.1652         1.66548 
        4.63391         26.9151         1.65119 
         4.6496         26.6767         1.63707 
        4.66532         26.4752         1.62309 
        4.68103         26.2606         1.60928 
        4.69673          26.047         1.59565 
        4.71241         25.9261         1.58219 
        4.72811         25.6042         1.56886 
        4.74384         25.4859         1.55567 
        4.75955         25.2263         1.54265 
        4.77525         25.0125         1.52978 
        4.79096         24.8684         1.51705 
        4.80669         24.6129         1.50445 
         4.8224         24.4677         1.49201 
        4.83809         24.2997         1.47973 
        4.85379         24.0474         1.46758 
         4.8695         23.8561         1.45555 
        4.88521         23.6495         1.44366 
        4.90093         23.4499         1.43191 
        4.91663         23.2666         1.42029 
        4.93234         23.1115         1.40879 
        4.94807         22.9563         1.39741 
        4.96377         22.7526         1.38618 
        4.97943         22.5347          1.3751 
        4.99514         22.4282          1.3641 
        5.01086         22.2612         1.35322 
        5.02654         22.0512         1.34249 
        5.04227         21.9171         1.33184 
          5.058         21.7634          1.3213 
        5.07371         21.5804          1.3109 
        5.08942         21.3409          1.3006 
        5.10513         21.2602         1.29042 
        5.12084          21.099         1.28034 
        5.13656         20.9348         1.27037 
        5.15225         20.7441         1.26052 
        5.16796         20.6006         1.25076 
        5.18369         20.4074         1.24109 
         5.1994         20.2917         1.23155 
        5.21509         20.1251         1.22211 
        5.23079         19.9976         1.21276 
        5.24649         19.8596         1.20352 
        5.26217         19.7178         1.19438 
        5.27788         19.5706         1.18532 
        5.29359         19.4088         1.17635 
        5.30933         19.1916         1.16746 
        5.32504         19.1028         1.15868 
        5.34073         18.9678            1.15 
        5.35646         18.8197         1.14139 
        5.37218         18.6694         1.13287 
        5.38789         18.5545         1.12445 
        5.40357         18.4165         1.11612 
        5.41929         18.2447         1.10786 
        5.43502         18.1623         1.09968 
         5.4507         17.9942         1.09161 
        5.46639         17.8638         1.08361 
        5.48212         17.7711         1.07567 
        5.49786          17.588         1.06781 
        5.51353         17.4705         1.06006 
        5.52921         17.3677         1.05238 
        5.54495         17.2353         1.04476 
        5.56066         17.1101         1.03722 
        5.57637         16.9669         1.02975 
        5.59207         16.8422         1.02236 
        5.60778         16.6914         1.01505 
        5.62346         16.6184         1.00781 
        5.63916         16.5182         1.00064 
        5.65487         16.3859        0.993538 
         5.6706         16.2722        0.986493 
        5.68633         16.1549        0.979515 
        5.70203         16.0126        0.972618 
        5.71773         15.9376        0.965789 
        5.73344         15.7906        0.959021 
        5.74916         15.7047        0.952312 
        5.76486         15.6099        0.945677 
        5.78054         15.4823        0.939115 
        5.79626         15.3555        0.932596 
          5.812          15.289        0.926133 
         5.8277         15.1426         0.91975 
        5.84339         15.0395        0.913428 
        5.85911         14.9555        0.907152 
        5.87484         14.8225        0.900936 
        5.89053         14.7259        0.894791 
        5.90623         14.6468        0.888701 
        5.92195         14.5338        0.882656 
        5.93767         14.4182        0.876671 
        5.95336         14.3229        0.870752 
        5.96905         14.2345        0.864889 
        5.98476         14.1371        0.859072 
        6.00048         14.0167        0.853306 
        6.01617         13.9505        0.847601 
        6.03185         13.8267        0.841955 
        6.04756         13.7232        0.836347 
        6.06331         13.6543        0.830778 
        6.07903         13.5591        0.825272 
        6.09473         13.4562         0.81982 
        6.11044         13.3604        0.814413 
        6.12616         13.2726        0.809055 
        6.14186         13.1566        0.803751 
        6.15755          13.074        0.798494 
        6.17326         13.0146        0.793281 
        6.18898         12.9347        0.788111 
        6.20467         12.8402        0.782997 
        6.22036         12.7505        0.777929 
         6.2361         12.6585        0.772891 
         6.2518         12.5695        0.767907 
        6.26748         12.4906        0.762977 
        6.28319         12.4051        0.758077 
        6.29893         12.3137        0.753216 
        6.31463         12.2396        0.748406 
        6.33033         12.1646        0.743639 
        6.34604         12.0923         0.73891 
        6.36177         11.9867        0.734218 
        6.37747         11.9282        0.729575 
