# k  (h/Mpc)    Pcb(k)  (Mpc/h)^3    Pcb_linear(k) (Mpc/h)^3   ShotnoiseSubtracted = true
      0.0200456         15165.5         15406.4 
      0.0350414         11519.1         11199.9 
      0.0492313         8025.54         8137.63 
      0.0637834         6482.74         6764.74 
      0.0800726         5099.79         5369.01 
       0.096163         4037.34         3895.68 
       0.111083         3284.77          3107.3 
       0.126058          2726.8          2753.7 
       0.142273         2365.61         2332.99 
       0.158546         1943.33         1842.57 
        0.17375         1712.43         1552.37 
       0.188953         1599.97         1405.63 
       0.204907         1370.41          1243.7 
       0.220756          1231.9         1052.24 
        0.23588         1097.24          915.36 
         0.2514         984.713         831.595 
       0.267535         955.465         752.451 
       0.283568         839.795         663.561 
       0.299022         802.015         591.198 
       0.314451         821.811         540.315 
       0.330372         709.543         495.679 
       0.346141          655.49         449.904 
       0.361624         627.848         408.901 
       0.377134         593.867         376.253 
       0.392932         572.778          348.14 
       0.408854          545.82         320.918 
       0.424564          529.99         295.794 
       0.440253         483.083         274.236 
       0.455999          462.77          255.49 
       0.471626         469.001         238.262 
        0.48727         443.342         222.147 
       0.502856         411.968         207.669 
       0.518488         410.652         194.752 
       0.534347          384.24         182.743 
       0.550082         370.026         171.671 
       0.565732         367.681         161.541 
       0.581496         355.066         152.263 
       0.597222         344.853         143.754 
       0.612804         336.432          135.93 
       0.628434         323.255         128.638 
       0.644267         310.446          121.82 
       0.660051         306.084         115.536 
       0.675724         301.547         109.733 
       0.691403         294.069         104.325 
       0.707174          283.03           99.25 
       0.722871         278.742         94.5331 
        0.73838         275.633         90.1732 
       0.754018         264.024         86.0553 
       0.769845         263.141         82.1498 
        0.78569         256.878         78.4835 
       0.801365         249.742         75.0774 
       0.817031         245.564         71.8765 
       0.832809         241.387         68.8429 
       0.848511         235.231         65.9988 
       0.864097         229.694         63.3356 
       0.879701         228.648         60.8176 
       0.895507         222.947         58.4075 
       0.911279         216.713         56.1335 
        0.92691         214.334              54 
       0.942635         212.635         51.9661 
       0.958396         207.302         50.0332 
       0.974128         203.913         48.2025 
       0.989692         197.212         46.4818 
        1.00528         196.633          44.843 
        1.02113         193.206         43.2578 
        1.03692         189.157         41.7555 
        1.05264         186.265         40.3316 
        1.06832         185.636         38.9767 
        1.08405         180.407         37.6807 
        1.09979         179.304          36.443 
        1.11537         175.711         35.2734 
        1.13105         172.923         34.1484 
        1.14679         171.022         33.0683 
        1.16256         168.365          32.033 
        1.17828         166.493         31.0456 
        1.19395         162.175         30.1033 
         1.2097         161.365         29.1954 
        1.22537         159.918         28.3295 
          1.241         156.176         27.5015 
        1.25666         153.963         26.7046 
        1.27241         150.415         25.9356 
        1.28819           149.3         25.1958 
        1.30392         147.136          24.487 
        1.31957         143.889         23.8088 
        1.33529         142.422         23.1538 
        1.35108         140.634          22.521 
        1.36674         138.224         21.9164 
         1.3824         137.624         21.3346 
        1.39811         134.296         20.7721 
        1.41389          132.76         20.2277 
        1.42964         130.585         19.7039 
        1.44531          129.37         19.2012 
        1.46101         126.662          18.715 
        1.47667         126.514         18.2471 
        1.49229         124.575         17.7966 
        1.50793         122.259         17.3608 
        1.52367          120.71         16.9368 
        1.53953         118.917         16.5241 
        1.55526         118.153         16.1286 
        1.57092         116.587         15.7476 
        1.58662         114.629         15.3781 
        1.60235         112.977         15.0197 
        1.61809          112.14         14.6727 
        1.63369         110.085         14.3396 
        1.64941         109.721         14.0146 
        1.66519         107.783         13.6985 
        1.68085         105.994         13.3944 
        1.69652         104.911         13.0995 
        1.71228         103.964         12.8118 
        1.72806         102.642         12.5325 
        1.74368         100.883         12.2644 
        1.75933         100.199         12.0036 
        1.77505         98.5218         11.7491 
        1.79081         97.2855         11.5017 
         1.8065         95.8365         11.2624 
        1.82218         94.7894         11.0301 
        1.83797          94.437         10.8028 
        1.85367         92.3306         10.5832 
        1.86928         92.0094          10.371 
        1.88497         90.5863         10.1635 
        1.90073         89.8339         9.96094 
        1.91647         88.1724         9.76406 
        1.93218         87.1221         9.57293 
        1.94787         86.0582         9.38721 
        1.96363         85.1886         9.20568 
        1.97935         84.4595         9.02934 
        1.99499         83.5743         8.85862 
        2.01064         81.7916         8.69207 
         2.0264         81.1466         8.52876 
        2.04216         79.8398         8.36973 
        2.05781         79.2801         8.21577 
        2.07353          78.293         8.06514 
        2.08928         77.2264         7.91796 
        2.10499         76.2287         7.77485 
        2.12065         75.8611         7.63571 
        2.13633         74.9371         7.49986 
        2.15211         73.6713         7.36645 
        2.16785         72.5494         7.23665 
        2.18349          71.811          7.1108 
        2.19916         71.0576         6.98769 
        2.21489         70.0646         6.86708 
        2.23063         69.2592         6.74924 
         2.2463          68.773          6.6347 
        2.26194         67.8776          6.5231 
        2.27765         67.0497          6.4135 
        2.29341         66.2697         6.30614 
        2.30914         65.5059         6.20146 
        2.32486         64.1787         6.09921 
        2.34061         63.8962          5.9991 
        2.35635         63.1725         5.90134 
        2.37203         62.2863         5.80609 
        2.38768          61.729         5.71314 
        2.40339         61.0011         5.62189 
        2.41914         60.0937         5.53242 
        2.43483          59.732         5.44522 
         2.4505         58.9527         5.36004 
        2.46622         58.4924         5.27639 
        2.48195         57.6248         5.19453 
        2.49759         57.0697         5.11484 
        2.51328         56.5191         5.03662 
        2.52906         55.7986         4.95953 
        2.54479         55.1336         4.88435 
        2.56049         54.3772         4.81088 
        2.57618          53.812         4.73898 
        2.59189         53.4385         4.66844 
        2.60758         52.6469         4.59945 
        2.62325         52.2191         4.53194 
        2.63898         51.6215         4.46555 
        2.65468         51.0762         4.40063 
        2.67044         50.5434         4.33672 
        2.68618         50.1156         4.27423 
        2.70184          49.283         4.21322 
        2.71755         48.7763         4.15325 
        2.73329         48.4273         4.09435 
        2.74897          48.045         4.03679 
        2.76462          47.429         3.98047 
        2.78034         46.8568         3.92498 
        2.79607         46.1999          3.8705 
        2.81179         45.8288         3.81711 
        2.82749          45.423          3.7648 
        2.84321          45.047          3.7134 
        2.85893         44.4282         3.66298 
        2.87462          43.717         3.61358 
        2.89033         43.4548         3.56504 
        2.90605         42.8934         3.51736 
        2.92176         42.5689         3.47057 
        2.93747         42.1194         3.42466 
        2.95318         41.7567         3.37957 
        2.96891         41.2319         3.33527 
        2.98456         40.8889         3.29196 
        3.00023         40.3458         3.24936 
        3.01596         40.0741         3.20738 
        3.03164         39.5579         3.16626 
        3.04738         39.1167         3.12574 
         3.0631         38.9487         3.08594 
        3.07883         38.4706         3.04684 
        3.09456         37.9905         3.00842 
        3.11026         37.5365         2.97072 
        3.12596         37.1784         2.93367 
        3.14163         36.8373         2.89733 
        3.15734         36.5436         2.86153 
        3.17308         36.2486         2.82625 
        3.18879         35.7681         2.79166 
        3.20447         35.2778          2.7577 
         3.2202         35.0119         2.72419 
         3.2359           34.78         2.69131 
        3.25157         34.3255         2.65904 
        3.26729         34.0764         2.62721 
        3.28304          33.774         2.59583 
        3.29877         33.2485         2.56501 
        3.31446         33.0692         2.53476 
        3.33014         32.5822         2.50502 
        3.34585         32.3177         2.47571 
        3.36158         31.9833         2.44683 
        3.37727         31.7077         2.41849 
        3.39294         31.4441         2.39064 
        3.40867         31.1566         2.36312 
        3.42439         30.8594         2.33605 
        3.44008         30.5637         2.30945 
        3.45578         30.2538         2.28325 
        3.47153         30.0258          2.2574 
        3.48724         29.6576           2.232 
        3.50292         29.4572         2.20704 
        3.51859         29.0933         2.18248 
        3.53431         28.8166         2.15822 
        3.55007         28.4607         2.13426 
        3.56577         28.2018         2.11076 
        3.58146         27.9859         2.08763 
        3.59719         27.7463         2.06479 
        3.61292         27.5553          2.0423 
        3.62859         27.2089         2.02023 
        3.64429         26.9036         1.99844 
        3.66003         26.7239         1.97691 
        3.67578         26.4631          1.9557 
        3.69146         26.3261         1.93488 
        3.70712         25.9645         1.91441 
        3.72284         25.8067         1.89415 
        3.73853         25.5637         1.87422 
        3.75422         25.3084         1.85458 
        3.76993         25.0361         1.83519 
        3.78564         24.8129         1.81609 
        3.80137         24.5786         1.79724 
        3.81707         24.3686         1.77868 
        3.83279         24.1186         1.76038 
        3.84853         23.9778          1.7423 
        3.86424         23.6125         1.72452 
        3.87992         23.4422           1.707 
        3.89561         23.3319         1.68973 
        3.91134         23.0322         1.67267 
        3.92704         22.8382         1.65586 
        3.94273         22.6075         1.63929 
        3.95845         22.4724         1.62292 
        3.97418         22.2823         1.60678 
        3.98988         22.0313         1.59087 
        4.00554         21.8111         1.57522 
        4.02125         21.6201         1.55974 
        4.03698         21.4733         1.54444 
        4.05268         21.2736         1.52938 
        4.06839         21.0982         1.51451 
         4.0841         20.9357         1.49985 
        4.09983         20.7053         1.48535 
        4.11555         20.5273         1.47106 
        4.13124         20.4195         1.45699 
        4.14693         20.2312         1.44309 
        4.16266         20.0143         1.42935 
        4.17839         19.8759         1.41579 
        4.19408         19.6411         1.40243 
        4.20977          19.543         1.38925 
        4.22551         19.3434          1.3762 
        4.24123         19.1732         1.36333 
        4.25691         19.0008         1.35066 
        4.27259         18.8675         1.33815 
        4.28831         18.6954         1.32577 
        4.30404         18.5125         1.31353 
        4.31974         18.4003         1.30148 
        4.33543         18.2723         1.28959 
        4.35116         18.0791         1.27781 
        4.36688         17.9322         1.26619 
        4.38255         17.7312         1.25475 
        4.39825         17.6316         1.24343 
        4.41398         17.4447         1.23223 
         4.4297         17.3735         1.22118 
        4.44541         17.1642         1.21026 
        4.46111         16.9555         1.19949 
        4.47683         16.8803         1.18884 
        4.49251         16.7844         1.17834 
        4.50819         16.6286         1.16797 
         4.5239          16.485         1.15771 
        4.53962         16.3929         1.14756 
        4.55535         16.2087         1.13753 
        4.57106          16.095         1.12763 
        4.58678         15.9327         1.11785 
         4.6025         15.7793         1.10818 
        4.61821         15.7061         1.09862 
        4.63391          15.544          1.0892 
         4.6496         15.3988         1.07988 
        4.66532         15.2959         1.07066 
        4.68103         15.2017         1.06156 
        4.69673         15.0489         1.05256 
        4.71241         14.9686         1.04368 
        4.72811         14.8192         1.03489 
        4.74384         14.6879         1.02619 
        4.75955         14.6046          1.0176 
        4.77525         14.4628         1.00911 
        4.79096         14.3246         1.00071 
        4.80669         14.2636        0.992403 
         4.8224         14.1253        0.984199 
        4.83809         14.0049        0.976096 
        4.85379         13.9108        0.968079 
         4.8695         13.7876        0.960145 
        4.88521         13.6647        0.952304 
        4.90093         13.5545        0.944549 
        4.91663         13.4932        0.936887 
        4.93234          13.384        0.929302 
        4.94807          13.275        0.921796 
        4.96377         13.1864        0.914387 
        4.97943         13.0806        0.907075 
        4.99514          12.973        0.899824 
        5.01086          12.878        0.892646 
        5.02654         12.7768        0.885566 
        5.04227         12.6699        0.878541 
          5.058         12.5619        0.871589 
        5.07371         12.4831        0.864725 
        5.08942         12.3635        0.857935 
        5.10513         12.3118        0.851217 
        5.12084         12.1809        0.844567 
        5.13656         12.1143         0.83799 
        5.15225         12.0229        0.831494 
        5.16796           11.93        0.825056 
        5.18369         11.8204         0.81868 
         5.1994         11.7616        0.812384 
        5.21509         11.6503        0.806159 
        5.23079          11.566        0.799992 
        5.24649         11.4846        0.793894 
        5.26217          11.388        0.787864 
        5.27788         11.3086        0.781889 
        5.29359         11.2264        0.775974 
        5.30933         11.1306        0.770111 
        5.32504         11.0577        0.764319 
        5.34073         10.9931        0.758593 
        5.35646         10.9223        0.752914 
        5.37218         10.8039        0.747292 
        5.38789         10.7372        0.741736 
        5.40357         10.6661        0.736244 
        5.41929           10.61        0.730794 
        5.43502         10.5282        0.725399 
         5.4507         10.4334        0.720072 
        5.46639         10.3474        0.714797 
        5.48212          10.289        0.709563 
        5.49786         10.2255        0.704374 
        5.51353         10.1429        0.699264 
        5.52921         10.0657        0.694199 
        5.54495         9.97306        0.689169 
        5.56066         9.92732        0.684194 
        5.57637         9.86382        0.679269 
        5.59207         9.79443        0.674397 
        5.60778         9.70914        0.669571 
        5.62346          9.6411        0.664799 
        5.63916         9.58743        0.660069 
        5.65487          9.5121        0.655382 
         5.6706          9.4302        0.650735 
        5.68633         9.35817        0.646132 
        5.70203         9.30512        0.641582 
        5.71773         9.24072        0.637077 
        5.73344         9.18846        0.632613 
        5.74916          9.1251        0.628188 
        5.76486         9.05102        0.623811 
        5.78054         8.99775        0.619482 
        5.79626         8.90367        0.615182 
          5.812         8.84061        0.610919 
         5.8277         8.79512        0.606708 
        5.84339         8.71431        0.602538 
        5.85911         8.69139        0.598398 
        5.87484         8.60472        0.594298 
        5.89053         8.55902        0.590244 
        5.90623         8.49863        0.586227 
        5.92195         8.44536         0.58224 
        5.93767          8.3698        0.578292 
        5.95336         8.32071        0.574387 
        5.96905         8.28508        0.570519 
        5.98476         8.21432        0.566682 
        6.00048          8.1453        0.562879 
        6.01617         8.09888        0.559116 
        6.03185         8.05302        0.555391 
        6.04756         7.99895        0.551692 
        6.06331         7.94512        0.548018 
        6.07903          7.8943        0.544386 
        6.09473         7.83326         0.54079 
        6.11044         7.78865        0.537223 
        6.12616         7.73513        0.533689 
        6.14186         7.69011         0.53019 
        6.15755         7.63979        0.526722 
        6.17326         7.57948        0.523283 
        6.18898         7.54294        0.519873 
        6.20467         7.47849          0.5165 
        6.22036         7.42727        0.513156 
         6.2361         7.38499        0.509834 
         6.2518         7.34103        0.506546 
        6.26748         7.28602        0.503294 
        6.28319         7.24314        0.500062 
        6.29893         7.19355        0.496855 
        6.31463         7.14222        0.493682 
        6.33033         7.10223        0.490537 
        6.34604         7.04726        0.487418 
        6.36177         7.00981        0.484323 
        6.37747          6.9573         0.48126 
