# k  (h/Mpc)    Pcb(k)  (Mpc/h)^3    Pcb_linear(k) (Mpc/h)^3   ShotnoiseSubtracted = true
      0.0200456          6375.7          6483.8 
      0.0350414         4617.02          4713.5 
      0.0492313         3414.99         3424.74 
      0.0637834         2896.15         2846.96 
      0.0800726         2294.64         2259.56 
       0.096163         1616.48         1639.51 
       0.111083         1282.59         1307.71 
       0.126058         1174.56          1158.9 
       0.142273         1011.18         981.843 
       0.158546         825.275          775.45 
        0.17375          668.43         653.316 
       0.188953         634.578         591.563 
       0.204907         592.674         523.413 
       0.220756         497.487         442.839 
        0.23588         435.287         385.231 
         0.2514         383.914         349.979 
       0.267535         364.533         316.671 
       0.283568         329.612         279.261 
       0.299022         303.494         248.807 
       0.314451         278.083         227.393 
       0.330372         257.756         208.607 
       0.346141         232.083         189.343 
       0.361624         220.573         172.087 
       0.377134         207.068         158.347 
       0.392932         189.443         146.515 
       0.408854         181.763         135.059 
       0.424564         174.148         124.486 
       0.440253         163.653         115.413 
       0.455999         154.021         107.523 
       0.471626         142.393         100.273 
        0.48727         138.191         93.4909 
       0.502856         132.119         87.3981 
       0.518488         128.319         81.9618 
       0.534347         122.624         76.9079 
       0.550082         113.432         72.2479 
       0.565732         109.077         67.9847 
       0.581496         104.823         64.0802 
       0.597222         101.428         60.4993 
       0.612804         96.4204         57.2065 
       0.628434         94.3021         54.1374 
       0.644267         91.1432         51.2681 
       0.660051         88.7005         48.6235 
       0.675724         85.4388         46.1816 
       0.691403         82.8727         43.9053 
       0.707174         79.9668         41.7696 
       0.722871         78.1073         39.7845 
        0.73838         76.3928         37.9496 
       0.754018         72.6511         36.2166 
       0.769845         71.2104         34.5729 
        0.78569         69.3957         33.0299 
       0.801365         67.0773         31.5965 
       0.817031         65.0928         30.2494 
       0.832809         64.2891         28.9727 
       0.848511         61.3838         27.7757 
       0.864097         59.9466         26.6549 
       0.879701         59.1207         25.5952 
       0.895507         58.1319         24.5809 
       0.911279         56.8077         23.6239 
        0.92691         55.3475          22.726 
       0.942635         53.4897         21.8701 
       0.958396         53.2705         21.0566 
       0.974128         51.8473         20.2861 
       0.989692         50.8812          19.562 
        1.00528         49.8319         18.8723 
        1.02113         48.4744         18.2051 
        1.03692         47.4199         17.5729 
        1.05264         46.9954         16.9737 
        1.06832         45.7679         16.4034 
        1.08405          45.196          15.858 
        1.09979         44.4881         15.3371 
        1.11537         42.8791         14.8449 
        1.13105         43.1189         14.3714 
        1.14679         42.2906         13.9169 
        1.16256         41.3278         13.4812 
        1.17828         40.4303         13.0656 
        1.19395         39.8795          12.669 
         1.2097         39.3536         12.2869 
        1.22537         38.9848         11.9225 
          1.241         38.0159          11.574 
        1.25666         37.1836         11.2387 
        1.27241         36.9265         10.9151 
        1.28819         35.9153         10.6037 
        1.30392         35.5211         10.3054 
        1.31957         35.2908           10.02 
        1.33529         34.9318         9.74432 
        1.35108         34.3034         9.47799 
        1.36674         33.6817         9.22355 
         1.3824         32.9407          8.9787 
        1.39811         32.8526         8.74196 
        1.41389         32.3567         8.51288 
        1.42964         31.7764         8.29241 
        1.44531         31.5298         8.08085 
        1.46101         30.7663         7.87624 
        1.47667          30.629         7.67935 
        1.49229         30.3436         7.48973 
        1.50793         29.8354         7.30631 
        1.52367         29.5469         7.12787 
        1.53953         29.2821         6.95421 
        1.55526         28.6872         6.78774 
        1.57092         28.3722         6.62742 
        1.58662         28.0125          6.4719 
        1.60235         27.7262         6.32109 
        1.61809         27.3574         6.17502 
        1.63369         27.0442         6.03487 
        1.64941         26.5746         5.89808 
        1.66519         26.4304         5.76505 
        1.68085         26.0591         5.63707 
        1.69652         25.7753         5.51295 
        1.71228         25.5649         5.39187 
        1.72806         25.1593         5.27433 
        1.74368         24.8327         5.16149 
        1.75933          24.576         5.05173 
        1.77505         24.4266         4.94465 
        1.79081         24.0352          4.8405 
         1.8065         23.8737         4.73979 
        1.82218          23.592         4.64205 
        1.83797         23.2486          4.5464 
        1.85367         23.0106         4.45397 
        1.86928         22.7924         4.36467 
        1.88497         22.4354         4.27734 
        1.90073         22.4701         4.19208 
        1.91647         22.0686         4.10923 
        1.93218         21.8879         4.02879 
        1.94787         21.7157         3.95063 
        1.96363         21.5313         3.87423 
        1.97935         21.2935         3.80002 
        1.99499         21.0309         3.72817 
        2.01064         20.8818         3.65807 
         2.0264         20.5303         3.58935 
        2.04216         20.3832         3.52242 
        2.05781         20.1588         3.45762 
        2.07353         19.9771         3.39423 
        2.08928         19.8908         3.33229 
        2.10499         19.6103         3.27206 
        2.12065          19.301         3.21351 
        2.13633         19.2767         3.15633 
        2.15211         18.9348         3.10019 
        2.16785          18.883         3.04556 
        2.18349          18.696          2.9926 
        2.19916         18.4944         2.94078 
        2.21489         18.3095         2.89002 
        2.23063          18.151         2.84043 
         2.2463         17.9842         2.79223 
        2.26194         17.8732         2.74526 
        2.27765          17.626         2.69914 
        2.29341         17.4224         2.65395 
        2.30914         17.3108          2.6099 
        2.32486         17.2137         2.56687 
        2.34061         17.0135         2.52474 
        2.35635          16.781         2.48359 
        2.37203         16.7049          2.4435 
        2.38768         16.5679         2.40438 
        2.40339         16.3529         2.36598 
        2.41914         16.2168         2.32833 
        2.43483         16.0895         2.29163 
         2.4505         15.9081         2.25578 
        2.46622         15.7962         2.22058 
        2.48195         15.6306         2.18613 
        2.49759         15.5142         2.15259 
        2.51328         15.3621         2.11967 
        2.52906         15.2539         2.08723 
        2.54479         15.1171         2.05559 
        2.56049         15.0044         2.02467 
        2.57618         14.8971         1.99441 
        2.59189         14.7258         1.96472 
        2.60758         14.6202         1.93569 
        2.62325         14.5225         1.90728 
        2.63898          14.338         1.87933 
        2.65468         14.2722         1.85201 
        2.67044         14.0993         1.82512 
        2.68618          14.007         1.79882 
        2.70184         13.8739         1.77314 
        2.71755         13.7338          1.7479 
        2.73329          13.635         1.72312 
        2.74897         13.5016         1.69889 
        2.76462          13.491         1.67519 
        2.78034         13.2707         1.65184 
        2.79607         13.1616         1.62891 
        2.81179         13.0477         1.60644 
        2.82749         12.9675         1.58442 
        2.84321         12.8161         1.56279 
        2.85893         12.7435         1.54157 
        2.87462         12.6527         1.52078 
        2.89033         12.4795         1.50036 
        2.90605         12.4079         1.48029 
        2.92176         12.3361          1.4606 
        2.93747         12.2269         1.44128 
        2.95318         12.0971          1.4223 
        2.96891         11.9951         1.40366 
        2.98456         11.9205         1.38543 
        3.00023         11.8463          1.3675 
        3.01596         11.7257         1.34983 
        3.03164         11.6512         1.33253 
        3.04738         11.5232         1.31547 
         3.0631          11.435         1.29873 
        3.07883         11.3238         1.28227 
        3.09456         11.2697          1.2661 
        3.11026         11.1066         1.25023 
        3.12596         11.1013         1.23464 
        3.14163         10.9849         1.21935 
        3.15734         10.8829         1.20428 
        3.17308         10.8214         1.18943 
        3.18879         10.7609         1.17488 
        3.20447         10.6197         1.16058 
         3.2202         10.5442         1.14648 
         3.2359         10.5053         1.13264 
        3.25157         10.4101         1.11906 
        3.26729         10.3121         1.10567 
        3.28304         10.2129         1.09246 
        3.29877         10.1227         1.07949 
        3.31446         10.0782         1.06676 
        3.33014         9.97146         1.05424 
        3.34585         9.94402         1.04191 
        3.36158         9.85546         1.02975 
        3.37727         9.75948         1.01783 
        3.39294         9.68795         1.00611 
        3.40867           9.564        0.994524 
        3.42439         9.52879        0.983131 
        3.44008         9.45484        0.971939 
        3.45578         9.38559        0.960912 
        3.47153         9.34618        0.950033 
        3.48724         9.26663        0.939341 
        3.50292         9.17505        0.928838 
        3.51859         9.11965        0.918501 
        3.53431         9.03775         0.90829 
        3.55007         8.98022        0.898208 
        3.56577         8.92373        0.888319 
        3.58146         8.85115        0.878583 
        3.59719         8.77164        0.868971 
        3.61292         8.70786        0.859506 
        3.62859         8.62632        0.850217 
        3.64429         8.57861        0.841048 
        3.66003         8.49698        0.831986 
        3.67578         8.41936         0.82306 
        3.69146         8.38885          0.8143 
        3.70712         8.33446        0.805682 
        3.72284         8.24464        0.797158 
        3.73853         8.19807        0.788771 
        3.75422          8.1334        0.780502 
        3.76993         8.07565        0.772345 
        3.78564         8.00334        0.764307 
        3.80137         7.95812         0.75637 
        3.81707         7.87967        0.748563 
        3.83279         7.86561         0.74086 
        3.84853         7.78515        0.733252 
        3.86424         7.69966        0.725767 
        3.87992         7.64497        0.718396 
        3.89561         7.61474        0.711128 
        3.91134         7.54489        0.703945 
        3.92704         7.49583         0.69687 
        3.94273         7.43406        0.689899 
        3.95845         7.39451        0.683011 
        3.97418         7.31953        0.676215 
        3.98988         7.28122        0.669521 
        4.00554         7.21192        0.662935 
        4.02125         7.16336         0.65642 
        4.03698         7.12216        0.649981 
        4.05268         7.07276        0.643644 
        4.06839         7.00913        0.637387 
         4.0841         6.96462        0.631214 
        4.09983          6.9323        0.625115 
        4.11555         6.88194        0.619098 
        4.13124         6.83053        0.613178 
        4.14693         6.75767        0.607329 
        4.16266         6.71233        0.601544 
        4.17839         6.66113        0.595837 
        4.19408         6.60418        0.590217 
        4.20977          6.5565        0.584667 
        4.22551         6.50855        0.579175 
        4.24123          6.4628        0.573759 
        4.25691         6.41606        0.568428 
        4.27259         6.37588        0.563162 
        4.28831         6.32732        0.557952 
        4.30404         6.27082        0.552804 
        4.31974         6.23425        0.547731 
        4.33543         6.18728        0.542725 
        4.35116          6.1491         0.53777 
        4.36688         6.09495        0.532878 
        4.38255         6.04346        0.528065 
        4.39825         6.00498        0.523301 
        4.41398         5.96928        0.518587 
         4.4297         5.94984        0.513935 
        4.44541         5.88332        0.509342 
        4.46111          5.8717        0.504808 
        4.47683         5.79165        0.500326 
        4.49251         5.77802        0.495907 
        4.50819         5.72152        0.491543 
         4.5239         5.67895        0.487225 
        4.53962         5.65505        0.482954 
        4.55535         5.59773        0.478731 
        4.57106         5.56749        0.474565 
        4.58678         5.53577        0.470448 
         4.6025         5.48133        0.466379 
        4.61821         5.45124        0.462359 
        4.63391         5.41979        0.458391 
         4.6496         5.37342        0.454471 
        4.66532          5.3543        0.450591 
        4.68103         5.29256        0.446758 
        4.69673         5.27401        0.442973 
        4.71241         5.23407        0.439236 
        4.72811         5.19469        0.435535 
        4.74384         5.16457        0.431873 
        4.75955         5.11796        0.428258 
        4.77525          5.0902        0.424687 
        4.79096         5.05448        0.421152 
        4.80669         5.02069        0.417655 
         4.8224         4.99456        0.414202 
        4.83809         4.95163        0.410792 
        4.85379          4.9084        0.407418 
         4.8695         4.88736        0.404079 
        4.88521         4.85926        0.400779 
        4.90093         4.81534        0.397515 
        4.91663         4.78807        0.394291 
        4.93234         4.76628        0.391099 
        4.94807         4.72012         0.38794 
        4.96377         4.69205        0.384822 
        4.97943         4.65609        0.381744 
        4.99514         4.62481        0.378693 
        5.01086          4.5932        0.375672 
        5.02654         4.57557        0.372692 
        5.04227         4.54127        0.369736 
          5.058          4.5041         0.36681 
        5.07371         4.48164        0.363922 
        5.08942         4.45176        0.361064 
        5.10513         4.42553        0.358236 
        5.12084          4.3983        0.355438 
        5.13656         4.37263         0.35267 
        5.15225          4.3407        0.349936 
        5.16796         4.31022        0.347226 
        5.18369         4.27672        0.344543 
         5.1994         4.25476        0.341893 
        5.21509         4.22863        0.339274 
        5.23079         4.20319        0.336678 
        5.24649         4.16877        0.334112 
        5.26217         4.15182        0.331574 
        5.27788         4.11932        0.329059 
        5.29359         4.08907         0.32657 
        5.30933         4.06531        0.324103 
        5.32504         4.04567        0.321665 
        5.34073          4.0119        0.319255 
        5.35646         3.98876        0.316865 
        5.37218         3.96312        0.314499 
        5.38789         3.94431        0.312161 
        5.40357         3.91695         0.30985 
        5.41929         3.88566        0.307556 
        5.43502         3.87098        0.305286 
         5.4507         3.83565        0.303044 
        5.46639         3.81755        0.300824 
        5.48212         3.80433        0.298621 
        5.49786          3.7805        0.296437 
        5.51353         3.74494        0.294287 
        5.52921         3.72194        0.292155 
        5.54495         3.69237        0.290038 
        5.56066         3.68154        0.287945 
        5.57637         3.65402        0.285872 
        5.59207         3.63525        0.283822 
        5.60778         3.61227         0.28179 
        5.62346         3.57832        0.279782 
        5.63916         3.56362        0.277791 
        5.65487         3.54482        0.275819 
         5.6706         3.52821        0.273863 
        5.68633         3.50136        0.271926 
        5.70203         3.47412        0.270011 
        5.71773         3.46632        0.268115 
        5.73344         3.44371        0.266237 
        5.74916         3.42312        0.264374 
        5.76486         3.39832        0.262532 
        5.78054         3.37657         0.26071 
        5.79626         3.36422        0.258901 
          5.812         3.34622        0.257107 
         5.8277         3.32968        0.255335 
        5.84339         3.30177        0.253579 
        5.85911         3.28403        0.251837 
        5.87484         3.26911        0.250112 
        5.89053         3.23814        0.248406 
        5.90623         3.22102        0.246715 
        5.92195         3.20645        0.245037 
        5.93767         3.19181        0.243375 
        5.95336         3.17291        0.241732 
        5.96905         3.15503        0.240104 
        5.98476         3.13612        0.238489 
        6.00048          3.1131        0.236889 
        6.01617          3.0997        0.235305 
        6.03185         3.07711        0.233738 
        6.04756         3.06261        0.232181 
        6.06331         3.03764        0.230635 
        6.07903         3.02808        0.229106 
        6.09473         3.01096        0.227593 
        6.11044         2.98974        0.226091 
        6.12616          2.9754        0.224604 
        6.14186         2.96196        0.223131 
        6.15755         2.94069        0.221672 
        6.17326          2.9296        0.220225 
        6.18898         2.90985         0.21879 
        6.20467         2.89021         0.21737 
        6.22036         2.87132        0.215963 
         6.2361         2.86146        0.214565 
         6.2518         2.84311        0.213181 
        6.26748          2.8266        0.211812 
        6.28319          2.8116        0.210452 
        6.29893          2.7981        0.209102 
        6.31463          2.7823        0.207767 
        6.33033          2.7719        0.206444 
        6.34604         2.75151        0.205131 
        6.36177         2.73717        0.203828 
        6.37747         2.72247        0.202539 
