# k  (h/Mpc)    Pcb(k)  (Mpc/h)^3    Pcb_linear(k) (Mpc/h)^3   ShotnoiseSubtracted = true
      0.0200456         10044.8         10232.4 
      0.0350414         7231.74          7438.6 
      0.0492313         5364.85         5404.75 
      0.0637834         4579.06         4492.92 
      0.0800726         3624.55         3565.92 
       0.096163         2537.09         2587.38 
       0.111083          2016.8         2063.76 
       0.126058         1856.19         1828.91 
       0.142273         1602.45         1549.49 
       0.158546         1332.99         1223.77 
        0.17375          1071.5         1031.03 
       0.188953         1030.53         933.574 
       0.204907         966.894         826.022 
       0.220756         819.406         698.865 
        0.23588         720.238         607.952 
         0.2514         630.255         552.318 
       0.267535         610.655         499.753 
       0.283568         553.429         440.715 
       0.299022         514.601         392.654 
       0.314451         480.943         358.859 
       0.330372         443.948         329.213 
       0.346141         401.699         298.811 
       0.361624          385.79         271.578 
       0.377134         359.537         249.895 
       0.392932         338.396         231.223 
       0.408854         324.477         213.143 
       0.424564          309.32         196.457 
       0.440253          297.05         182.138 
       0.455999         279.449         169.688 
       0.471626         259.828         158.246 
        0.48727         252.353         147.542 
       0.502856         243.519         137.927 
       0.518488         240.036         129.348 
       0.534347         226.567         121.372 
       0.550082          212.12         114.018 
       0.565732         207.928          107.29 
       0.581496         197.736         101.128 
       0.597222         192.504         95.4768 
       0.612804         185.111         90.2804 
       0.628434         179.382         85.4368 
       0.644267         173.385         80.9086 
       0.660051         171.219         76.7351 
       0.675724         167.012         72.8813 
       0.691403         162.074          69.289 
       0.707174         155.181         65.9186 
       0.722871         153.811         62.7858 
        0.73838         150.443           59.89 
       0.754018         145.313         57.1551 
       0.769845         141.638         54.5612 
        0.78569         139.111         52.1261 
       0.801365         135.204         49.8639 
       0.817031         130.566          47.738 
       0.832809         128.758         45.7231 
       0.848511         125.351         43.8342 
       0.864097         122.721         42.0654 
       0.879701         120.422         40.3931 
       0.895507          117.49         38.7923 
       0.911279         115.551          37.282 
        0.92691         113.833          35.865 
       0.942635         110.968         34.5142 
       0.958396         110.625         33.2304 
       0.974128         107.523         32.0145 
       0.989692         104.875         30.8717 
        1.00528         102.786         29.7832 
        1.02113         101.964         28.7304 
        1.03692         98.1805         27.7326 
        1.05264         98.0029         26.7869 
        1.06832         95.4948          25.887 
        1.08405         94.2435         25.0262 
        1.09979         93.7109         24.2042 
        1.11537         90.5072         23.4274 
        1.13105         90.5237         22.6802 
        1.14679         89.2278         21.9629 
        1.16256         87.9318         21.2753 
        1.17828         85.5943         20.6194 
        1.19395         84.7377         19.9936 
         1.2097          82.622         19.3906 
        1.22537         82.8458         18.8155 
          1.241         80.8187         18.2656 
        1.25666         79.2086         17.7363 
        1.27241         78.2989         17.2256 
        1.28819         77.0132         16.7342 
        1.30392         76.0677         16.2635 
        1.31957         75.0488          15.813 
        1.33529         73.7392          15.378 
        1.35108         73.2253         14.9577 
        1.36674         72.3004         14.5561 
         1.3824         70.9003         14.1697 
        1.39811         70.2235         13.7961 
        1.41389         69.1506         13.4346 
        1.42964         68.4103         13.0867 
        1.44531         67.0395         12.7528 
        1.46101         66.1212         12.4299 
        1.47667         66.0214         12.1191 
        1.49229         64.7851         11.8199 
        1.50793         64.2656         11.5304 
        1.52367         63.1718         11.2488 
        1.53953         62.4029         10.9748 
        1.55526         61.7499         10.7121 
        1.57092         61.5049          10.459 
        1.58662         60.2946         10.2136 
        1.60235         59.7813         9.97562 
        1.61809         58.9612          9.7451 
        1.63369         57.9944         9.52392 
        1.64941         57.4467         9.30804 
        1.66519         56.4655          9.0981 
        1.68085         56.0406         8.89613 
        1.69652         55.1663         8.70025 
        1.71228         54.8047         8.50916 
        1.72806         54.3112         8.32368 
        1.74368         53.5058          8.1456 
        1.75933         52.9742         7.97238 
        1.77505         52.3823          7.8034 
        1.79081         51.7524         7.63902 
         1.8065         51.2931          7.4801 
        1.82218         50.5694         7.32584 
        1.83797         49.9663         7.17488 
        1.85367         49.3573         7.02902 
        1.86928         48.8596          6.8881 
        1.88497         48.4362         6.75028 
        1.90073         47.8692         6.61573 
        1.91647         47.3991         6.48497 
        1.93218         46.8339         6.35802 
        1.94787         46.3921         6.23467 
        1.96363          45.794         6.11411 
        1.97935         45.3104         5.99699 
        1.99499         44.7483          5.8836 
        2.01064         44.5162         5.77298 
         2.0264         43.5883         5.66452 
        2.04216         43.3067          5.5589 
        2.05781          42.729         5.45664 
        2.07353         42.3252          5.3566 
        2.08928          41.963         5.25885 
        2.10499         41.4815          5.1638 
        2.12065         41.0139         5.07139 
        2.13633         40.8656         4.98116 
        2.15211         40.3135         4.89255 
        2.16785         39.5554         4.80635 
        2.18349         39.3658         4.72276 
        2.19916         39.0455         4.64099 
        2.21489         38.5274         4.56089 
        2.23063         38.0544         4.48262 
         2.2463          37.609         4.40655 
        2.26194          37.189         4.33243 
        2.27765         36.8188         4.25964 
        2.29341         36.4445         4.18833 
        2.30914         36.0778          4.1188 
        2.32486          35.615          4.0509 
        2.34061         35.3565         3.98441 
        2.35635         35.0253         3.91947 
        2.37203          34.679         3.85621 
        2.38768         34.2641         3.79448 
        2.40339         34.0976         3.73387 
        2.41914         33.7642         3.67445 
        2.43483         33.1621         3.61653 
         2.4505         32.9586         3.55996 
        2.46622         32.6818         3.50441 
        2.48195         32.4052         3.45003 
        2.49759         31.9768         3.39711 
        2.51328         31.5703         3.34515 
        2.52906         31.4377         3.29396 
        2.54479         30.9537         3.24403 
        2.56049         30.6974         3.19523 
        2.57618         30.3616         3.14747 
        2.59189         30.1999         3.10062 
        2.60758         29.9291          3.0548 
        2.62325         29.4749         3.00996 
        2.63898         29.3296         2.96587 
        2.65468         28.9156         2.92275 
        2.67044         28.7123          2.8803 
        2.68618         28.3969          2.8388 
        2.70184          28.079         2.79828 
        2.71755         27.9604         2.75845 
        2.73329         27.6183         2.71933 
        2.74897         27.2973          2.6811 
        2.76462         27.0221          2.6437 
        2.78034         26.9105         2.60684 
        2.79607         26.5928         2.57066 
        2.81179         26.3588          2.5352 
        2.82749         26.1223         2.50045 
        2.84321         25.7045         2.46632 
        2.85893         25.5095         2.43283 
        2.87462         25.2923         2.40002 
        2.89033          25.075         2.36778 
        2.90605         24.8934         2.33611 
        2.92176         24.7354         2.30504 
        2.93747          24.432         2.27455 
        2.95318         24.0759          2.2446 
        2.96891         23.9733         2.21518 
        2.98456         23.6471         2.18641 
        3.00023         23.4535         2.15812 
        3.01596         23.2115         2.13023 
        3.03164         22.9888         2.10292 
        3.04738         22.8445         2.07601 
         3.0631         22.6211         2.04958 
        3.07883         22.4364         2.02361 
        3.09456          22.155         1.99809 
        3.11026         21.9678         1.97305 
        3.12596         21.7907         1.94844 
        3.14163         21.6382         1.92431 
        3.15734         21.4325         1.90054 
        3.17308         21.2482          1.8771 
        3.18879         21.0223         1.85413 
        3.20447         20.8297         1.83157 
         3.2202         20.6483         1.80932 
         3.2359         20.3787         1.78748 
        3.25157         20.3825         1.76605 
        3.26729         20.1435         1.74491 
        3.28304         19.9445         1.72407 
        3.29877         19.6243          1.7036 
        3.31446         19.5548          1.6835 
        3.33014         19.3463         1.66375 
        3.34585          19.153         1.64428 
        3.36158         19.0258          1.6251 
        3.37727         18.8127         1.60628 
        3.39294         18.6509         1.58778 
        3.40867         18.4903         1.56951 
        3.42439         18.3411         1.55153 
        3.44008         18.1515         1.53386 
        3.45578         17.9737         1.51646 
        3.47153         17.8342         1.49929 
        3.48724         17.6567         1.48242 
        3.50292         17.5474         1.46584 
        3.51859         17.3584         1.44953 
        3.53431         17.1935         1.43342 
        3.55007         17.0619         1.41751 
        3.56577         16.8849          1.4019 
        3.58146         16.7748         1.38653 
        3.59719         16.6131         1.37136 
        3.61292         16.4573         1.35643 
        3.62859         16.3252         1.34177 
        3.64429         16.1712          1.3273 
        3.66003         16.0332           1.313 
        3.67578         15.8986         1.29891 
        3.69146         15.7971         1.28509 
        3.70712          15.595         1.27149 
        3.72284         15.5641         1.25803 
        3.73853         15.3893          1.2448 
        3.75422         15.1709         1.23175 
        3.76993         15.0884         1.21887 
        3.78564         14.9424         1.20619 
        3.80137         14.8115         1.19366 
        3.81707         14.6993         1.18134 
        3.83279         14.5502         1.16919 
        3.84853         14.4376         1.15718 
        3.86424         14.3316         1.14537 
        3.87992         14.1834         1.13374 
        3.89561         14.0653         1.12227 
        3.91134         13.9475         1.11093 
        3.92704         13.8285         1.09976 
        3.94273         13.7262         1.08876 
        3.95845          13.581         1.07789 
        3.97418          13.522         1.06717 
        3.98988          13.372          1.0566 
        4.00554         13.2787         1.04621 
        4.02125         13.1388         1.03593 
        4.03698         13.0696         1.02577 
        4.05268         12.9406         1.01577 
        4.06839         12.8057         1.00589 
         4.0841         12.7104        0.996149 
        4.09983         12.5784        0.986524 
        4.11555         12.4958        0.977029 
        4.13124         12.4023        0.967685 
        4.14693         12.3164        0.958455 
        4.16266         12.1965        0.949325 
        4.17839         12.0973        0.940319 
        4.19408         11.9981        0.931449 
        4.20977         11.8968        0.922691 
        4.22551          11.794        0.914024 
        4.24123         11.7107        0.905477 
        4.25691         11.5957        0.897063 
        4.27259         11.5269        0.888753 
        4.28831          11.405        0.880531 
        4.30404         11.3174        0.872406 
        4.31974         11.2275        0.864401 
        4.33543         11.1364        0.856501 
        4.35116         11.0505         0.84868 
        4.36688          10.946         0.84096 
        4.38255         10.8729        0.833365 
        4.39825         10.8122        0.825847 
        4.41398         10.7045        0.818406 
         4.4297         10.6055        0.811066 
        4.44541         10.5002        0.803816 
        4.46111         10.4503        0.796661 
        4.47683         10.3669        0.789588 
        4.49251         10.2898        0.782615 
        4.50819         10.2018        0.775727 
         4.5239         10.1204        0.768913 
        4.53962         10.0691        0.762172 
        4.55535         9.96354        0.755509 
        4.57106         9.87601        0.748935 
        4.58678         9.78851        0.742437 
         4.6025         9.73826        0.736015 
        4.61821         9.63847         0.72967 
        4.63391         9.55084        0.723408 
         4.6496         9.51961        0.717222 
        4.66532         9.42124        0.711099 
        4.68103         9.35508         0.70505 
        4.69673         9.27262        0.699077 
        4.71241         9.19722        0.693179 
        4.72811         9.11162        0.687339 
        4.74384         9.08743        0.681559 
        4.75955         9.00837        0.675855 
        4.77525         8.92658        0.670218 
        4.79096          8.8862         0.66464 
        4.80669          8.7984        0.659122 
         4.8224          8.7431        0.653672 
        4.83809         8.68189         0.64829 
        4.85379          8.5963        0.642966 
         4.8695         8.54422        0.637697 
        4.88521         8.48235        0.632489 
        4.90093         8.39964        0.627338 
        4.91663         8.34698        0.622249 
        4.93234         8.30912        0.617212 
        4.94807         8.20352        0.612227 
        4.96377         8.15982        0.607306 
        4.97943         8.12638        0.602449 
        4.99514          8.0606        0.597633 
        5.01086          7.9748        0.592866 
        5.02654         7.92536        0.588163 
        5.04227         7.89246        0.583498 
          5.058         7.80746         0.57888 
        5.07371         7.75368        0.574322 
        5.08942         7.70728        0.569812 
        5.10513         7.64422         0.56535 
        5.12084         7.58188        0.560934 
        5.13656         7.54311        0.556565 
        5.15225         7.47401        0.552251 
        5.16796         7.42946        0.547975 
        5.18369         7.36149         0.54374 
         5.1994         7.28268        0.539558 
        5.21509         7.25875        0.535424 
        5.23079         7.20612        0.531328 
        5.24649         7.14624        0.527278 
        5.26217         7.09692        0.523273 
        5.27788         7.03967        0.519304 
        5.29359         7.00917        0.515376 
        5.30933         6.95349        0.511482 
        5.32504         6.90322        0.507635 
        5.34073         6.85638        0.503832 
        5.35646         6.80279        0.500061 
        5.37218         6.77658        0.496327 
        5.38789         6.70778        0.492637 
        5.40357         6.66814        0.488989 
        5.41929         6.60845        0.485369 
        5.43502         6.57055        0.481786 
         5.4507         6.53592        0.478248 
        5.46639         6.48086        0.474745 
        5.48212          6.4437        0.471268 
        5.49786         6.40328        0.467822 
        5.51353         6.33588        0.464428 
        5.52921         6.30973        0.461064 
        5.54495         6.25818        0.457723 
        5.56066         6.21802        0.454419 
        5.57637         6.15514        0.451148 
        5.59207         6.13807        0.447912 
        5.60778         6.08114        0.444707 
        5.62346         6.04178        0.441537 
        5.63916          6.0122        0.438396 
        5.65487         5.97004        0.435283 
         5.6706          5.9283        0.432197 
        5.68633         5.88671        0.429139 
        5.70203         5.85232        0.426118 
        5.71773         5.80926        0.423126 
        5.73344         5.76414        0.420161 
        5.74916         5.72915        0.417222 
        5.76486         5.69832        0.414314 
        5.78054         5.65958        0.411439 
        5.79626         5.62155        0.408584 
          5.812         5.57332        0.405752 
         5.8277         5.53864        0.402956 
        5.84339         5.50971        0.400186 
        5.85911         5.46431        0.397436 
        5.87484         5.44431        0.394713 
        5.89053         5.39672        0.392021 
        5.90623         5.36148        0.389352 
        5.92195         5.32466        0.386704 
        5.93767         5.28395        0.384082 
        5.95336         5.24979        0.381489 
        5.96905         5.23897         0.37892 
        5.98476         5.20099        0.376372 
        6.00048         5.15955        0.373846 
        6.01617         5.13071        0.371346 
        6.03185         5.09764        0.368873 
        6.04756         5.06563        0.366416 
        6.06331         5.02563        0.363976 
        6.07903         4.99616        0.361563 
        6.09473         4.97025        0.359175 
        6.11044         4.93018        0.356806 
        6.12616         4.90348        0.354458 
        6.14186           4.871        0.352135 
        6.15755         4.83812        0.349832 
        6.17326         4.81131        0.347548 
        6.18898         4.78033        0.345283 
        6.20467         4.75025        0.343042 
        6.22036         4.71056        0.340822 
         6.2361         4.68908        0.338615 
         6.2518         4.65629        0.336431 
        6.26748         4.63116        0.334271 
        6.28319         4.60518        0.332124 
        6.29893         4.57782        0.329995 
        6.31463         4.54761        0.327887 
        6.33033         4.51556        0.325799 
        6.34604         4.49438        0.323727 
        6.36177         4.46163        0.321671 
        6.37747         4.43238        0.319637 
