# k  (h/Mpc)    Pcb(k)  (Mpc/h)^3    Pcb_linear(k) (Mpc/h)^3   ShotnoiseSubtracted = true
      0.0200456         7771.06         7869.63 
      0.0350414         5716.62         5577.96 
      0.0492313         4018.85         4034.89 
      0.0637834         3218.88         3307.56 
      0.0800726          2477.5         2554.11 
       0.096163          1906.8         1842.17 
       0.111083         1556.69         1485.11 
       0.126058         1298.15         1304.11 
       0.142273         1087.12         1074.87 
       0.158546         886.188         846.234 
        0.17375         774.899         723.707 
       0.188953         706.725         651.202 
       0.204907         592.727         562.979 
       0.220756         526.754         473.993 
        0.23588         467.584         417.203 
         0.2514         418.242         378.493 
       0.267535         397.659          336.86 
       0.283568         345.002         295.123 
       0.299022         325.734         264.635 
       0.314451         319.288         242.016 
       0.330372         275.077         219.799 
       0.346141         253.627         198.197 
       0.361624         239.257         180.507 
       0.377134         219.858         166.209 
       0.392932         213.244         152.969 
       0.408854         201.027         140.259 
       0.424564         191.853         129.187 
       0.440253         173.173         119.771 
       0.455999         162.588         111.253 
       0.471626         158.792         103.355 
        0.48727          152.22         96.1907 
       0.502856         138.692         89.8542 
       0.518488         136.958         84.1012 
       0.534347          127.76         78.7069 
       0.550082         124.573         73.7887 
       0.565732         121.914         69.3484 
       0.581496         112.158         65.2604 
       0.597222         109.542         61.4923 
       0.612804         105.545          58.039 
       0.628434         102.641         54.8445 
       0.644267          97.164         51.8629 
       0.660051         94.1253         49.1111 
       0.675724         92.3087         46.5731 
       0.691403         90.0647         44.2111 
       0.707174         86.6883         41.9986 
       0.722871         84.9543         39.9452 
        0.73838         82.4896         38.0501 
       0.754018         77.4783         36.2628 
       0.769845         76.9174         34.5702 
        0.78569         74.5576         32.9834 
       0.801365         72.1371         31.5114 
       0.817031         69.6809         30.1298 
       0.832809         68.3291         28.8222 
       0.848511         66.7206         27.5979 
       0.864097          65.392         26.4529 
       0.879701          64.029         25.3716 
       0.895507         61.5703         24.3378 
       0.911279         60.5452         23.3637 
        0.92691          58.835         22.4508 
       0.942635         57.4573         21.5815 
       0.958396         57.3037         20.7562 
       0.974128          55.838         19.9755 
       0.989692         54.3198         19.2425 
        1.00528          53.267         18.5451 
        1.02113          52.018         17.8712 
        1.03692         51.7675         17.2331 
        1.05264         50.6094         16.6291 
        1.06832          49.165         16.0548 
        1.08405         48.3535          15.506 
        1.09979         48.0035         14.9825 
        1.11537         46.6214         14.4882 
        1.13105         45.5248         14.0132 
        1.14679         45.0133         13.5575 
        1.16256         44.2668         13.1212 
        1.17828          43.743         12.7054 
        1.19395         42.4922          12.309 
         1.2097         42.5443         11.9274 
        1.22537         41.4052         11.5638 
          1.241         40.9555         11.2163 
        1.25666         39.8418         10.8822 
        1.27241         39.7172         10.5601 
        1.28819         38.8324         10.2505 
        1.30392         38.2482         9.95408 
        1.31957         37.9668         9.67067 
        1.33529          37.291         9.39722 
        1.35108         36.6108         9.13322 
        1.36674         36.0524         8.88121 
         1.3824         35.5004         8.63889 
        1.39811         34.8759         8.40477 
        1.41389         34.3893         8.17839 
        1.42964         34.1583          7.9607 
        1.44531         33.3928         7.75196 
        1.46101         33.1519         7.55023 
        1.47667         32.6932         7.35624 
        1.49229         32.0891         7.16956 
        1.50793         31.8436         6.98912 
        1.52367         31.2537          6.8137 
        1.53953          31.102         6.64309 
        1.55526         30.5245         6.47966 
        1.57092         30.1747         6.32238 
        1.58662         29.7156         6.16992 
        1.60235         29.3136         6.02216 
        1.61809         28.9725         5.87915 
        1.63369          28.617         5.74203 
        1.64941         28.2327         5.60828 
        1.66519         27.8255         5.47829 
        1.68085         27.4293         5.35332 
        1.69652         27.1146         5.23219 
        1.71228          26.961          5.1141 
        1.72806         26.4927         4.99955 
        1.74368         26.0996         4.88963 
        1.75933         25.9555         4.78279 
        1.77505          25.715         4.67861 
        1.79081         25.3416         4.57734 
         1.8065         24.9906         4.47949 
        1.82218         24.6649         4.38457 
        1.83797          24.513         4.29173 
        1.85367         24.1228         4.20208 
        1.86928         24.1353         4.11551 
        1.88497         23.6146         4.03089 
        1.90073         23.4256         3.94833 
        1.91647         23.1799         3.86815 
        1.93218           23.08         3.79034 
        1.94787         22.7624         3.71478 
        1.96363         22.4168         3.64097 
        1.97935         22.1903          3.5693 
        1.99499         22.0376         3.49996 
        2.01064         21.6678         3.43235 
         2.0264         21.5146         3.36608 
        2.04216         21.4051         3.30159 
        2.05781         21.1092         3.23919 
        2.07353          20.881         3.17817 
        2.08928           20.58         3.11858 
        2.10499         20.3914         3.06066 
        2.12065         20.1767         3.00438 
        2.13633          20.041         2.94946 
        2.15211         19.6959         2.89555 
        2.16785          19.652         2.84313 
        2.18349         19.4012         2.79233 
        2.19916         19.2044         2.74265 
        2.21489         18.9796         2.69402 
        2.23063         18.8713         2.64652 
         2.2463         18.6496         2.60037 
        2.26194         18.4347         2.55543 
        2.27765         18.2369         2.51132 
        2.29341         18.0047         2.46812 
        2.30914         17.8527         2.42603 
        2.32486         17.7354         2.38493 
        2.34061         17.5445         2.34472 
        2.35635         17.2979         2.30546 
        2.37203         17.1883         2.26723 
        2.38768         17.0084         2.22993 
        2.40339         16.9341         2.19334 
        2.41914          16.746         2.15748 
        2.43483         16.5994         2.12254 
         2.4505         16.3208         2.08843 
        2.46622         16.2219         2.05495 
        2.48195         16.0649         2.02219 
        2.49759         15.8409         1.99032 
        2.51328         15.7365         1.95905 
        2.52906          15.624         1.92825 
        2.54479         15.4601         1.89822 
        2.56049         15.3388         1.86888 
        2.57618         15.2392         1.84019 
        2.59189         15.0064         1.81205 
        2.60758         14.8336         1.78454 
        2.62325         14.7398         1.75763 
        2.63898         14.6579         1.73118 
        2.65468         14.4868         1.70532 
        2.67044          14.321         1.67988 
        2.68618         14.2004         1.65501 
        2.70184         14.0676         1.63074 
        2.71755         13.9113          1.6069 
        2.73329         13.8148         1.58349 
        2.74897         13.6866         1.56062 
        2.76462         13.5831         1.53825 
        2.78034         13.4124         1.51622 
        2.79607         13.3279          1.4946 
        2.81179         13.2307         1.47342 
        2.82749         13.0575         1.45268 
        2.84321         12.9862         1.43231 
        2.85893         12.8062         1.41233 
        2.87462         12.7311         1.39276 
        2.89033         12.6206         1.37355 
        2.90605         12.4979         1.35467 
        2.92176         12.3725         1.33616 
        2.93747         12.2812         1.31801 
        2.95318         12.1759         1.30018 
        2.96891         12.0502         1.28267 
        2.98456         11.9672         1.26556 
        3.00023         11.8559         1.24874 
        3.01596         11.7784         1.23217 
        3.03164          11.662         1.21594 
        3.04738         11.5449         1.19995 
         3.0631         11.4427         1.18426 
        3.07883         11.3604         1.16885 
        3.09456         11.2379          1.1537 
        3.11026         11.1688         1.13885 
        3.12596         11.0833         1.12426 
        3.14163         10.9542         1.10996 
        3.15734         10.8714         1.09587 
        3.17308         10.8127         1.08199 
        3.18879          10.666         1.06839 
        3.20447         10.6399         1.05504 
         3.2202         10.4957         1.04187 
         3.2359         10.4119         1.02895 
        3.25157         10.3617         1.01628 
        3.26729         10.2277         1.00379 
        3.28304         10.1474        0.991473 
        3.29877         10.1214        0.979381 
        3.31446          9.9959        0.967515 
        3.33014         9.93884        0.955855 
        3.34585         9.80176        0.944368 
        3.36158         9.74285        0.933052 
        3.37727         9.68718        0.921954 
        3.39294          9.5956        0.911047 
        3.40867         9.50255        0.900275 
        3.42439         9.41279        0.889682 
        3.44008         9.36727        0.879279 
        3.45578         9.25297        0.869033 
        3.47153         9.20094        0.858927 
        3.48724         9.14115        0.848998 
        3.50292         9.05856        0.839248 
        3.51859          8.9887        0.829655 
        3.53431         8.89099         0.82018 
        3.55007         8.83826         0.81083 
        3.56577         8.72965        0.801661 
        3.58146         8.66099        0.792637 
        3.59719         8.59254         0.78373 
        3.61292         8.55989        0.774961 
        3.62859          8.4772        0.766359 
        3.64429         8.39978         0.75787 
        3.66003         8.32646        0.749483 
        3.67578         8.26823        0.741225 
        3.69146         8.20416        0.733122 
        3.70712         8.13131        0.725153 
        3.72284         8.07207        0.717273 
        3.73853         8.01765        0.709522 
        3.75422         7.94855        0.701882 
        3.76993         7.86417        0.694348 
        3.78564         7.83369        0.686926 
        3.80137         7.75106          0.6796 
        3.81707         7.67563        0.672395 
        3.83279         7.62306        0.665288 
        3.84853         7.56927        0.658272 
        3.86424         7.49796        0.651369 
        3.87992         7.47444        0.644576 
        3.89561         7.39476        0.637878 
        3.91134         7.33814         0.63126 
        3.92704         7.28317        0.624744 
        3.94273         7.22228        0.618325 
        3.95845         7.15284        0.611985 
        3.97418         7.10503        0.605731 
        3.98988         7.07087        0.599572 
        4.00554         6.99266        0.593515 
        4.02125         6.95125        0.587524 
        4.03698         6.90769        0.581605 
        4.05268         6.83211        0.575781 
        4.06839         6.77399        0.570032 
         4.0841         6.72033        0.564363 
        4.09983         6.66628        0.558762 
        4.11555         6.60088        0.553239 
        4.13124         6.56069        0.547805 
        4.14693         6.50357        0.542438 
        4.16266          6.4703        0.537131 
        4.17839         6.39984        0.531898 
        4.19408         6.38032        0.526745 
        4.20977         6.29032        0.521658 
        4.22551         6.26944        0.516626 
        4.24123         6.22456        0.511665 
        4.25691         6.18395        0.506782 
        4.27259          6.1106         0.50196 
        4.28831         6.06918        0.497191 
        4.30404         6.03195        0.492479 
        4.31974         5.97933        0.487838 
        4.33543         5.92713        0.483259 
        4.35116         5.87039        0.478727 
        4.36688         5.83575        0.474255 
        4.38255         5.81116        0.469856 
        4.39825         5.74606        0.465503 
        4.41398         5.69691        0.461196 
         4.4297         5.66109        0.456947 
        4.44541         5.62234        0.452753 
        4.46111         5.59644        0.448614 
        4.47683         5.55249        0.444523 
        4.49251          5.5042        0.440491 
        4.50819         5.45677         0.43651 
         4.5239         5.40549        0.432572 
        4.53962         5.38132        0.428677 
        4.55535         5.33178        0.424828 
        4.57106         5.30566        0.421032 
        4.58678         5.25623        0.417281 
         4.6025         5.21488        0.413574 
        4.61821         5.18775        0.409912 
        4.63391         5.14205          0.4063 
         4.6496         5.10673        0.402731 
        4.66532         5.06913          0.3992 
        4.68103         5.03621        0.395713 
        4.69673         5.00073         0.39227 
        4.71241          4.9561        0.388871 
        4.72811         4.92291        0.385507 
        4.74384         4.90477        0.382178 
        4.75955         4.85691        0.378893 
        4.77525         4.82401        0.375648 
        4.79096         4.79628        0.372437 
        4.80669         4.75346        0.369261 
         4.8224         4.71869        0.366126 
        4.83809         4.68395         0.36303 
        4.85379         4.65047        0.359968 
         4.8695         4.62096        0.356939 
        4.88521         4.58785        0.353945 
        4.90093          4.5503        0.350985 
        4.91663         4.51697        0.348062 
        4.93234         4.48824        0.345168 
        4.94807         4.45664        0.342305 
        4.96377         4.42318        0.339479 
        4.97943         4.39348        0.336691 
        4.99514         4.36606        0.333927 
        5.01086         4.33839        0.331192 
        5.02654         4.30195        0.328494 
        5.04227         4.28371        0.325818 
          5.058         4.23788        0.323171 
        5.07371         4.21436        0.320557 
        5.08942         4.19109        0.317972 
        5.10513         4.15918        0.315415 
        5.12084         4.14007        0.312885 
        5.13656         4.09749        0.310383 
        5.15225         4.07405        0.307912 
        5.16796         4.04843        0.305464 
        5.18369            4.01         0.30304 
         5.1994         3.98506        0.300647 
        5.21509         3.96937        0.298281 
        5.23079         3.93828        0.295938 
        5.24649         3.91339        0.293621 
        5.26217          3.8878        0.291331 
        5.27788         3.86335        0.289062 
        5.29359         3.83357        0.286817 
        5.30933         3.81229        0.284591 
        5.32504         3.78289        0.282393 
        5.34073         3.76031        0.280221 
        5.35646         3.74663        0.278067 
        5.37218         3.70595        0.275935 
        5.38789         3.69179        0.273828 
        5.40357         3.65613        0.271746 
        5.41929         3.63202         0.26968 
        5.43502         3.61481        0.267636 
         5.4507          3.5906        0.265618 
        5.46639         3.56617         0.26362 
        5.48212         3.54871        0.261637 
        5.49786         3.51976        0.259673 
        5.51353          3.4979        0.257738 
        5.52921         3.47991        0.255821 
        5.54495         3.45705        0.253918 
        5.56066         3.43184        0.252036 
        5.57637         3.40344        0.250173 
        5.59207         3.38698         0.24833 
        5.60778         3.36239        0.246506 
        5.62346         3.34945        0.244701 
        5.63916         3.32579        0.242914 
        5.65487         3.30545        0.241142 
         5.6706         3.28622        0.239387 
        5.68633         3.25919        0.237648 
        5.70203         3.24611         0.23593 
        5.71773         3.22688        0.234229 
        5.73344         3.20314        0.232543 
        5.74916         3.18402        0.230873 
        5.76486         3.16118        0.229221 
        5.78054         3.14403        0.227588 
        5.79626         3.12612        0.225966 
          5.812         3.10676        0.224358 
         5.8277         3.07895         0.22277 
        5.84339         3.07034        0.221198 
        5.85911         3.05135        0.219637 
        5.87484         3.02788        0.218092 
        5.89053         3.01221        0.216565 
        5.90623         2.99493        0.215051 
        5.92195         2.97754        0.213549 
        5.93767         2.95552        0.212062 
        5.95336          2.9428        0.210592 
        5.96905         2.92066        0.209136 
        5.98476          2.9075        0.207692 
        6.00048         2.88713         0.20626 
        6.01617          2.8687        0.204844 
        6.03185         2.85506        0.203443 
        6.04756          2.8331        0.202052 
        6.06331         2.82578         0.20067 
        6.07903          2.7998        0.199305 
        6.09473         2.78874        0.197953 
        6.11044         2.76757        0.196612 
        6.12616         2.75487        0.195284 
        6.14186         2.73667         0.19397 
        6.15755         2.72137        0.192667 
        6.17326         2.70617        0.191375 
        6.18898         2.68657        0.190095 
        6.20467         2.67526        0.188828 
        6.22036         2.65798        0.187573 
         6.2361         2.64192        0.186326 
         6.2518         2.62719        0.185092 
        6.26748         2.61761        0.183872 
        6.28319         2.59964         0.18266 
        6.29893         2.58661        0.181457 
        6.31463         2.57045        0.180267 
        6.33033         2.55774        0.179088 
        6.34604         2.54288        0.177919 
        6.36177         2.53102        0.176759 
        6.37747         2.51136        0.175611 
