# k  (h/Mpc)    Pcb(k)  (Mpc/h)^3    Pcb_linear(k) (Mpc/h)^3   ShotnoiseSubtracted = true
      0.0200456         453.802         459.465 
      0.0350414         325.367         325.667 
      0.0492313         236.464         235.576 
      0.0637834         194.172         193.111 
      0.0800726         150.006          149.12 
       0.096163         107.612         107.554 
       0.111083         86.3659         86.7076 
       0.126058         76.2447         76.1401 
       0.142273         63.1723         62.7561 
       0.158546         49.9089          49.407 
        0.17375         42.1577         42.2533 
       0.188953         38.1348         38.0202 
       0.204907         33.6222         32.8693 
       0.220756         28.0505         27.6739 
        0.23588         24.6391         24.3582 
         0.2514         22.1862         22.0982 
       0.267535         19.8371         19.6674 
       0.283568         17.4586         17.2306 
       0.299022         15.7198         15.4506 
       0.314451         14.1497           14.13 
       0.330372         12.9587         12.8329 
       0.346141         11.7013         11.5717 
       0.361624         10.7066         10.5388 
       0.377134         9.92174         9.70405 
       0.392932         8.89739         8.93104 
       0.408854          8.3671         8.18899 
       0.424564         7.66881         7.54251 
       0.440253         7.10561         6.99279 
       0.455999         6.64711         6.49547 
       0.471626          6.2101         6.03436 
        0.48727         5.74896         5.61605 
       0.502856         5.34675          5.2461 
       0.518488         5.07803         4.91021 
       0.534347         4.79892         4.59527 
       0.550082         4.40306         4.30812 
       0.565732         4.07358         4.04888 
       0.581496          3.9292          3.8102 
       0.597222         3.72531          3.5902 
       0.612804         3.48311         3.38859 
       0.628434         3.33536         3.20207 
       0.644267         3.14286         3.02799 
       0.660051         2.96076         2.86733 
       0.675724         2.81607         2.71915 
       0.691403         2.69519         2.58125 
       0.707174         2.54538         2.45207 
       0.722871         2.41611         2.33218 
        0.73838         2.31946         2.22154 
       0.754018         2.23257         2.11719 
       0.769845         2.11217         2.01837 
        0.78569         2.02077         1.92572 
       0.801365          1.9258         1.83978 
       0.817031         1.85022         1.75912 
       0.832809         1.77086         1.68277 
       0.848511         1.68296         1.61129 
       0.864097         1.60691         1.54444 
       0.879701         1.54437         1.48131 
       0.895507         1.48872         1.42095 
       0.911279         1.44341         1.36408 
        0.92691         1.38207         1.31078 
       0.942635         1.32577         1.26002 
       0.958396         1.27072         1.21184 
       0.974128         1.22577         1.16626 
       0.989692         1.19016         1.12346 
        1.00528         1.14182         1.08275 
        1.02113         1.09264          1.0434 
        1.03692         1.06652         1.00615 
        1.05264         1.02641        0.970882 
        1.06832        0.995105        0.937353 
        1.08405        0.948714        0.905313 
        1.09979        0.921405        0.874745 
        1.11537        0.897224        0.845887 
        1.13105        0.869847        0.818153 
        1.14679        0.845344        0.791551 
        1.16256        0.809282        0.766076 
        1.17828        0.786371        0.741801 
        1.19395        0.760939        0.718656 
         1.2097        0.729963        0.696377 
        1.22537        0.716669        0.675146 
          1.241        0.695399         0.65486 
        1.25666        0.682724        0.635355 
        1.27241        0.652438        0.616549 
        1.28819        0.633913        0.598469 
        1.30392        0.619572        0.581165 
        1.31957        0.602274        0.564618 
        1.33529        0.583132        0.548653 
        1.35108        0.566159        0.533239 
        1.36674        0.545769        0.518526 
         1.3824        0.538028        0.504378 
        1.39811        0.521239        0.490709 
        1.41389        0.509163        0.477492 
        1.42964        0.496623        0.464782 
        1.44531         0.47983        0.452595 
        1.46101         0.47099        0.440817 
        1.47667        0.452278        0.429491 
        1.49229        0.446922        0.418592 
        1.50793        0.432446        0.408057 
        1.52367        0.423735        0.397815 
        1.53953        0.411256        0.387854 
        1.55526        0.402242        0.378312 
        1.57092        0.390796        0.369129 
        1.58662        0.383564        0.360228 
        1.60235        0.374554        0.351602 
        1.61809        0.362172        0.343252 
        1.63369        0.359755        0.335246 
        1.64941        0.347814        0.327437 
        1.66519        0.339243        0.319848 
        1.68085         0.33015        0.312551 
        1.69652        0.323158        0.305479 
        1.71228        0.317679        0.298585 
        1.72806        0.307566        0.291897 
        1.74368         0.30426        0.285479 
        1.75933        0.295823        0.279241 
        1.77505        0.289314        0.273159 
        1.79081        0.283888        0.267246 
         1.8065        0.275165        0.261533 
        1.82218        0.271072        0.255991 
        1.83797        0.264468        0.250571 
        1.85367        0.261134        0.245336 
        1.86928        0.254813        0.240282 
        1.88497         0.24933        0.235342 
        1.90073        0.243667        0.230522 
        1.91647         0.23943         0.22584 
        1.93218        0.233334        0.221298 
        1.94787         0.22897        0.216886 
        1.96363         0.22446        0.212576 
        1.97935          0.2191        0.208392 
        1.99499        0.215464        0.204344 
        2.01064        0.211249        0.200396 
         2.0264        0.206006        0.196527 
        2.04216        0.204052        0.192762 
        2.05781        0.199423        0.189119 
        2.07353        0.194024        0.185556 
        2.08928        0.190405        0.182077 
        2.10499        0.187609        0.178695 
        2.12065         0.18485         0.17541 
        2.13633        0.180776        0.172203 
        2.15211        0.177749        0.169056 
        2.16785        0.173791        0.165995 
        2.18349        0.169845        0.163029 
        2.19916        0.168154        0.160129 
        2.21489        0.164528        0.157289 
        2.23063        0.162107        0.154516 
         2.2463        0.158791        0.151822 
        2.26194        0.155036        0.149198 
        2.27765        0.152671        0.146622 
        2.29341        0.150396          0.1441 
        2.30914        0.147699        0.141643 
        2.32486        0.144879        0.139243 
        2.34061        0.142481        0.136895 
        2.35635        0.139536        0.134603 
        2.37203        0.137447        0.132371 
        2.38768        0.134859        0.130194 
        2.40339        0.133128        0.128057 
        2.41914        0.131073        0.125964 
        2.43483        0.128612        0.123924 
         2.4505        0.125619        0.121932 
        2.46622        0.123666        0.119977 
        2.48195        0.121904        0.118065 
        2.49759        0.120449        0.116204 
        2.51328        0.118228        0.114378 
        2.52906        0.116422         0.11258 
        2.54479         0.11406        0.110827 
        2.56049        0.111956        0.109114 
        2.57618        0.110193        0.107439 
        2.59189        0.108978        0.105796 
        2.60758        0.107538        0.104189 
        2.62325        0.105251        0.102618 
        2.63898        0.103803        0.101074 
        2.65468        0.101658       0.0995644 
        2.67044        0.100602        0.098079 
        2.68618       0.0990158       0.0966271 
        2.70184       0.0972704       0.0952102 
        2.71755       0.0954598        0.093818 
        2.73329         0.09441       0.0924513 
        2.74897       0.0931372       0.0911161 
        2.76462        0.091536       0.0898101 
        2.78034       0.0902327       0.0885241 
        2.79607       0.0885005       0.0872618 
        2.81179       0.0878293       0.0860253 
        2.82749        0.086102        0.084814 
        2.84321       0.0849663       0.0836246 
        2.85893       0.0840051       0.0824582 
        2.87462        0.082737       0.0813158 
        2.89033        0.081434       0.0801939 
        2.90605       0.0799389        0.079092 
        2.92176       0.0791287       0.0780113 
        2.93747       0.0777124       0.0769512 
        2.95318       0.0768381       0.0759104 
        2.96891       0.0756303       0.0748883 
        2.98456       0.0745591       0.0738893 
        3.00023       0.0736639       0.0729071 
        3.01596       0.0726047       0.0719394 
        3.03164       0.0719326        0.070992 
        3.04738       0.0705075       0.0700588 
         3.0631       0.0697121       0.0691426 
        3.07883       0.0686591       0.0682425 
        3.09456       0.0677907       0.0673586 
        3.11026       0.0667093       0.0664915 
        3.12596       0.0660082       0.0656397 
        3.14163         0.06507       0.0648047 
        3.15734       0.0644143       0.0639821 
        3.17308       0.0636801       0.0631718 
        3.18879       0.0626721       0.0623776 
        3.20447       0.0617139       0.0615981 
         3.2202       0.0613852       0.0608294 
         3.2359       0.0603983       0.0600751 
        3.25157       0.0594898       0.0593353 
        3.26729       0.0586757       0.0586056 
        3.28304       0.0583229       0.0578867 
        3.29877       0.0574223       0.0571807 
        3.31446       0.0567113        0.056488 
        3.33014       0.0562075       0.0558072 
        3.34585       0.0555456       0.0551366 
        3.36158       0.0548748       0.0544758 
        3.37727       0.0542556       0.0538279 
        3.39294       0.0535462       0.0531911 
        3.40867       0.0528925       0.0525622 
        3.42439       0.0522705       0.0519437 
        3.44008       0.0515109       0.0513363 
        3.45578        0.051217       0.0507381 
        3.47153       0.0505249       0.0501481 
        3.48724       0.0501023       0.0495684 
        3.50292       0.0494142       0.0489991 
        3.51859       0.0488284        0.048439 
        3.53431       0.0482852       0.0478859 
        3.55007       0.0479189         0.04734 
        3.56577        0.047302       0.0468046 
        3.58146       0.0469243       0.0462778 
        3.59719       0.0465203       0.0457577 
        3.61292        0.046002       0.0452458 
        3.62859       0.0454208       0.0447436 
        3.64429       0.0450081       0.0442479 
        3.66003       0.0446125       0.0437583 
        3.67578       0.0440219       0.0432761 
        3.69146       0.0435457        0.042803 
        3.70712       0.0433728       0.0423378 
        3.72284       0.0430034       0.0418777 
        3.73853       0.0424552       0.0414252 
        3.75422        0.042148       0.0409791 
        3.76993       0.0415567       0.0405392 
        3.78564       0.0412986       0.0401059 
        3.80137       0.0408496       0.0396782 
        3.81707       0.0404853       0.0392575 
        3.83279       0.0402145       0.0388426 
        3.84853       0.0398283       0.0384329 
        3.86424       0.0394383       0.0380299 
        3.87992       0.0390216       0.0376333 
        3.89561       0.0386514       0.0372422 
        3.91134       0.0383876       0.0368559 
        3.92704       0.0380079       0.0364754 
        3.94273       0.0376113       0.0361007 
        3.95845       0.0373412       0.0357305 
        3.97418       0.0370447       0.0353653 
        3.98988        0.036562       0.0350058 
        4.00554       0.0363277       0.0346521 
        4.02125       0.0358598       0.0343023 
        4.03698       0.0353121       0.0339568 
        4.05268        0.034891       0.0336168 
        4.06839       0.0345506       0.0332811 
         4.0841       0.0340211       0.0329501 
        4.09983        0.033618       0.0326231 
        4.11555       0.0331211       0.0323006 
        4.13124       0.0326864       0.0319833 
        4.14693       0.0322476         0.03167 
        4.16266       0.0319418       0.0313602 
        4.17839       0.0315579       0.0310546 
        4.19408       0.0312058       0.0307538 
        4.20977       0.0308477       0.0304568 
        4.22551       0.0304765        0.030163 
        4.24123       0.0301998       0.0298733 
        4.25691       0.0298225       0.0295882 
        4.27259       0.0295532       0.0293067 
        4.28831        0.029275       0.0290283 
        4.30404       0.0290348       0.0287532 
        4.31974       0.0288196       0.0284822 
        4.33543       0.0285621       0.0282149 
        4.35116       0.0283587       0.0279503 
        4.36688       0.0280769       0.0276892 
        4.38255       0.0278908       0.0274323 
        4.39825       0.0276865       0.0271782 
        4.41398       0.0276171       0.0269267 
         4.4297       0.0274658       0.0266787 
        4.44541       0.0272615       0.0264338 
        4.46111       0.0271787       0.0261921 
        4.47683       0.0270089       0.0259533 
        4.49251       0.0268414       0.0257179 
        4.50819       0.0267624       0.0254855 
         4.5239       0.0266324       0.0252555 
        4.53962        0.026584       0.0250282 
        4.55535       0.0265186       0.0248034 
        4.57106       0.0265026       0.0245818 
        4.58678       0.0263112       0.0243628 
         4.6025       0.0263782       0.0241463 
        4.61821       0.0264529       0.0239326 
        4.63391       0.0263911       0.0237216 
         4.6496       0.0263056       0.0235133 
        4.66532       0.0264098       0.0233072 
        4.68103       0.0263952       0.0231035 
        4.69673       0.0264142       0.0229025 
        4.71241       0.0264802       0.0227041 
        4.72811       0.0264982       0.0225077 
        4.74384       0.0265791       0.0223133 
        4.75955       0.0267088       0.0221215 
        4.77525       0.0268321        0.021932 
        4.79096       0.0268515       0.0217446 
        4.80669       0.0269348       0.0215592 
         4.8224        0.027157       0.0213761 
        4.83809       0.0273114       0.0211954 
        4.85379       0.0273693       0.0210166 
         4.8695       0.0276428       0.0208397 
        4.88521       0.0277508       0.0206649 
        4.90093       0.0280612       0.0204921 
        4.91663       0.0282187       0.0203214 
        4.93234       0.0282576       0.0201525 
        4.94807        0.028552       0.0199853 
        4.96377       0.0288617       0.0198204 
        4.97943       0.0292204       0.0196576 
        4.99514        0.029279       0.0194962 
        5.01086       0.0296709       0.0193365 
        5.02654       0.0298817        0.019179 
        5.04227       0.0301761       0.0190228 
          5.058       0.0305843       0.0188682 
        5.07371       0.0308884       0.0187156 
        5.08942       0.0311873       0.0185647 
        5.10513       0.0316958       0.0184154 
        5.12084       0.0320448       0.0182677 
        5.13656       0.0323847       0.0181216 
        5.15225        0.032824       0.0179773 
        5.16796       0.0332477       0.0178344 
        5.18369       0.0336932       0.0176929 
         5.1994       0.0341588       0.0175531 
        5.21509       0.0345649        0.017415 
        5.23079        0.035017       0.0172782 
        5.24649       0.0356156        0.017143 
        5.26217       0.0361834       0.0170093 
        5.27788       0.0367408       0.0168768 
        5.29359       0.0373487       0.0167457 
        5.30933       0.0378337       0.0166158 
        5.32504       0.0384686       0.0164874 
        5.34073       0.0391593       0.0163606 
        5.35646       0.0398347       0.0162348 
        5.37218       0.0404093       0.0161103 
        5.38789        0.041375       0.0159873 
        5.40357       0.0417865       0.0158658 
        5.41929       0.0426539       0.0157452 
        5.43502       0.0433168       0.0156258 
         5.4507       0.0440462        0.015508 
        5.46639       0.0451268       0.0153913 
        5.48212       0.0456867       0.0152756 
        5.49786       0.0467419       0.0151609 
        5.51353       0.0478875       0.0150479 
        5.52921       0.0484001        0.014936 
        5.54495       0.0495116       0.0148249 
        5.56066       0.0504468        0.014715 
        5.57637       0.0514237       0.0146062 
        5.59207       0.0527548       0.0144987 
        5.60778       0.0537736       0.0143921 
        5.62346       0.0547228       0.0142868 
        5.63916       0.0560032       0.0141824 
        5.65487       0.0571238        0.014079 
         5.6706        0.058034       0.0139765 
        5.68633       0.0595109        0.013875 
        5.70203       0.0604059       0.0137747 
        5.71773       0.0622155       0.0136753 
        5.73344       0.0633988        0.013577 
        5.74916       0.0648753       0.0134794 
        5.76486       0.0663521        0.013383 
        5.78054       0.0674908       0.0132876 
        5.79626       0.0688575       0.0131929 
          5.812       0.0707759        0.013099 
         5.8277       0.0721064       0.0130063 
        5.84339       0.0737166       0.0129145 
        5.85911       0.0757782       0.0128234 
        5.87484       0.0770108       0.0127332 
        5.89053       0.0793091        0.012644 
        5.90623       0.0810584       0.0125557 
        5.92195        0.083183        0.012468 
        5.93767       0.0851891       0.0123812 
        5.95336       0.0865723       0.0122953 
        5.96905       0.0890712       0.0122103 
        5.98476       0.0910745        0.012126 
        6.00048       0.0926803       0.0120424 
        6.01617       0.0951856       0.0119598 
        6.03185       0.0978734        0.011878 
        6.04756        0.100124       0.0117967 
        6.06331        0.101944       0.0117161 
        6.07903        0.104907       0.0116363 
        6.09473        0.107868       0.0115574 
        6.11044        0.110484       0.0114791 
        6.12616        0.112797       0.0114016 
        6.14186         0.11589       0.0113248 
        6.15755        0.118505       0.0112488 
        6.17326        0.121896       0.0111734 
        6.18898        0.123839       0.0110986 
        6.20467        0.127945       0.0110247 
        6.22036        0.130318       0.0109514 
         6.2361        0.134059       0.0108786 
         6.2518        0.137076       0.0108065 
        6.26748        0.139778       0.0107353 
        6.28319        0.143666       0.0106645 
        6.29893        0.147621       0.0105943 
        6.31463        0.150804       0.0105248 
        6.33033        0.154841        0.010456 
        6.34604        0.159499       0.0103877 
        6.36177        0.162217         0.01032 
        6.37747        0.166926        0.010253 
