# k  (h/Mpc)    Pcb(k)  (Mpc/h)^3    Pcb_linear(k) (Mpc/h)^3   ShotnoiseSubtracted = true
      0.0200456         4561.88         4628.68 
      0.0350414          3231.9         3280.79 
      0.0492313         2372.46          2373.2 
      0.0637834         1977.43         1945.41 
      0.0800726         1528.86         1502.25 
       0.096163         1074.14         1083.51 
       0.111083         859.885         873.497 
       0.126058          776.93          767.04 
       0.142273         652.487         632.208 
       0.158546         525.028         497.729 
        0.17375         432.168         425.663 
       0.188953          404.15         383.018 
       0.204907         369.102         331.127 
       0.220756         307.046         278.788 
        0.23588         269.538         245.386 
         0.2514         238.674         222.618 
       0.267535         221.227         198.131 
       0.283568         198.225         173.582 
       0.299022         181.703          155.65 
       0.314451         164.169         142.346 
       0.330372         151.713         129.279 
       0.346141         136.257         116.574 
       0.361624         128.081         106.169 
       0.377134          120.31         97.7592 
       0.392932         107.814         89.9719 
       0.408854         103.339         82.4963 
       0.424564         98.3414         75.9837 
       0.440253         91.2234         70.4458 
       0.455999         85.5882         65.4358 
       0.471626         79.3222         60.7905 
        0.48727         76.3287         56.5764 
       0.502856          72.235         52.8495 
       0.518488         69.3143         49.4658 
       0.534347         66.4626          46.293 
       0.550082         60.8991         43.4003 
       0.565732         57.5984         40.7886 
       0.581496         55.7661         38.3842 
       0.597222         53.8364         36.1679 
       0.612804         50.5999         34.1368 
       0.628434          49.103         32.2579 
       0.644267          47.619         30.5042 
       0.660051         45.6368         28.8857 
       0.675724         43.4065         27.3929 
       0.691403         42.0452         26.0036 
       0.707174         40.6879         24.7023 
       0.722871         39.1825         23.4946 
        0.73838         37.9706         22.3799 
       0.754018         36.1887         21.3287 
       0.769845         35.2481         20.3331 
        0.78569         34.1984         19.3999 
       0.801365          32.895          18.534 
       0.817031         32.1021         17.7215 
       0.832809         31.4635         16.9524 
       0.848511         29.6572         16.2322 
       0.864097         29.1048         15.5588 
       0.879701         28.4422         14.9228 
       0.895507         27.8856         14.3148 
       0.911279         26.9362         13.7418 
        0.92691         26.3024         13.2049 
       0.942635         25.2783         12.6936 
       0.958396         24.9397         12.2082 
       0.974128         24.1501          11.749 
       0.989692         23.8376         11.3178 
        1.00528         23.2676         10.9076 
        1.02113         22.3743         10.5113 
        1.03692         21.8964          10.136 
        1.05264         21.5545         9.78072 
        1.06832         20.9425         9.44295 
        1.08405         20.4761         9.12017 
        1.09979         20.0479         8.81224 
        1.11537         19.5859         8.52151 
        1.13105         19.3458         8.24212 
        1.14679         19.0508         7.97413 
        1.16256         18.3411          7.7175 
        1.17828         18.2256         7.47295 
        1.19395         17.6767         7.23978 
         1.2097         17.5292         7.01534 
        1.22537         17.1164         6.80146 
          1.241         16.7685          6.5971 
        1.25666          16.332          6.4006 
        1.27241         16.0466         6.21115 
        1.28819         15.7027         6.02902 
        1.30392         15.5633         5.85469 
        1.31957         15.3687           5.688 
        1.33529         15.0973         5.52716 
        1.35108         14.7393         5.37189 
        1.36674         14.5457         5.22366 
         1.3824         14.2159         5.08113 
        1.39811          14.012         4.94343 
        1.41389          13.858         4.81028 
        1.42964         13.6112         4.68224 
        1.44531         13.4949         4.55947 
        1.46101         13.1031         4.44082 
        1.47667          12.953         4.32672 
        1.49229         12.7884         4.21692 
        1.50793         12.6002         4.11079 
        1.52367         12.4022         4.00761 
        1.53953         12.2489         3.90727 
        1.55526         12.0371         3.81114 
        1.57092         11.8235         3.71863 
        1.58662         11.7267         3.62896 
        1.60235         11.5292         3.54206 
        1.61809         11.3886         3.45794 
        1.63369         11.2283         3.37729 
        1.64941         11.0107         3.29862 
        1.66519         10.9483         3.22216 
        1.68085         10.7624         3.14866 
        1.69652         10.6179         3.07742 
        1.71228         10.4668         3.00796 
        1.72806         10.3844         2.94058 
        1.74368         10.2063         2.87593 
        1.75933         10.0987         2.81309 
        1.77505         9.96786         2.75182 
        1.79081         9.80399         2.69226 
         1.8065          9.7368          2.6347 
        1.82218         9.54693         2.57887 
        1.83797         9.45455         2.52426 
        1.85367         9.32676         2.47153 
        1.86928         9.30156         2.42062 
        1.88497         9.09796         2.37085 
        1.90073         9.07455         2.32229 
        1.91647         8.95355         2.27513 
        1.93218         8.87099         2.22936 
        1.94787         8.73267         2.18492 
        1.96363         8.66644         2.14151 
        1.97935         8.52054         2.09936 
        1.99499          8.4044         2.05857 
        2.01064         8.33311          2.0188 
         2.0264         8.25515         1.97983 
        2.04216         8.15127          1.9419 
        2.05781         8.03071         1.90519 
        2.07353         7.98604          1.8693 
        2.08928         7.89086         1.83425 
        2.10499         7.83992         1.80019 
        2.12065         7.70618         1.76709 
        2.13633         7.69213         1.73478 
        2.15211          7.5602         1.70308 
        2.16785         7.51391         1.67224 
        2.18349          7.4476         1.64236 
        2.19916         7.35544         1.61315 
        2.21489         7.27568         1.58454 
        2.23063         7.19868          1.5566 
         2.2463         7.10875         1.52946 
        2.26194         7.03849         1.50303 
        2.27765         7.01178         1.47708 
        2.29341         6.92497         1.45168 
        2.30914         6.81457         1.42692 
        2.32486         6.76144         1.40275 
        2.34061         6.70961         1.37909 
        2.35635          6.6697           1.356 
        2.37203         6.60139         1.33351 
        2.38768         6.48506         1.31158 
        2.40339         6.46609         1.29006 
        2.41914         6.37143         1.26896 
        2.43483         6.35161         1.24842 
         2.4505         6.29194         1.22835 
        2.46622         6.22607         1.20866 
        2.48195         6.15939         1.18939 
        2.49759         6.11783         1.17065 
        2.51328         6.05393         1.15225 
        2.52906         6.01831         1.13414 
        2.54479         5.94748         1.11647 
        2.56049         5.92027         1.09922 
        2.57618         5.86423         1.08234 
        2.59189          5.7776         1.06579 
        2.60758         5.76833         1.04961 
        2.62325         5.69752         1.03378 
        2.63898         5.62111         1.01823 
        2.65468         5.56226         1.00302 
        2.67044         5.54196        0.988053 
        2.68618         5.49444        0.973427 
        2.70184         5.44627        0.959153 
        2.71755         5.39309        0.945128 
        2.73329         5.35414         0.93136 
        2.74897         5.32417        0.917909 
        2.76462         5.28622        0.904752 
        2.78034         5.21112        0.891797 
        2.79607         5.17544         0.87908 
        2.81179         5.14564        0.866624 
        2.82749         5.09385        0.854422 
        2.84321         5.08739        0.842439 
        2.85893         5.03583        0.830688 
        2.87462         4.96842         0.81918 
        2.89033         4.93368        0.807878 
        2.90605         4.89276        0.796778 
        2.92176         4.84784         0.78589 
        2.93747         4.81302        0.775211 
        2.95318         4.78893        0.764726 
        2.96891         4.73476        0.754429 
        2.98456         4.69545        0.744366 
        3.00023          4.6514         0.73447 
        3.01596         4.62619        0.724722 
        3.03164         4.60514        0.715178 
        3.04738         4.56964        0.705777 
         3.0631         4.51975        0.696546 
        3.07883          4.4885        0.687479 
        3.09456         4.45177        0.678574 
        3.11026         4.42647        0.669839 
        3.12596         4.39383        0.661258 
        3.14163         4.34577        0.652846 
        3.15734          4.3189         0.64456 
        3.17308          4.2879        0.636396 
        3.18879          4.2484        0.628395 
        3.20447         4.23755        0.620542 
         3.2202         4.17596        0.612799 
         3.2359         4.16621          0.6052 
        3.25157         4.12701        0.597747 
        3.26729         4.11568        0.590397 
        3.28304         4.07144        0.583154 
        3.29877         4.03563        0.576042 
        3.31446         4.00739        0.569063 
        3.33014         3.98634        0.562205 
        3.34585         3.96228        0.555449 
        3.36158         3.92408        0.548793 
        3.37727         3.90376        0.542266 
        3.39294         3.88633         0.53585 
        3.40867         3.83814        0.529515 
        3.42439         3.82793        0.523284 
        3.44008         3.78965        0.517165 
        3.45578          3.7569        0.511139 
        3.47153         3.73837        0.505195 
        3.48724         3.71255        0.499355 
        3.50292         3.69162         0.49362 
        3.51859         3.66334        0.487978 
        3.53431         3.62678        0.482405 
        3.55007         3.61487        0.476906 
        3.56577         3.59283        0.471513 
        3.58146         3.57652        0.466205 
        3.59719         3.54632        0.460966 
        3.61292         3.52394        0.455809 
        3.62859         3.48763        0.450749 
        3.64429         3.46775        0.445756 
        3.66003         3.44618        0.440823 
        3.67578         3.42667        0.435966 
        3.69146          3.3842          0.4312 
        3.70712         3.37911        0.426513 
        3.72284         3.35667        0.421878 
        3.73853         3.33164        0.417319 
        3.75422         3.30623        0.412826 
        3.76993         3.28722        0.408394 
        3.78564         3.26705        0.404029 
        3.80137         3.25456         0.39972 
        3.81707         3.22311        0.395482 
        3.83279         3.20014        0.391302 
        3.84853         3.17472        0.387175 
        3.86424         3.15546        0.383116 
        3.87992         3.13715         0.37912 
        3.89561         3.13117         0.37518 
        3.91134         3.09387        0.371288 
        3.92704         3.07552        0.367456 
        3.94273         3.05815         0.36368 
        3.95845         3.03675        0.359951 
        3.97418         3.01961        0.356272 
        3.98988          3.0041         0.35265 
        4.00554         2.97744        0.349088 
        4.02125         2.95481        0.345564 
        4.03698          2.9345        0.342083 
        4.05268         2.91026        0.338657 
        4.06839         2.90322        0.335276 
         4.0841         2.87532        0.331941 
        4.09983         2.85549        0.328647 
        4.11555         2.83698        0.325398 
        4.13124         2.81717        0.322202 
        4.14693         2.79937        0.319046 
        4.16266         2.78408        0.315924 
        4.17839         2.76263        0.312846 
        4.19408         2.73962        0.309816 
        4.20977         2.72714        0.306824 
        4.22551         2.70183        0.303864 
        4.24123         2.68814        0.300946 
        4.25691         2.67065        0.298074 
        4.27259         2.66176        0.295238 
        4.28831         2.63666        0.292433 
        4.30404         2.62098        0.289661 
        4.31974         2.60627        0.286932 
        4.33543         2.58584        0.284238 
        4.35116          2.5668        0.281573 
        4.36688         2.55941        0.278942 
        4.38255         2.53772        0.276355 
        4.39825         2.52442        0.273795 
        4.41398         2.51558        0.271261 
         4.4297         2.49356        0.268763 
        4.44541         2.47993        0.266295 
        4.46111         2.46694        0.263861 
        4.47683         2.43939        0.261455 
        4.49251         2.43486        0.259084 
        4.50819         2.41819        0.256742 
         4.5239         2.40391        0.254426 
        4.53962         2.39284        0.252135 
        4.55535          2.3778        0.249871 
        4.57106         2.36272        0.247638 
        4.58678         2.34893        0.245432 
         4.6025         2.33457        0.243252 
        4.61821         2.32381        0.241098 
        4.63391         2.31078        0.238973 
         4.6496         2.29845        0.236874 
        4.66532         2.27484        0.234798 
        4.68103          2.2658        0.232746 
        4.69673         2.25298        0.230721 
        4.71241         2.23758        0.228722 
        4.72811         2.22849        0.226744 
        4.74384         2.21808        0.224785 
        4.75955         2.20606        0.222853 
        4.77525         2.19718        0.220945 
        4.79096         2.17623        0.219056 
        4.80669         2.16467        0.217188 
         4.8224         2.16324        0.215344 
        4.83809         2.14546        0.213523 
        4.85379         2.13633        0.211722 
         4.8695         2.12312        0.209941 
        4.88521         2.10729         0.20818 
        4.90093         2.09862        0.206439 
        4.91663         2.08601        0.204719 
        4.93234         2.07268        0.203017 
        4.94807         2.06342        0.201333 
        4.96377         2.05257        0.199671 
        4.97943          2.0423        0.198032 
        4.99514         2.02714        0.196406 
        5.01086         2.01733        0.194797 
        5.02654         2.00506         0.19321 
        5.04227          1.9986        0.191636 
          5.058         1.99064        0.190079 
        5.07371         1.97781        0.188542 
        5.08942         1.96774        0.187022 
        5.10513         1.95775        0.185518 
        5.12084         1.94785         0.18403 
        5.13656         1.93698        0.182558 
        5.15225         1.92386        0.181105 
        5.16796         1.91339        0.179665 
        5.18369         1.90498        0.178239 
         5.1994         1.90157        0.176831 
        5.21509         1.88735         0.17544 
        5.23079         1.87914        0.174062 
        5.24649         1.86983        0.172699 
        5.26217         1.86182        0.171352 
        5.27788         1.84624        0.170018 
        5.29359         1.84148        0.168697 
        5.30933         1.83504        0.167388 
        5.32504         1.82097        0.166095 
        5.34073         1.81276        0.164817 
        5.35646         1.80412         0.16355 
        5.37218         1.79168        0.162296 
        5.38789         1.79116        0.161057 
        5.40357         1.78078        0.159833 
        5.41929         1.77186        0.158618 
        5.43502         1.76448        0.157415 
         5.4507         1.75791        0.156228 
        5.46639         1.74728        0.155053 
        5.48212         1.73998        0.153887 
        5.49786          1.7344        0.152732 
        5.51353         1.71831        0.151594 
        5.52921         1.71291        0.150466 
        5.54495         1.70914        0.149347 
        5.56066         1.70053         0.14824 
        5.57637         1.69124        0.147144 
        5.59207         1.68491         0.14606 
        5.60778         1.68012        0.144987 
        5.62346          1.6701        0.143926 
        5.63916         1.65969        0.142874 
        5.65487         1.65065        0.141833 
         5.6706         1.64702          0.1408 
        5.68633         1.63898        0.139777 
        5.70203         1.62955        0.138767 
        5.71773         1.62323        0.137766 
        5.73344         1.61803        0.136775 
        5.74916          1.6054        0.135793 
        5.76486         1.60369        0.134821 
        5.78054         1.59758         0.13386 
        5.79626         1.58783        0.132906 
          5.812         1.58011        0.131961 
         5.8277          1.5711        0.131027 
        5.84339         1.56819        0.130102 
        5.85911         1.56081        0.129184 
        5.87484         1.55516        0.128275 
        5.89053         1.54772        0.127377 
        5.90623         1.54073        0.126486 
        5.92195         1.53394        0.125603 
        5.93767         1.53046        0.124729 
        5.95336         1.51938        0.123864 
        5.96905         1.51559        0.123007 
        5.98476         1.50529        0.122158 
        6.00048         1.49961        0.121316 
        6.01617         1.49678        0.120483 
        6.03185         1.49036        0.119659 
        6.04756         1.48231        0.118841 
        6.06331         1.47826        0.118028 
        6.07903         1.47097        0.117225 
        6.09473         1.47018         0.11643 
        6.11044         1.46075        0.115641 
        6.12616         1.45392         0.11486 
        6.14186         1.44664        0.114087 
        6.15755         1.44111        0.113321 
        6.17326         1.43732        0.112561 
        6.18898          1.4305        0.111808 
        6.20467           1.425        0.111063 
        6.22036         1.41901        0.110325 
         6.2361         1.41317        0.109591 
         6.2518         1.40742        0.108866 
        6.26748         1.40088        0.108148 
        6.28319          1.3975        0.107435 
        6.29893         1.39517        0.106728 
        6.31463         1.38614        0.106028 
        6.33033         1.37711        0.105334 
        6.34604         1.37284        0.104647 
        6.36177         1.37194        0.103964 
        6.37747         1.36521        0.103289 
