# k  (h/Mpc)    Pcb(k)  (Mpc/h)^3    Pcb_linear(k) (Mpc/h)^3   ShotnoiseSubtracted = true
      0.0200456         9982.38         10152.5 
      0.0350414         7009.23         7196.06 
      0.0492313         5172.71         5205.37 
      0.0637834         4357.75         4267.04 
      0.0800726         3368.26         3295.02 
       0.096163         2341.72         2376.56 
       0.111083         1877.75         1915.92 
       0.126058         1713.67         1682.42 
       0.142273         1450.85         1386.68 
       0.158546         1200.38         1091.72 
        0.17375          972.55         933.646 
       0.188953         930.345         840.108 
       0.204907         860.858         726.292 
       0.220756         726.041         611.492 
        0.23588         639.606         538.228 
         0.2514         559.112         488.289 
       0.267535         536.363         434.579 
       0.283568         484.079         380.735 
       0.299022          449.94         341.402 
       0.314451         418.789         312.221 
       0.330372         385.413          283.56 
       0.346141           346.8         255.692 
       0.361624         332.774          232.87 
       0.377134          309.48         214.424 
       0.392932         289.574         197.344 
       0.408854          277.02         180.947 
       0.424564         263.792         166.662 
       0.440253         252.417         154.515 
       0.455999          236.85         143.526 
       0.471626         219.845         133.337 
        0.48727         212.664         124.094 
       0.502856         204.849          115.92 
       0.518488         201.374         108.498 
       0.534347         190.062         101.539 
       0.550082          177.29         95.1938 
       0.565732         172.923         89.4655 
       0.581496          164.39         84.1916 
       0.597222         159.641         79.3305 
       0.612804         153.184         74.8754 
       0.628434         148.375         70.7542 
       0.644267         143.228         66.9076 
       0.660051         141.116         63.3576 
       0.675724         137.172         60.0833 
       0.691403         132.817         57.0362 
       0.707174         127.151         54.1818 
       0.722871         125.732         51.5328 
        0.73838         122.901         49.0879 
       0.754018         118.172         46.7822 
       0.769845         115.211         44.5986 
        0.78569         112.763         42.5515 
       0.801365         109.345         40.6524 
       0.817031         105.492         38.8701 
       0.832809         104.003         37.1832 
       0.848511         100.862         35.6037 
       0.864097         98.4634         34.1265 
       0.879701         96.6476         32.7315 
       0.895507         94.3594         31.3979 
       0.911279         92.6142         30.1412 
        0.92691         91.0274         28.9635 
       0.942635         88.3639          27.842 
       0.958396         88.0393         26.7773 
       0.974128         85.5625         25.7701 
       0.989692          83.384         24.8245 
        1.00528         81.5706         23.9248 
        1.02113         80.7123         23.0554 
        1.03692         77.7455         22.2323 
        1.05264         77.6152          21.453 
        1.06832         75.3747         20.7121 
        1.08405          74.292         20.0041 
        1.09979         73.8568         19.3287 
        1.11537         71.2121          18.691 
        1.13105          71.276         18.0782 
        1.14679         69.9498         17.4904 
        1.16256         68.8375         16.9275 
        1.17828         67.0237         16.3911 
        1.19395         66.2486         15.8797 
         1.2097         64.5692         15.3874 
        1.22537         64.7076         14.9183 
          1.241           63.02           14.47 
        1.25666         61.7088          14.039 
        1.27241         60.9581         13.6235 
        1.28819          59.854          13.224 
        1.30392         59.0847         12.8416 
        1.31957         58.3243          12.476 
        1.33529         57.1981         12.1232 
        1.35108         56.8684         11.7827 
        1.36674         56.0962         11.4575 
         1.3824         54.8125         11.1449 
        1.39811         54.2982         10.8429 
        1.41389         53.4383         10.5508 
        1.42964         52.7946           10.27 
        1.44531         51.7454         10.0007 
        1.46101         50.9179         9.74046 
        1.47667         50.8617          9.4902 
        1.49229         49.9587         9.24936 
        1.50793         49.4212         9.01658 
        1.52367         48.4944         8.79027 
        1.53953         47.9484         8.57017 
        1.55526         47.4174         8.35933 
        1.57092         47.0622         8.15642 
        1.58662         46.2556         7.95973 
        1.60235         45.7492         7.76912 
        1.61809         45.1048         7.58462 
        1.63369         44.3051         7.40772 
        1.64941         43.8855         7.23517 
        1.66519         43.0809         7.06747 
        1.68085         42.8018         6.90625 
        1.69652         42.0925         6.74998 
        1.71228         41.7882         6.59764 
        1.72806         41.3637         6.44986 
        1.74368         40.6519         6.30805 
        1.75933          40.272         6.17021 
        1.77505         39.7967         6.03582 
        1.79081          39.277         5.90518 
         1.8065         38.8945         5.77893 
        1.82218         38.3725         5.65647 
        1.83797         37.7838         5.53671 
        1.85367         37.3277         5.42105 
        1.86928         36.9154         5.30937 
        1.88497         36.6961         5.20021 
        1.90073         36.1996          5.0937 
        1.91647         35.7552         4.99025 
        1.93218         35.4252         4.88987 
        1.94787         34.9852         4.79239 
        1.96363         34.5954         4.69717 
        1.97935          34.122         4.60471 
        1.99499         33.7733         4.51525 
        2.01064         33.4862         4.42803 
         2.0264         32.8748         4.34254 
        2.04216         32.6247         4.25935 
        2.05781          32.175         4.17884 
        2.07353          31.863         4.10011 
        2.08928         31.6977         4.02324 
        2.10499         31.2034         3.94852 
        2.12065         30.8063         3.87592 
        2.13633         30.6851         3.80506 
        2.15211         30.2258         3.73552 
        2.16785         29.6763         3.66789 
        2.18349         29.5191         3.60235 
        2.19916         29.2764         3.53826 
        2.21489         28.8579         3.47552 
        2.23063         28.5805         3.41424 
         2.2463         28.1878         3.35471 
        2.26194         27.9184         3.29673 
        2.27765          27.642         3.23982 
        2.29341         27.3705          3.1841 
        2.30914         27.1149         3.12979 
        2.32486         26.7161         3.07677 
        2.34061         26.5356         3.02489 
        2.35635         26.2728         2.97424 
        2.37203         26.0434         2.92492 
        2.38768         25.6673         2.87681 
        2.40339         25.5273          2.8296 
        2.41914         25.2609         2.78334 
        2.43483          24.861         2.73827 
         2.4505         24.6773         2.69426 
        2.46622         24.4501         2.65106 
        2.48195         24.1966         2.60881 
        2.49759         23.9548         2.56769 
        2.51328         23.6049         2.52735 
        2.52906           23.54         2.48761 
        2.54479         23.1702         2.44887 
        2.56049          22.942         2.41102 
        2.57618         22.6843           2.374 
        2.59189         22.6121          2.3377 
        2.60758         22.3215         2.30221 
        2.62325         22.0098         2.26749 
        2.63898         21.9275         2.23337 
        2.65468         21.6071         2.20001 
        2.67044         21.4438         2.16719 
        2.68618         21.1631         2.13511 
        2.70184         20.9749          2.1038 
        2.71755         20.8425         2.07304 
        2.73329          20.576         2.04284 
        2.74897          20.334         2.01334 
        2.76462         20.1815         1.98448 
        2.78034         20.0761         1.95606 
        2.79607         19.8531         1.92817 
        2.81179         19.6182         1.90085 
        2.82749         19.4737         1.87408 
        2.84321         19.2241          1.8478 
        2.85893         18.9857         1.82203 
        2.87462         18.8557         1.79678 
        2.89033          18.738         1.77199 
        2.90605         18.5438         1.74765 
        2.92176         18.3696         1.72377 
        2.93747         18.2145         1.70034 
        2.95318         17.9768         1.67734 
        2.96891         17.8562         1.65476 
        2.98456         17.6554         1.63269 
        3.00023         17.4565         1.61098 
        3.01596         17.3261          1.5896 
        3.03164         17.1507         1.56867 
        3.04738         17.0008         1.54805 
         3.0631         16.8686          1.5278 
        3.07883         16.7151         1.50791 
        3.09456          16.511         1.48838 
        3.11026          16.372         1.46922 
        3.12596         16.2361          1.4504 
        3.14163         16.1064         1.43195 
        3.15734         15.9324         1.41377 
        3.17308         15.7838         1.39587 
        3.18879         15.6315         1.37832 
        3.20447         15.4968         1.36109 
         3.2202         15.3715         1.34411 
         3.2359         15.1705         1.32744 
        3.25157         15.1165         1.31109 
        3.26729         14.9889         1.29497 
        3.28304         14.8305         1.27909 
        3.29877         14.5902         1.26349 
        3.31446         14.5208         1.24818 
        3.33014         14.3875         1.23314 
        3.34585          14.217         1.21832 
        3.36158         14.1357         1.20372 
        3.37727         13.9911          1.1894 
        3.39294         13.8299         1.17533 
        3.40867         13.7257         1.16143 
        3.42439         13.6184         1.14777 
        3.44008         13.4788         1.13435 
        3.45578         13.3461         1.12113 
        3.47153         13.2544         1.10809 
        3.48724         13.0982         1.09528 
        3.50292          13.028          1.0827 
        3.51859         12.8997         1.07033 
        3.53431         12.7948          1.0581 
        3.55007         12.6757         1.04604 
        3.56577         12.5624         1.03421 
        3.58146          12.461         1.02257 
        3.59719         12.3162         1.01108 
        3.61292         12.2172        0.999768 
        3.62859           12.11        0.988671 
        3.64429         12.0019        0.977719 
        3.66003         11.9103        0.966899 
        3.67578         11.8253        0.956245 
        3.69146         11.7299        0.945791 
        3.70712         11.5767        0.935511 
        3.72284          11.521        0.925344 
        3.73853         11.3995        0.915346 
        3.75422         11.2609         0.90549 
        3.76993         11.2069        0.895769 
        3.78564         11.0744        0.886195 
        3.80137         11.0111        0.876743 
        3.81707         10.9205        0.867448 
        3.83279         10.7929         0.85828 
        3.84853         10.7229        0.849228 
        3.86424          10.589        0.840324 
        3.87992         10.5189        0.831559 
        3.89561         10.4384        0.822918 
        3.91134         10.3494        0.814381 
        3.92704         10.2626        0.805974 
        3.94273         10.1762        0.797694 
        3.95845         10.0826        0.789514 
        3.97418         10.0356        0.781446 
        3.98988         9.90962          0.7735 
        4.00554         9.85658        0.765686 
        4.02125         9.75358        0.757957 
        4.03698         9.66979        0.750322 
        4.05268         9.59268        0.742808 
        4.06839         9.51773        0.735391 
         4.0841         9.39655        0.728077 
        4.09983         9.33428        0.720852 
        4.11555         9.27089        0.713726 
        4.13124         9.18598        0.706716 
        4.14693         9.12847        0.699793 
        4.16266         9.02725        0.692946 
        4.17839          8.9638        0.686195 
        4.19408         8.88904        0.679548 
        4.20977         8.81348        0.672985 
        4.22551         8.73565        0.666493 
        4.24123         8.67776        0.660092 
        4.25691         8.61102        0.653793 
        4.27259         8.52336        0.647572 
        4.28831         8.45253         0.64142 
        4.30404         8.38371        0.635341 
        4.31974         8.33239        0.629354 
        4.33543         8.25972        0.623446 
        4.35116         8.18535          0.6176 
        4.36688         8.11822         0.61183 
        4.38255         8.05768        0.606155 
        4.39825         8.00854        0.600539 
        4.41398         7.91007        0.594983 
         4.4297           7.851        0.589502 
        4.44541         7.78728        0.584091 
        4.46111         7.74206        0.578751 
        4.47683         7.68588        0.573473 
        4.49251         7.63633        0.568272 
        4.50819         7.53691        0.563136 
         4.5239         7.48852        0.558056 
        4.53962         7.45121        0.553031 
        4.55535         7.37423        0.548066 
        4.57106         7.31556        0.543168 
        4.58678         7.24966        0.538329 
         4.6025         7.19031        0.533546 
        4.61821          7.1272        0.528823 
        4.63391         7.08492        0.524162 
         4.6496         7.03779        0.519559 
        4.66532         6.97552        0.515004 
        4.68103         6.92258        0.510504 
        4.69673         6.86185        0.506063 
        4.71241         6.81452        0.501678 
        4.72811         6.73667        0.497338 
        4.74384         6.72085        0.493043 
        4.75955         6.65593        0.488805 
        4.77525         6.61209        0.484619 
        4.79096         6.56731        0.480476 
        4.80669         6.49766        0.476379 
         4.8224         6.44062        0.472335 
        4.83809          6.4113        0.468341 
        4.85379         6.35268        0.464391 
         4.8695         6.30455        0.460482 
        4.88521         6.26924         0.45662 
        4.90093         6.20229        0.452802 
        4.91663         6.15085         0.44903 
        4.93234         6.11449        0.445297 
        4.94807         6.06115        0.441603 
        4.96377          6.0198        0.437958 
        4.97943         5.99335        0.434361 
        4.99514         5.92822        0.430796 
        5.01086         5.87724        0.427267 
        5.02654         5.84021        0.423786 
        5.04227         5.81433        0.420334 
          5.058         5.76206        0.416918 
        5.07371         5.72315        0.413547 
        5.08942         5.67068        0.410212 
        5.10513         5.62899        0.406914 
        5.12084         5.59189        0.403649 
        5.13656          5.5515        0.400421 
        5.15225         5.50237        0.397233 
        5.16796         5.48526        0.394075 
        5.18369         5.42413        0.390948 
         5.1994         5.38266         0.38786 
        5.21509         5.35436        0.384808 
        5.23079         5.30898        0.381786 
        5.24649         5.28257        0.378797 
        5.26217          5.2417        0.375843 
        5.27788         5.19056        0.372915 
        5.29359         5.17495        0.370018 
        5.30933         5.12981        0.367148 
        5.32504         5.09442        0.364312 
        5.34073         5.05501         0.36151 
        5.35646         5.01315         0.35873 
        5.37218         4.99326         0.35598 
        5.38789         4.95664        0.353262 
        5.40357         4.91452        0.350576 
        5.41929         4.88456        0.347911 
        5.43502         4.85352        0.345274 
         5.4507         4.82072         0.34267 
        5.46639         4.77651        0.340092 
        5.48212         4.74436        0.337535 
        5.49786         4.72165        0.335001 
        5.51353         4.67619        0.332505 
        5.52921         4.66026        0.330032 
        5.54495         4.62346        0.327576 
        5.56066          4.5901        0.325148 
        5.57637         4.55134        0.322745 
        5.59207         4.52808        0.320368 
        5.60778          4.4906        0.318014 
        5.62346         4.46416        0.315686 
        5.63916         4.43263         0.31338 
        5.65487         4.39871        0.311095 
         5.6706         4.38275         0.30883 
        5.68633         4.34427        0.306587 
        5.70203         4.31425         0.30437 
        5.71773         4.29399        0.302176 
        5.73344          4.2571        0.300001 
        5.74916         4.22725        0.297846 
        5.76486         4.21252        0.295715 
        5.78054         4.17463        0.293608 
        5.79626         4.14287        0.291516 
          5.812         4.12433        0.289441 
         5.8277         4.09254        0.287393 
        5.84339         4.06684        0.285364 
        5.85911         4.03903        0.283351 
        5.87484         4.02024        0.281358 
        5.89053         3.99111        0.279387 
        5.90623          3.9575        0.277434 
        5.92195         3.94087        0.275497 
        5.93767         3.90464        0.273579 
        5.95336          3.8818        0.271682 
        5.96905         3.86387        0.269804 
        5.98476         3.83531         0.26794 
        6.00048         3.82016        0.266094 
        6.01617         3.78869        0.264267 
        6.03185         3.75907         0.26246 
        6.04756         3.74125        0.260665 
        6.06331         3.71319        0.258883 
        6.07903           3.691        0.257121 
        6.09473         3.66847        0.255377 
        6.11044         3.63658        0.253647 
        6.12616         3.62102        0.251934 
        6.14186         3.59522        0.250238 
        6.15755         3.57606        0.248557 
        6.17326         3.56268        0.246891 
        6.18898         3.53364        0.245239 
        6.20467         3.50932        0.243605 
        6.22036         3.48946        0.241986 
         6.2361         3.46937        0.240377 
         6.2518         3.44607        0.238785 
        6.26748         3.42238        0.237211 
        6.28319         3.40438        0.235647 
        6.29893         3.38088        0.234096 
        6.31463         3.36137        0.232561 
        6.33033         3.34142         0.23104 
        6.34604         3.32709        0.229531 
        6.36177         3.30235        0.228035 
        6.37747         3.28929        0.226554 
