# k  (h/Mpc)    Pcb(k)  (Mpc/h)^3    Pcb_linear(k) (Mpc/h)^3   ShotnoiseSubtracted = true
      0.0200456         73.9439         74.8391 
      0.0350414         53.1862         53.0457 
      0.0492313         38.5325         38.3713 
      0.0637834         31.5233         31.4545 
      0.0800726          24.347         24.2892 
       0.096163         17.5898         17.5188 
       0.111083         14.1399         14.1232 
       0.126058         12.3943         12.4019 
       0.142273         10.2428         10.2219 
       0.158546         8.09351         8.04757 
        0.17375         6.88032         6.88236 
       0.188953          6.1857         6.19285 
       0.204907          5.3928         5.35386 
       0.220756         4.52968         4.50761 
        0.23588         3.98099         3.96754 
         0.2514          3.5969         3.59942 
       0.267535         3.20438         3.20349 
       0.283568           2.814         2.80658 
       0.299022         2.52527         2.51664 
       0.314451         2.29239         2.30154 
       0.330372         2.08894         2.09026 
       0.346141         1.88547         1.88483 
       0.361624         1.72004          1.7166 
       0.377134         1.58603         1.58063 
       0.392932          1.4437         1.45472 
       0.408854          1.3377         1.33385 
       0.424564         1.22634         1.22855 
       0.440253         1.13867         1.13901 
       0.455999         1.06103           1.058 
       0.471626        0.987496        0.982896 
        0.48727        0.914644         0.91476 
       0.502856        0.852671        0.854501 
       0.518488        0.804017        0.799791 
       0.534347        0.755173        0.748492 
       0.550082        0.701283         0.70172 
       0.565732        0.654499        0.659494 
       0.581496        0.621574        0.620618 
       0.597222        0.586429        0.584784 
       0.612804         0.55212        0.551944 
       0.628434        0.524297        0.521564 
       0.644267        0.493779        0.493209 
       0.660051        0.466629         0.46704 
       0.675724        0.443771        0.442904 
       0.691403        0.422188        0.420442 
       0.707174        0.400099        0.399401 
       0.722871        0.378773        0.379874 
        0.73838        0.363077        0.361851 
       0.754018        0.347072        0.344855 
       0.769845        0.330575        0.328758 
        0.78569        0.314593        0.313668 
       0.801365        0.300003        0.299669 
       0.817031        0.287208        0.286531 
       0.832809        0.274846        0.274095 
       0.848511        0.262791        0.262452 
       0.864097        0.250962        0.251563 
       0.879701        0.240422         0.24128 
       0.895507         0.23228         0.23145 
       0.911279        0.222678        0.222186 
        0.92691        0.213442        0.213504 
       0.942635        0.205617        0.205237 
       0.958396        0.197201        0.197389 
       0.974128        0.189737        0.189964 
       0.989692        0.183107        0.182993 
        1.00528        0.176942        0.176361 
        1.02113        0.169266        0.169953 
        1.03692         0.16371        0.163885 
        1.05264        0.158112         0.15814 
        1.06832        0.152722        0.152679 
        1.08405        0.147013         0.14746 
        1.09979        0.141932        0.142481 
        1.11537        0.138211        0.137781 
        1.13105        0.133414        0.133263 
        1.14679        0.129424         0.12893 
        1.16256        0.124367        0.124781 
        1.17828        0.120427        0.120827 
        1.19395        0.116511        0.117057 
         1.2097        0.112849        0.113428 
        1.22537        0.110056         0.10997 
          1.241        0.106496        0.106666 
        1.25666        0.103555        0.103489 
        1.27241        0.100244        0.100425 
        1.28819       0.0972613       0.0974806 
        1.30392       0.0943156        0.094662 
        1.31957       0.0917811       0.0919668 
        1.33529       0.0889062       0.0893664 
        1.35108       0.0865597       0.0868557 
        1.36674       0.0836433       0.0844591 
         1.3824       0.0821593       0.0821547 
        1.39811       0.0795854       0.0799282 
        1.41389        0.077436       0.0777755 
        1.42964        0.075618       0.0757052 
        1.44531       0.0732453       0.0737201 
        1.46101       0.0715008       0.0718017 
        1.47667       0.0693588       0.0699569 
        1.49229       0.0678103       0.0681816 
        1.50793       0.0658823       0.0664656 
        1.52367       0.0643332       0.0647974 
        1.53953       0.0629388       0.0631749 
        1.55526       0.0613462       0.0616207 
        1.57092       0.0594512        0.060125 
        1.58662       0.0582878       0.0586751 
        1.60235       0.0570709         0.05727 
        1.61809       0.0552924         0.05591 
        1.63369       0.0541731       0.0546059 
        1.64941       0.0530416        0.053334 
        1.66519       0.0516504       0.0520978 
        1.68085       0.0503774       0.0509093 
        1.69652       0.0491542       0.0497574 
        1.71228       0.0483267       0.0486344 
        1.72806       0.0468894        0.047545 
        1.74368        0.046035       0.0464998 
        1.75933       0.0450882       0.0454837 
        1.77505       0.0439784        0.044493 
        1.79081       0.0431531       0.0435299 
         1.8065       0.0420033       0.0425994 
        1.82218        0.041232       0.0416966 
        1.83797       0.0403196       0.0408138 
        1.85367       0.0394526       0.0399612 
        1.86928       0.0387514       0.0391379 
        1.88497       0.0380039       0.0383333 
        1.90073       0.0371293       0.0375481 
        1.91647       0.0362408       0.0367856 
        1.93218       0.0355302       0.0360457 
        1.94787        0.034765       0.0353271 
        1.96363       0.0341786       0.0346251 
        1.97935       0.0334136       0.0339436 
        1.99499       0.0327943       0.0332841 
        2.01064       0.0322328       0.0326412 
         2.0264       0.0316517        0.032011 
        2.04216       0.0309025       0.0313977 
        2.05781        0.030378       0.0308043 
        2.07353       0.0296455        0.030224 
        2.08928       0.0291534       0.0296572 
        2.10499       0.0284847       0.0291065 
        2.12065       0.0280967       0.0285713 
        2.13633       0.0274651        0.028049 
        2.15211       0.0271225       0.0275363 
        2.16785       0.0266046       0.0270378 
        2.18349       0.0259778       0.0265547 
        2.19916       0.0256973       0.0260823 
        2.21489       0.0252561       0.0256197 
        2.23063       0.0247236        0.025168 
         2.2463       0.0241877       0.0247292 
        2.26194       0.0237726       0.0243018 
        2.27765       0.0233712       0.0238823 
        2.29341       0.0230513       0.0234715 
        2.30914       0.0225855       0.0230712 
        2.32486       0.0222122       0.0226804 
        2.34061       0.0218524       0.0222979 
        2.35635        0.021431       0.0219246 
        2.37203       0.0210924        0.021561 
        2.38768       0.0206819       0.0212064 
        2.40339       0.0203489       0.0208584 
        2.41914       0.0200644       0.0205174 
        2.43483       0.0196472       0.0201851 
         2.4505       0.0193527       0.0198607 
        2.46622       0.0190667       0.0195423 
        2.48195       0.0187043       0.0192308 
        2.49759       0.0184435       0.0189277 
        2.51328        0.018207       0.0186303 
        2.52906       0.0178828       0.0183374 
        2.54479        0.017618       0.0180518 
        2.56049       0.0173289       0.0177728 
        2.57618       0.0170549       0.0174999 
        2.59189       0.0167817       0.0172323 
        2.60758       0.0165472       0.0169707 
        2.62325       0.0162722       0.0167148 
        2.63898       0.0159924       0.0164633 
        2.65468       0.0157571       0.0162174 
        2.67044       0.0155711       0.0159754 
        2.68618       0.0152994       0.0157389 
        2.70184       0.0150697       0.0155081 
        2.71755       0.0148011       0.0152814 
        2.73329       0.0145986       0.0150588 
        2.74897       0.0144375       0.0148413 
        2.76462        0.014177       0.0146286 
        2.78034       0.0139779       0.0144191 
        2.79607       0.0138044       0.0142135 
        2.81179       0.0135813       0.0140121 
        2.82749       0.0133809       0.0138148 
        2.84321       0.0131965        0.013621 
        2.85893       0.0129778        0.013431 
        2.87462       0.0128247        0.013245 
        2.89033       0.0126692       0.0130622 
        2.90605       0.0124483       0.0128828 
        2.92176       0.0123265       0.0127067 
        2.93747       0.0121209       0.0125341 
        2.95318       0.0119434       0.0123645 
        2.96891       0.0118002        0.012198 
        2.98456       0.0116809       0.0120353 
        3.00023       0.0114691       0.0118753 
        3.01596       0.0112687       0.0117177 
        3.03164       0.0111993       0.0115634 
        3.04738        0.011031       0.0114114 
         3.0631       0.0108356       0.0112622 
        3.07883       0.0106957       0.0111156 
        3.09456       0.0106126       0.0109716 
        3.11026       0.0104361       0.0108303 
        3.12596       0.0103316       0.0106916 
        3.14163        0.010172       0.0105556 
        3.15734       0.0100477       0.0104216 
        3.17308      0.00990223       0.0102896 
        3.18879      0.00980807       0.0101603 
        3.20447      0.00968714       0.0100333 
         3.2202      0.00955491      0.00990808 
         3.2359      0.00944118      0.00978522 
        3.25157       0.0093091      0.00966472 
        3.26729      0.00922386      0.00954587 
        3.28304      0.00908585      0.00942878 
        3.29877      0.00898917      0.00931378 
        3.31446      0.00887743      0.00920094 
        3.33014      0.00873701      0.00909006 
        3.34585      0.00863309      0.00898082 
        3.36158      0.00854225       0.0088732 
        3.37727      0.00846013      0.00876766 
        3.39294      0.00835528      0.00866393 
        3.40867       0.0082672       0.0085615 
        3.42439      0.00817369      0.00846076 
        3.44008      0.00807197      0.00836182 
        3.45578      0.00797159      0.00826439 
        3.47153      0.00787882      0.00816828 
        3.48724      0.00782348      0.00807386 
        3.50292      0.00767435      0.00798114 
        3.51859      0.00760119      0.00788991 
        3.53431      0.00754672      0.00779981 
        3.55007       0.0074786      0.00771089 
        3.56577      0.00739966      0.00762369 
        3.58146      0.00726895      0.00753787 
        3.59719      0.00720227      0.00745316 
        3.61292      0.00711104      0.00736978 
        3.62859      0.00705947      0.00728798 
        3.64429      0.00698619      0.00720725 
        3.66003      0.00691931      0.00712749 
        3.67578      0.00684083      0.00704895 
        3.69146      0.00677604      0.00697189 
        3.70712      0.00671361      0.00689611 
        3.72284       0.0066273      0.00682117 
        3.73853      0.00655341      0.00674746 
        3.75422      0.00651179      0.00667481 
        3.76993      0.00642759      0.00660316 
        3.78564       0.0064008      0.00653257 
        3.80137      0.00632107       0.0064629 
        3.81707      0.00624375      0.00639439 
        3.83279      0.00618394       0.0063268 
        3.84853      0.00613881      0.00626008 
        3.86424      0.00606417      0.00619444 
        3.87992      0.00601066      0.00612983 
        3.89561      0.00596203      0.00606613 
        3.91134      0.00592075       0.0060032 
        3.92704      0.00583207      0.00594123 
        3.94273      0.00581033      0.00588019 
        3.95845      0.00573276      0.00581989 
        3.97418      0.00567861      0.00576042 
        3.98988      0.00565128      0.00570185 
        4.00554      0.00556919      0.00564425 
        4.02125      0.00550265      0.00558727 
        4.03698      0.00544879      0.00553099 
        4.05268      0.00537857      0.00547561 
        4.06839       0.0053032      0.00542093 
         4.0841      0.00524737      0.00536702 
        4.09983      0.00517994      0.00531375 
        4.11555       0.0051196      0.00526123 
        4.13124       0.0050601      0.00520955 
        4.14693      0.00501131      0.00515852 
        4.16266      0.00493352      0.00510805 
        4.17839      0.00489205      0.00505828 
        4.19408      0.00483724      0.00500928 
        4.20977      0.00479913       0.0049609 
        4.22551      0.00475302      0.00491304 
        4.24123      0.00470154      0.00486586 
        4.25691      0.00465545      0.00481943 
        4.27259      0.00461359      0.00477357 
        4.28831       0.0045862      0.00472822 
        4.30404      0.00453642      0.00468341 
        4.31974      0.00449638      0.00463928 
        4.33543      0.00445534      0.00459573 
        4.35116      0.00442383      0.00455263 
        4.36688      0.00439551       0.0045101 
        4.38255      0.00436914      0.00446827 
        4.39825      0.00435121      0.00442687 
        4.41398      0.00432518      0.00438591 
         4.4297      0.00431019      0.00434551 
        4.44541      0.00428257      0.00430562 
        4.46111      0.00425167      0.00426626 
        4.47683      0.00424989      0.00422735 
        4.49251      0.00421528      0.00418901 
        4.50819      0.00421474      0.00415115 
         4.5239      0.00421405       0.0041137 
        4.53962      0.00419459      0.00407667 
        4.55535      0.00418464      0.00404006 
        4.57106      0.00419908      0.00400396 
        4.58678      0.00417539      0.00396828 
         4.6025      0.00418824      0.00393303 
        4.61821      0.00418793      0.00389821 
        4.63391      0.00417801      0.00386386 
         4.6496      0.00418749      0.00382992 
        4.66532      0.00418269      0.00379634 
        4.68103      0.00419951      0.00376318 
        4.69673      0.00419136      0.00373044 
        4.71241      0.00421786      0.00369812 
        4.72811      0.00422655      0.00366612 
        4.74384      0.00424397      0.00363446 
        4.75955      0.00425472      0.00360322 
        4.77525      0.00428234      0.00357236 
        4.79096      0.00430699      0.00354182 
        4.80669       0.0043153      0.00351163 
         4.8224       0.0043428      0.00348181 
        4.83809      0.00434598      0.00345237 
        4.85379      0.00439844      0.00342325 
         4.8695      0.00442729      0.00339444 
        4.88521      0.00444647      0.00336597 
        4.90093      0.00449067      0.00333782 
        4.91663      0.00454218      0.00331002 
        4.93234      0.00455652       0.0032825 
        4.94807      0.00461755      0.00325527 
        4.96377      0.00466454       0.0032284 
        4.97943      0.00469782      0.00320189 
        4.99514      0.00474602      0.00317561 
        5.01086       0.0047854      0.00314959 
        5.02654      0.00484601      0.00312394 
        5.04227      0.00489569      0.00309849 
          5.058      0.00496488      0.00307331 
        5.07371      0.00502474      0.00304846 
        5.08942      0.00509177      0.00302388 
        5.10513       0.0051278      0.00299956 
        5.12084      0.00520931       0.0029755 
        5.13656      0.00525409       0.0029517 
        5.15225      0.00533373       0.0029282 
        5.16796      0.00541128      0.00290492 
        5.18369      0.00550333      0.00288187 
         5.1994      0.00559412      0.00285911 
        5.21509      0.00568527      0.00283661 
        5.23079      0.00572597      0.00281433 
        5.24649       0.0058614       0.0027923 
        5.26217      0.00592236      0.00277052 
        5.27788       0.0060452      0.00274894 
        5.29359      0.00614435      0.00272759 
        5.30933      0.00623832      0.00270643 
        5.32504      0.00633133      0.00268552 
        5.34073      0.00646995      0.00266486 
        5.35646      0.00656724      0.00264438 
        5.37218      0.00665229       0.0026241 
        5.38789      0.00678504      0.00260407 
        5.40357      0.00689405      0.00258427 
        5.41929      0.00702203      0.00256463 
        5.43502      0.00717645      0.00254518 
         5.4507       0.0073325      0.00252599 
        5.46639      0.00748971      0.00250699 
        5.48212       0.0075427      0.00248814 
        5.49786      0.00775813      0.00246946 
        5.51353      0.00789141      0.00245106 
        5.52921      0.00805066      0.00243283 
        5.54495      0.00822612      0.00241472 
        5.56066      0.00837444      0.00239683 
        5.57637      0.00855452      0.00237911 
        5.59207      0.00872705      0.00236159 
        5.60778      0.00890605      0.00234424 
        5.62346       0.0091317      0.00232708 
        5.63916      0.00929851      0.00231008 
        5.65487      0.00947288      0.00229323 
         5.6706      0.00968735      0.00227654 
        5.68633      0.00994385         0.00226 
        5.70203       0.0101319      0.00224366 
        5.71773       0.0103909      0.00222748 
        5.73344       0.0105462      0.00221146 
        5.74916       0.0108295      0.00219557 
        5.76486       0.0111122      0.00217986 
        5.78054       0.0113185      0.00216433 
        5.79626       0.0115447      0.00214891 
          5.812       0.0118596      0.00213361 
         5.8277       0.0121101      0.00211851 
        5.84339        0.012442      0.00210356 
        5.85911       0.0127419      0.00208872 
        5.87484       0.0130466      0.00207403 
        5.89053       0.0133917       0.0020595 
        5.90623       0.0137916      0.00204511 
        5.92195        0.014074      0.00203082 
        5.93767       0.0143929      0.00201668 
        5.95336       0.0146807       0.0020027 
        5.96905       0.0151911      0.00198886 
        5.98476       0.0154017      0.00197512 
        6.00048       0.0158226      0.00196151 
        6.01617       0.0162425      0.00194804 
        6.03185       0.0165763      0.00193472 
        6.04756       0.0170928      0.00192149 
        6.06331       0.0174831      0.00190835 
        6.07903       0.0179846      0.00189536 
        6.09473        0.018302      0.00188251 
        6.11044       0.0189512      0.00186976 
        6.12616       0.0194404      0.00185713 
        6.14186       0.0198526      0.00184462 
        6.15755       0.0203905      0.00183224 
        6.17326       0.0209217      0.00181995 
        6.18898        0.021612      0.00180778 
        6.20467        0.022214      0.00179573 
        6.22036       0.0227461       0.0017838 
         6.2361       0.0233708      0.00177194 
         6.2518       0.0240792       0.0017602 
        6.26748       0.0245327       0.0017486 
        6.28319       0.0253206      0.00173707 
        6.29893       0.0259979      0.00172563 
        6.31463       0.0268888      0.00171432 
        6.33033       0.0275151      0.00170311 
        6.34604       0.0283128      0.00169199 
        6.36177       0.0291373      0.00168095 
        6.37747       0.0300078      0.00167004 
