# k  (h/Mpc)    Pcb(k)  (Mpc/h)^3    Pcb_linear(k) (Mpc/h)^3   ShotnoiseSubtracted = true
      0.0200456         2174.95         2204.29 
      0.0350414         1549.36         1562.39 
      0.0492313         1132.58         1130.18 
      0.0637834         937.504         926.449 
      0.0800726         724.666         715.406 
       0.096163         513.501         515.993 
       0.111083         411.292          415.98 
       0.126058         368.059         365.282 
       0.142273         307.144         301.073 
       0.158546         244.228          237.03 
        0.17375         203.437         202.711 
       0.188953         187.195         182.402 
       0.204907         168.598         157.691 
       0.220756         139.849         132.766 
        0.23588         122.749         116.859 
         0.2514         109.597         106.016 
       0.267535         99.5968         94.3546 
       0.283568         88.4479         82.6641 
       0.299022         80.4111         74.1244 
       0.314451         71.9435         67.7886 
       0.330372         66.4103         61.5657 
       0.346141         59.9013         55.5151 
       0.361624         55.4406         50.5601 
       0.377134         51.9613         46.5552 
       0.392932          45.977         42.8467 
       0.408854         44.0269         39.2867 
       0.424564         41.1611         36.1852 
       0.440253         37.8863          33.548 
       0.455999         35.5809         31.1621 
       0.471626         33.2763         28.9499 
        0.48727         31.4452          26.943 
       0.502856         29.3796         25.1682 
       0.518488         27.9941         23.5568 
       0.534347         26.7689         22.0458 
       0.550082         24.3799         20.6682 
       0.565732         22.6328         19.4245 
       0.581496         22.1226         18.2795 
       0.597222         21.2801          17.224 
       0.612804         19.7839         16.2568 
       0.628434         19.0325          15.362 
       0.644267         18.4022         14.5268 
       0.660051         17.3572          13.756 
       0.675724         16.4317         13.0451 
       0.691403         15.8724         12.3835 
       0.707174         15.1952         11.7638 
       0.722871         14.5644         11.1887 
        0.73838         13.9744         10.6578 
       0.754018         13.4604         10.1572 
       0.769845         12.8909         9.68312 
        0.78569         12.4607         9.23867 
       0.801365         11.9338         8.82634 
       0.817031         11.5564         8.43938 
       0.832809         11.2675         8.07311 
       0.848511         10.5673         7.73017 
       0.864097         10.2966         7.40946 
       0.879701         9.97033         7.10659 
       0.895507         9.53374         6.81704 
       0.911279          9.3565         6.54418 
        0.92691         9.04328         6.28847 
       0.942635         8.64205         6.04498 
       0.958396         8.39365         5.81382 
       0.974128         8.15478         5.59514 
       0.989692         8.03884         5.38983 
        1.00528         7.73918         5.19448 
        1.02113         7.42345         5.00572 
        1.03692         7.24821         4.82701 
        1.05264         7.05982         4.65781 
        1.06832          6.8788         4.49696 
        1.08405         6.61811         4.34324 
        1.09979         6.46311          4.1966 
        1.11537         6.34329         4.05815 
        1.13105         6.15143         3.92509 
        1.14679         6.02267         3.79747 
        1.16256         5.82212         3.67525 
        1.17828         5.74003          3.5588 
        1.19395         5.53396         3.44776 
         1.2097          5.3927         3.34087 
        1.22537         5.24929         3.23902 
          1.241         5.15579          3.1417 
        1.25666         5.08415         3.04812 
        1.27241         4.91213          2.9579 
        1.28819         4.79266         2.87116 
        1.30392         4.72089         2.78814 
        1.31957         4.61087         2.70876 
        1.33529         4.50723         2.63217 
        1.35108         4.38893         2.55822 
        1.36674         4.34723         2.48763 
         1.3824         4.17556         2.41976 
        1.39811         4.11644         2.35418 
        1.41389         4.04725         2.29077 
        1.42964         3.96741          2.2298 
        1.44531         3.88708         2.17133 
        1.46101         3.80378         2.11482 
        1.47667         3.71788         2.06049 
        1.49229         3.67646          2.0082 
        1.50793          3.5703         1.95766 
        1.52367         3.53464         1.90852 
        1.53953         3.44108         1.86073 
        1.55526         3.38013         1.81496 
        1.57092         3.33324          1.7709 
        1.58662         3.25043          1.7282 
        1.60235          3.2058         1.68681 
        1.61809         3.14539         1.64675 
        1.63369         3.08967         1.60834 
        1.64941          3.0355         1.57088 
        1.66519         2.99032         1.53447 
        1.68085         2.92548         1.49947 
        1.69652         2.86978         1.46554 
        1.71228         2.83492         1.43246 
        1.72806         2.77828         1.40038 
        1.74368         2.72609         1.36959 
        1.75933         2.69225         1.33966 
        1.77505         2.65482         1.31048 
        1.79081         2.59677         1.28212 
         1.8065         2.56361         1.25471 
        1.82218         2.53185         1.22812 
        1.83797         2.50185         1.20211 
        1.85367         2.44928           1.177 
        1.86928         2.41841         1.15276 
        1.88497         2.37562         1.12906 
        1.90073         2.33371         1.10593 
        1.91647         2.29709         1.08347 
        1.93218         2.28113         1.06168 
        1.94787         2.25089         1.04051 
        1.96363          2.2023         1.01984 
        1.97935         2.17335        0.999763 
        1.99499         2.12905         0.98034 
        2.01064         2.11305        0.961401 
         2.0264         2.08349        0.942841 
        2.04216         2.05662        0.924778 
        2.05781         2.02331        0.907299 
        2.07353          2.0014        0.890206 
        2.08928         1.97688        0.873514 
        2.10499         1.94236        0.857292 
        2.12065           1.932        0.841529 
        2.13633         1.89565        0.826145 
        2.15211         1.86927        0.811045 
        2.16785         1.84935        0.796362 
        2.18349          1.8259        0.782133 
        2.19916          1.7891        0.768219 
        2.21489         1.77697        0.754595 
        2.23063          1.7443        0.741291 
         2.2463         1.73024        0.728365 
        2.26194         1.70387        0.715777 
        2.27765         1.69068        0.703421 
        2.29341         1.66722        0.691323 
        2.30914         1.64265        0.679532 
        2.32486         1.63328        0.668021 
        2.34061         1.60739        0.656756 
        2.35635         1.58312        0.645759 
        2.37203         1.57444        0.635051 
        2.38768         1.55619        0.624606 
        2.40339         1.53561        0.614356 
        2.41914         1.51747        0.604311 
        2.43483         1.50286        0.594525 
         2.4505         1.47938        0.584971 
        2.46622         1.47119        0.575592 
        2.48195         1.44966        0.566417 
        2.49759         1.43436         0.55749 
        2.51328         1.41642        0.548731 
        2.52906          1.4067        0.540103 
        2.54479         1.38686        0.531692 
        2.56049         1.37294        0.523475 
        2.57618         1.36001        0.515437 
        2.59189         1.35062        0.507555 
        2.60758         1.32843         0.49985 
        2.62325         1.31582        0.492312 
        2.63898         1.30225        0.484903 
        2.65468         1.28976        0.477661 
        2.67044         1.28069        0.470535 
        2.68618         1.25951        0.463569 
        2.70184         1.24976        0.456772 
        2.71755         1.23694        0.450092 
        2.73329         1.22292        0.443536 
        2.74897         1.21327         0.43713 
        2.76462         1.20082        0.430865 
        2.78034         1.19093        0.424695 
        2.79607          1.1765        0.418639 
        2.81179         1.16706        0.412707 
        2.82749         1.15315        0.406896 
        2.84321         1.14604        0.401189 
        2.85893         1.13438        0.395593 
        2.87462         1.12365        0.390113 
        2.89033         1.10583        0.384731 
        2.90605         1.09919        0.379444 
        2.92176          1.0916         0.37426 
        2.93747          1.0818        0.369174 
        2.95318         1.07104        0.364181 
        2.96891         1.06259        0.359277 
        2.98456         1.05346        0.354485 
        3.00023         1.04236        0.349772 
        3.01596         1.03629         0.34513 
        3.03164         1.02978        0.340585 
        3.04738         1.01295        0.336108 
         3.0631         1.00505        0.331712 
        3.07883        0.998237        0.327394 
        3.09456         0.99305        0.323153 
        3.11026        0.981209        0.318993 
        3.12596        0.972601        0.314907 
        3.14163        0.965857        0.310901 
        3.15734        0.956518        0.306955 
        3.17308        0.947664        0.303067 
        3.18879        0.943006        0.299257 
        3.20447        0.933633        0.295517 
         3.2202        0.925398        0.291829 
         3.2359        0.917703        0.288211 
        3.25157        0.911929        0.284661 
        3.26729         0.90214        0.281161 
        3.28304         0.89927        0.277712 
        3.29877        0.887506        0.274325 
        3.31446        0.881907        0.271001 
        3.33014        0.878685        0.267735 
        3.34585        0.871114        0.264518 
        3.36158        0.859729        0.261348 
        3.37727        0.857483         0.25824 
        3.39294        0.848011        0.255185 
        3.40867        0.841752        0.252167 
        3.42439        0.837215          0.2492 
        3.44008        0.831468        0.246286 
        3.45578        0.825859        0.243416 
        3.47153        0.818651        0.240586 
        3.48724        0.811665        0.237805 
        3.50292        0.808213        0.235074 
        3.51859        0.803571        0.232387 
        3.53431        0.795692        0.229733 
        3.55007        0.791014        0.227114 
        3.56577        0.785494        0.224546 
        3.58146        0.781456        0.222018 
        3.59719        0.772788        0.219523 
        3.61292        0.771014        0.217067 
        3.62859        0.762889        0.214658 
        3.64429        0.757438         0.21228 
        3.66003        0.752054        0.209931 
        3.67578        0.747274        0.207617 
        3.69146        0.744624        0.205348 
        3.70712        0.736241        0.203116 
        3.72284        0.734283        0.200908 
        3.73853        0.727922        0.198737 
        3.75422        0.723644        0.196598 
        3.76993        0.720815        0.194487 
        3.78564        0.714745        0.192408 
        3.80137        0.708516        0.190356 
        3.81707        0.706942        0.188338 
        3.83279        0.699441        0.186347 
        3.84853        0.695857        0.184382 
        3.86424        0.691166        0.182449 
        3.87992        0.689723        0.180546 
        3.89561        0.682732         0.17867 
        3.91134        0.678335        0.176816 
        3.92704        0.674909        0.174991 
        3.94273        0.670602        0.173193 
        3.95845        0.666538        0.171417 
        3.97418        0.659886        0.169665 
        3.98988        0.656975         0.16794 
        4.00554        0.653205        0.166244 
        4.02125        0.647467        0.164566 
        4.03698         0.64183        0.162908 
        4.05268        0.637236        0.161277 
        4.06839        0.629882        0.159666 
         4.0841        0.627465        0.158078 
        4.09983        0.622986        0.156509 
        4.11555        0.619377        0.154962 
        4.13124        0.612299         0.15344 
        4.14693         0.60766        0.151937 
        4.16266        0.603845        0.150451 
        4.17839        0.601131        0.148985 
        4.19408        0.597093        0.147542 
        4.20977        0.590521        0.146117 
        4.22551        0.588546        0.144707 
        4.24123        0.584376        0.143317 
        4.25691        0.580398         0.14195 
        4.27259        0.576751        0.140599 
        4.28831        0.573575        0.139263 
        4.30404         0.56944        0.137944 
        4.31974        0.564726        0.136644 
        4.33543        0.561562        0.135361 
        4.35116        0.559556        0.134092 
        4.36688        0.555671        0.132839 
        4.38255        0.552263        0.131607 
        4.39825        0.551029        0.130387 
        4.41398         0.54619        0.129181 
         4.4297         0.54254        0.127991 
        4.44541        0.540067        0.126816 
        4.46111        0.538807        0.125657 
        4.47683        0.535965        0.124511 
        4.49251         0.53283        0.123382 
        4.50819        0.530204        0.122267 
         4.5239        0.527411        0.121164 
        4.53962        0.526774        0.120073 
        4.55535          0.5226        0.118995 
        4.57106        0.521989        0.117931 
        4.58678        0.517852         0.11688 
         4.6025        0.516558        0.115842 
        4.61821        0.513678        0.114817 
        4.63391         0.51265        0.113805 
         4.6496        0.508885        0.112805 
        4.66532         0.50924        0.111816 
        4.68103        0.505781        0.110839 
        4.69673        0.504659        0.109875 
        4.71241        0.501753        0.108923 
        4.72811        0.501569        0.107981 
        4.74384        0.498731        0.107048 
        4.75955        0.497454        0.106128 
        4.77525        0.495846        0.105219 
        4.79096        0.495399         0.10432 
        4.80669        0.494222         0.10343 
         4.8224        0.492941        0.102552 
        4.83809        0.490402        0.101685 
        4.85379        0.490759        0.100827 
         4.8695        0.489785       0.0999787 
        4.88521        0.486376       0.0991402 
        4.90093        0.486318       0.0983111 
        4.91663        0.486239       0.0974922 
        4.93234        0.484362       0.0966816 
        4.94807        0.483975       0.0958797 
        4.96377        0.482066       0.0950883 
        4.97943          0.4818       0.0943074 
        4.99514        0.481282       0.0935332 
        5.01086        0.480508       0.0927671 
        5.02654        0.480644       0.0920114 
        5.04227        0.479161       0.0912618 
          5.058        0.478303       0.0905202 
        5.07371        0.477195       0.0897883 
        5.08942        0.478382       0.0890642 
        5.10513        0.476726        0.088348 
        5.12084         0.47668       0.0876393 
        5.13656        0.476266       0.0869384 
        5.15225        0.476917       0.0862463 
        5.16796        0.475451       0.0855606 
        5.18369        0.476061       0.0848816 
         5.1994        0.476378       0.0842112 
        5.21509        0.475664       0.0835486 
        5.23079        0.475293       0.0828923 
        5.24649        0.475992       0.0822435 
        5.26217        0.474663        0.081602 
        5.27788        0.475679       0.0809664 
        5.29359        0.475298       0.0803374 
        5.30933        0.475033       0.0797142 
        5.32504        0.475948       0.0790985 
        5.34073        0.476161         0.07849 
        5.35646        0.475525       0.0778866 
        5.37218        0.476998       0.0772894 
        5.38789        0.476796       0.0766994 
        5.40357        0.477432       0.0761161 
        5.41929        0.476995       0.0755376 
        5.43502        0.478795        0.074965 
         5.4507        0.478382       0.0743996 
        5.46639        0.478918         0.07384 
        5.48212        0.478933       0.0732847 
        5.49786        0.478478       0.0727345 
        5.51353         0.47948       0.0721926 
        5.52921        0.480581       0.0716556 
        5.54495        0.481723       0.0711225 
        5.56066         0.47967       0.0705953 
        5.57637        0.481859       0.0700735 
        5.59207        0.483438       0.0695574 
        5.60778        0.483115       0.0690463 
        5.62346        0.483804        0.068541 
        5.63916        0.484998       0.0680402 
        5.65487        0.485166       0.0675441 
         5.6706        0.487187       0.0670524 
        5.68633        0.487221       0.0665653 
        5.70203        0.488174        0.066084 
        5.71773        0.488653       0.0656076 
        5.73344        0.488203       0.0651355 
        5.74916        0.489931       0.0646676 
        5.76486         0.49099       0.0642049 
        5.78054        0.491302       0.0637475 
        5.79626         0.49146       0.0632931 
          5.812        0.494387       0.0628427 
         5.8277        0.493865        0.062398 
        5.84339        0.495512       0.0619575 
        5.85911        0.495541       0.0615205 
        5.87484        0.496762       0.0610876 
        5.89053        0.497677       0.0606598 
        5.90623        0.498539       0.0602358 
        5.92195        0.499244       0.0598152 
        5.93767        0.499236       0.0593987 
        5.95336        0.500493       0.0589869 
        5.96905        0.503446       0.0585791 
        5.98476        0.502015       0.0581745 
        6.00048        0.504167       0.0577736 
        6.01617        0.504828        0.057377 
        6.03185        0.506011       0.0569846 
        6.04756         0.50684       0.0565948 
        6.06331        0.509068       0.0562079 
        6.07903        0.509211       0.0558253 
        6.09473        0.509131       0.0554467 
        6.11044        0.510828       0.0550712 
        6.12616        0.511609       0.0546992 
        6.14186        0.511726        0.054331 
        6.15755        0.512652       0.0539661 
        6.17326        0.514838       0.0536043 
        6.18898        0.514438       0.0532457 
        6.20467        0.516453       0.0528909 
        6.22036        0.516033       0.0525393 
         6.2361        0.516814         0.05219 
         6.2518        0.519021       0.0518444 
        6.26748        0.519057       0.0515027 
        6.28319        0.520323       0.0511631 
        6.29893        0.521631       0.0508262 
        6.31463        0.522651       0.0504929 
        6.33033        0.522288       0.0501627 
        6.34604        0.522264       0.0498352 
        6.36177        0.525101       0.0495103 
        6.37747        0.525174       0.0491888 
