# k  (h/Mpc)    Pcb(k)  (Mpc/h)^3    Pcb_linear(k) (Mpc/h)^3   ShotnoiseSubtracted = true
      0.0200456         9212.87         9366.84 
      0.0350414         6476.09         6639.18 
      0.0492313         4776.55         4802.54 
      0.0637834         4018.82         3936.83 
      0.0800726         3106.55         3040.03 
       0.096163         2162.15         2192.65 
       0.111083         1733.07         1767.65 
       0.126058         1580.31         1552.22 
       0.142273         1336.85         1279.37 
       0.158546         1101.84         1007.23 
        0.17375         894.153         861.393 
       0.188953         853.314         775.095 
       0.204907         788.718         670.087 
       0.220756         663.848         564.171 
        0.23588         584.396         496.576 
         0.2514         511.605         450.502 
       0.267535         488.802         400.948 
       0.283568         440.996         351.271 
       0.299022         409.218         314.982 
       0.314451         379.531         288.059 
       0.330372         349.475         261.616 
       0.346141         313.931         235.904 
       0.361624         300.776         214.849 
       0.377134         280.141         197.831 
       0.392932         260.766         182.072 
       0.408854         249.395         166.944 
       0.424564         237.869         153.765 
       0.440253         226.663         142.558 
       0.455999         212.689         132.419 
       0.471626         197.058         123.019 
        0.48727         190.676         114.491 
       0.502856         183.398         106.949 
       0.518488         179.848         100.102 
       0.534347          170.14          93.681 
       0.550082         158.269         87.8271 
       0.565732         153.856         82.5421 
       0.581496         146.571         77.6763 
       0.597222         142.096         73.1913 
       0.612804          136.06          69.081 
       0.628434         132.135         65.2787 
       0.644267         127.501         61.7298 
       0.660051         125.358         58.4546 
       0.675724          121.61         55.4337 
       0.691403          117.71         52.6223 
       0.707174         112.768         49.9888 
       0.722871         111.345         47.5448 
        0.73838         108.893         45.2892 
       0.754018         104.241         43.1619 
       0.769845          101.87         41.1472 
        0.78569         99.5074         39.2586 
       0.801365         96.4616         37.5064 
       0.817031         92.9942         35.8621 
       0.832809          91.753         34.3057 
       0.848511         88.7655         32.8484 
       0.864097         86.4869         31.4856 
       0.879701          85.044         30.1985 
       0.895507         83.1517         28.9681 
       0.911279          81.611         27.8087 
        0.92691         79.9531         26.7221 
       0.942635          77.515         25.6874 
       0.958396         77.1952         24.7051 
       0.974128         75.0642         23.7758 
       0.989692         73.2012         22.9034 
        1.00528         71.6276         22.0733 
        1.02113         70.6301         21.2712 
        1.03692         68.1874         20.5118 
        1.05264          68.074         19.7928 
        1.06832         66.0283         19.1093 
        1.08405         65.1436         18.4561 
        1.09979         64.6833         17.8329 
        1.11537         62.2727         17.2446 
        1.13105         62.5111         16.6792 
        1.14679         61.1458         16.1369 
        1.16256         60.1579         15.6175 
        1.17828         58.5611         15.1227 
        1.19395         57.9643         14.6508 
         1.2097         56.5376         14.1966 
        1.22537         56.6001         13.7638 
          1.241         55.0578         13.3502 
        1.25666         53.9474         12.9526 
        1.27241          53.346         12.5692 
        1.28819         52.2916         12.2006 
        1.30392         51.5804         11.8479 
        1.31957          50.992         11.5105 
        1.33529         50.0341         11.1851 
        1.35108          49.742         10.8708 
        1.36674         49.0158         10.5709 
         1.3824         47.7929         10.2824 
        1.39811         47.4596         10.0038 
        1.41389         46.6956         9.73435 
        1.42964         46.0514         9.47524 
        1.44531          45.229         9.22679 
        1.46101         44.4328         8.98667 
        1.47667         44.3688         8.75578 
        1.49229         43.6831         8.53358 
        1.50793         43.0603         8.31881 
        1.52367         42.3069         8.11001 
        1.53953         41.9406         7.90695 
        1.55526         41.3639         7.71243 
        1.57092         40.9786         7.52522 
        1.58662         40.3824         7.34375 
        1.60235         39.9004         7.16789 
        1.61809         39.2878         6.99767 
        1.63369         38.6253         6.83446 
        1.64941         38.2004         6.67526 
        1.66519         37.5706         6.52054 
        1.68085         37.3271         6.37179 
        1.69652         36.7349         6.22762 
        1.71228         36.4827         6.08707 
        1.72806         36.0366         5.95072 
        1.74368         35.4128         5.81989 
        1.75933         35.0512         5.69272 
        1.77505         34.7377         5.56873 
        1.79081         34.2013         5.44819 
         1.8065         33.8585         5.33172 
        1.82218         33.4635         5.21874 
        1.83797         32.9228         5.10824 
        1.85367         32.4965         5.00153 
        1.86928         32.2412         4.89849 
        1.88497          31.967         4.79778 
        1.90073         31.5749         4.69951 
        1.91647          31.171         4.60407 
        1.93218         30.9076         4.51146 
        1.94787         30.4732         4.42152 
        1.96363         30.2056         4.33367 
        1.97935         29.7741         4.24837 
        1.99499         29.4585         4.16583 
        2.01064         29.2181         4.08535 
         2.0264          28.728         4.00649 
        2.04216         28.4361         3.92973 
        2.05781         28.0709         3.85545 
        2.07353          27.821         3.78282 
        2.08928         27.7416         3.71189 
        2.10499         27.3177         3.64296 
        2.12065         26.9162         3.57597 
        2.13633         26.8104          3.5106 
        2.15211         26.3454         3.44643 
        2.16785         25.9692         3.38404 
        2.18349         25.8348         3.32357 
        2.19916         25.6036         3.26445 
        2.21489         25.2165         3.20656 
        2.23063         25.0205         3.15002 
         2.2463         24.7279         3.09509 
        2.26194         24.5206         3.04161 
        2.27765         24.2605          2.9891 
        2.29341         24.0068         2.93769 
        2.30914          23.821         2.88759 
        2.32486         23.4466         2.83867 
        2.34061         23.3096          2.7908 
        2.35635         23.0401         2.74407 
        2.37203         22.8761         2.69857 
        2.38768         22.5199         2.65418 
        2.40339          22.422         2.61063 
        2.41914         22.1647         2.56794 
        2.43483         21.8883         2.52636 
         2.4505         21.6982         2.48576 
        2.46622         21.4843         2.44591 
        2.48195         21.2498         2.40692 
        2.49759         21.0598         2.36898 
        2.51328         20.7597         2.33176 
        2.52906         20.7064          2.2951 
        2.54479          20.386         2.25936 
        2.56049         20.1676         2.22444 
        2.57618         19.9439         2.19029 
        2.59189         19.8851         2.15679 
        2.60758         19.6311         2.12405 
        2.62325         19.3983         2.09202 
        2.63898         19.3169         2.06053 
        2.65468         19.0424         2.02976 
        2.67044         18.8807         1.99948 
        2.68618         18.6336         1.96988 
        2.70184         18.5336         1.94099 
        2.71755         18.3832         1.91261 
        2.73329         18.1388         1.88475 
        2.74897         17.9215         1.85753 
        2.76462         17.8515          1.8309 
        2.78034         17.6916         1.80469 
        2.79607         17.5108         1.77895 
        2.81179         17.3308         1.75375 
        2.82749          17.182         1.72905 
        2.84321         17.0527          1.7048 
        2.85893         16.7944         1.68102 
        2.87462         16.6588         1.65774 
        2.89033         16.5762         1.63486 
        2.90605         16.4256          1.6124 
        2.92176         16.2017         1.59037 
        2.93747         16.1232         1.56876 
        2.95318          15.912         1.54754 
        2.96891         15.8017          1.5267 
        2.98456         15.6512         1.50634 
        3.00023         15.4449         1.48631 
        3.01596         15.4132         1.46659 
        3.03164         15.2367         1.44727 
        3.04738         15.0652         1.42825 
         3.0631         14.9362         1.40957 
        3.07883         14.7898         1.39122 
        3.09456          14.654          1.3732 
        3.11026         14.5424         1.35552 
        3.12596         14.4009         1.33816 
        3.14163         14.2877         1.32113 
        3.15734         14.1218         1.30436 
        3.17308         14.0048         1.28784 
        3.18879         13.8852         1.27165 
        3.20447         13.7833         1.25576 
         3.2202         13.6333         1.24009 
         3.2359         13.5059         1.22471 
        3.25157         13.4032         1.20963 
        3.26729         13.3163         1.19476 
        3.28304         13.1555          1.1801 
        3.29877         12.9951         1.16571 
        3.31446         12.9077         1.15159 
        3.33014         12.8025         1.13771 
        3.34585         12.6455         1.12404 
        3.36158          12.563         1.11057 
        3.37727         12.4326         1.09736 
        3.39294         12.3015         1.08437 
        3.40867         12.2158         1.07155 
        3.42439         12.1123         1.05895 
        3.44008         12.0192         1.04656 
        3.45578          11.905         1.03437 
        3.47153         11.8289         1.02234 
        3.48724         11.6972         1.01052 
        3.50292         11.6051        0.998916 
        3.51859          11.526        0.987498 
        3.53431         11.4293        0.976221 
        3.55007         11.3131        0.965092 
        3.56577           11.22        0.954178 
        3.58146         11.1382        0.943437 
        3.59719          11.016        0.932835 
        3.61292         10.9284        0.922399 
        3.62859         10.8249         0.91216 
        3.64429         10.7379        0.902056 
        3.66003         10.6595        0.892073 
        3.67578         10.5935        0.882244 
        3.69146         10.4767        0.872599 
        3.70712         10.3801        0.863115 
        3.72284         10.3023        0.853735 
        3.73853         10.1837         0.84451 
        3.75422         10.1116        0.835416 
        3.76993         10.0626        0.826448 
        3.78564         9.92925        0.817615 
        3.80137         9.86589        0.808895 
        3.81707         9.80577        0.800319 
        3.83279         9.67649         0.79186 
        3.84853         9.62518        0.783509 
        3.86424         9.49098        0.775293 
        3.87992         9.45935        0.767207 
        3.89561         9.37257        0.759235 
        3.91134         9.30577        0.751359 
        3.92704         9.21085        0.743602 
        3.94273         9.14896        0.735963 
        3.95845         9.07302        0.728416 
        3.97418         9.01333        0.720972 
        3.98988         8.91216        0.713641 
        4.00554         8.86743        0.706432 
        4.02125         8.75523        0.699301 
        4.03698         8.70966        0.692257 
        4.05268         8.62542        0.685325 
        4.06839         8.56657        0.678482 
         4.0841         8.46867        0.671734 
        4.09983         8.42273        0.665067 
        4.11555         8.34165        0.658493 
        4.13124          8.2776        0.652025 
        4.14693         8.21441        0.645638 
        4.16266         8.15775        0.639321 
        4.17839         8.07472        0.633092 
        4.19408         8.01707        0.626959 
        4.20977         7.94431        0.620905 
        4.22551         7.90275        0.614915 
        4.24123         7.83426         0.60901 
        4.25691         7.78214        0.603197 
        4.27259          7.6808        0.597459 
        4.28831         7.63082        0.591782 
        4.30404         7.57194        0.586174 
        4.31974         7.53547         0.58065 
        4.33543         7.45941          0.5752 
        4.35116         7.39801        0.569806 
        4.36688         7.33345        0.564482 
        4.38255         7.27924        0.559247 
        4.39825         7.22447        0.554065 
        4.41398         7.15536        0.548939 
         4.4297         7.11542        0.543882 
        4.44541         7.04979         0.53889 
        4.46111         7.00671        0.533963 
        4.47683         6.95206        0.529094 
        4.49251         6.89398        0.524295 
        4.50819         6.82635        0.519557 
         4.5239          6.7812         0.51487 
        4.53962         6.73881        0.510234 
        4.55535         6.67673        0.505653 
        4.57106         6.62221        0.501134 
        4.58678         6.57532        0.496669 
         4.6025         6.51521        0.492257 
        4.61821         6.47276        0.487899 
        4.63391         6.44058        0.483599 
         4.6496         6.38567        0.479352 
        4.66532         6.33372        0.475149 
        4.68103         6.27691        0.470998 
        4.69673          6.2408          0.4669 
        4.71241           6.189        0.462855 
        4.72811          6.1183         0.45885 
        4.74384         6.10416        0.454888 
        4.75955         6.04975        0.450978 
        4.77525         6.00254        0.447115 
        4.79096         5.96824        0.443293 
        4.80669          5.9068        0.439514 
         4.8224         5.86289        0.435782 
        4.83809         5.81793        0.432097 
        4.85379         5.77152        0.428453 
         4.8695         5.74131        0.424847 
        4.88521         5.70028        0.421284 
        4.90093         5.64163        0.417761 
        4.91663         5.59668        0.414281 
        4.93234         5.56845        0.410836 
        4.94807         5.52172        0.407429 
        4.96377         5.49144        0.404066 
        4.97943         5.45214        0.400748 
        4.99514         5.39846        0.397458 
        5.01086         5.35991        0.394202 
        5.02654         5.33064        0.390991 
        5.04227         5.28953        0.387806 
          5.058          5.2563        0.384654 
        5.07371         5.21921        0.381544 
        5.08942         5.16927        0.378467 
        5.10513         5.14189        0.375424 
        5.12084         5.09254        0.372412 
        5.13656         5.06377        0.369434 
        5.15225         5.02982        0.366493 
        5.16796         5.00642        0.363579 
        5.18369         4.95766        0.360694 
         5.1994          4.9219        0.357845 
        5.21509         4.89014        0.355029 
        5.23079          4.8534         0.35224 
        5.24649         4.83136        0.349483 
        5.26217         4.79378        0.346757 
        5.27788         4.74953        0.344057 
        5.29359          4.7239        0.341384 
        5.30933         4.68989        0.338735 
        5.32504         4.66336        0.336119 
        5.34073         4.61941        0.333533 
        5.35646         4.58841        0.330969 
        5.37218         4.56113        0.328432 
        5.38789         4.53904        0.325924 
        5.40357         4.50019        0.323446 
        5.41929         4.47343        0.320988 
        5.43502          4.4356        0.318554 
         5.4507         4.40061        0.316152 
        5.46639         4.37141        0.313774 
        5.48212         4.33639        0.311414 
        5.49786          4.3216        0.309076 
        5.51353         4.28459        0.306773 
        5.52921         4.26144        0.304492 
        5.54495         4.22699        0.302226 
        5.56066         4.19917        0.299986 
        5.57637         4.16969        0.297769 
        5.59207         4.14148        0.295576 
        5.60778         4.10945        0.293404 
        5.62346         4.09279        0.291256 
        5.63916         4.05567        0.289128 
        5.65487         4.03039         0.28702 
         5.6706          4.0113        0.284931 
        5.68633         3.98134        0.282861 
        5.70203         3.95012        0.280816 
        5.71773         3.92931        0.278791 
        5.73344         3.89737        0.276785 
        5.74916         3.88568        0.274797 
        5.76486         3.85325        0.272831 
        5.78054          3.8312        0.270887 
        5.79626         3.79775        0.268956 
          5.812         3.78246        0.267042 
         5.8277         3.74826        0.265152 
        5.84339         3.73234        0.263281 
        5.85911         3.71345        0.261423 
        5.87484         3.68413        0.259584 
        5.89053         3.65786        0.257766 
        5.90623         3.64427        0.255965 
        5.92195         3.61183        0.254177 
        5.93767         3.58658        0.252407 
        5.95336         3.57037        0.250657 
        5.96905         3.54714        0.248924 
        5.98476         3.51844        0.247205 
        6.00048          3.5031        0.245502 
        6.01617         3.48477        0.243816 
        6.03185         3.45041        0.242149 
        6.04756         3.43311        0.240493 
        6.06331         3.41158        0.238848 
        6.07903         3.39305        0.237223 
        6.09473         3.36684        0.235614 
        6.11044          3.3497        0.234018 
        6.12616         3.33566        0.232437 
        6.14186         3.30935        0.230873 
        6.15755         3.29146        0.229322 
        6.17326          3.2703        0.227785 
        6.18898         3.25046        0.226261 
        6.20467         3.23313        0.224753 
        6.22036         3.21636        0.223259 
         6.2361         3.19451        0.221775 
         6.2518         3.17703        0.220306 
        6.26748         3.15214        0.218854 
        6.28319         3.13383        0.217411 
        6.29893         3.11196         0.21598 
        6.31463         3.10011        0.214563 
        6.33033         3.07933         0.21316 
        6.34604         3.06036        0.211768 
        6.36177          3.0365        0.210388 
        6.37747         3.02964        0.209022 
