# k  (h/Mpc)    Pcb(k)  (Mpc/h)^3    Pcb_linear(k) (Mpc/h)^3   ShotnoiseSubtracted = true
      0.0200456         16804.1         17054.1 
      0.0350414         12466.7         12087.9 
      0.0492313          8620.9         8743.91 
      0.0637834          6872.2         7167.73 
      0.0800726         5276.05         5534.94 
       0.096163         4171.95         3992.12 
       0.111083          3416.5         3218.34 
       0.126058         2815.19         2826.11 
       0.142273         2403.37         2329.33 
       0.158546         1967.55         1833.85 
        0.17375         1746.11         1568.33 
       0.188953         1630.69          1411.2 
       0.204907         1383.47         1220.02 
       0.220756         1240.89         1027.18 
        0.23588          1107.7         904.109 
         0.2514         992.203         820.222 
       0.267535         958.141         730.001 
       0.283568         841.118         639.554 
       0.299022         802.208         573.484 
       0.314451         823.956         524.466 
       0.330372         710.169          476.32 
       0.346141         653.857         429.508 
       0.361624         625.554         391.172 
       0.377134          592.61         360.188 
       0.392932         568.584         331.496 
       0.408854         541.932         303.952 
       0.424564         526.111         279.957 
       0.440253         479.552         259.553 
       0.455999         458.448         241.094 
       0.471626         464.653         223.979 
        0.48727         437.846         208.452 
       0.502856         408.461         194.721 
       0.518488         404.822         182.254 
       0.534347         379.999         170.564 
       0.550082         364.225         159.905 
       0.565732         361.209         150.283 
       0.581496         349.154         141.424 
       0.597222         338.949         133.258 
       0.612804         330.094         125.775 
       0.628434         316.834         118.852 
       0.644267         304.284         112.391 
       0.660051         299.961         106.427 
       0.675724         294.125         100.927 
       0.691403         287.187         95.8087 
       0.707174         275.789          91.014 
       0.722871         271.191         86.5642 
        0.73838         267.632         82.4573 
       0.754018         256.761         78.5842 
       0.769845         255.618         74.9162 
        0.78569         248.836         71.4775 
       0.801365          241.31         68.2874 
       0.817031         238.329         65.2936 
       0.832809         233.326         62.4599 
       0.848511          227.37         59.8066 
       0.864097         221.383         57.3253 
       0.879701         220.205         54.9821 
       0.895507         214.413         52.7419 
       0.911279         208.744         50.6308 
        0.92691         205.909         48.6525 
       0.942635         204.103         46.7686 
       0.958396         198.662         44.9802 
       0.974128         195.624         43.2883 
       0.989692         188.474         41.6999 
        1.00528         188.088         40.1885 
        1.02113         184.896         38.7282 
        1.03692         180.435         37.3455 
        1.05264         177.262         36.0364 
        1.06832         176.805         34.7919 
        1.08405         171.594         33.6027 
        1.09979         170.272         32.4681 
        1.11537         166.929          31.397 
        1.13105         163.822         30.3676 
        1.14679         162.072         29.3802 
        1.16256         159.242         28.4346 
        1.17828         157.379         27.5336 
        1.19395          153.15         26.6745 
         1.2097         152.262         25.8476 
        1.22537         150.938         25.0595 
          1.241         146.709         24.3066 
        1.25666         145.231         23.5826 
        1.27241          141.94         22.8846 
        1.28819          140.42         22.2135 
        1.30392         138.556         21.5712 
        1.31957         134.989         20.9571 
        1.33529          133.34         20.3645 
        1.35108         131.871         19.7924 
        1.36674         129.307         19.2462 
         1.3824         128.456         18.7211 
        1.39811         125.813         18.2138 
        1.41389         123.639         17.7232 
        1.42964         121.859         17.2514 
        1.44531         120.673         16.7991 
        1.46101         118.001         16.3619 
        1.47667         117.599         15.9415 
        1.49229         115.736          15.537 
        1.50793           113.5         15.1459 
        1.52367         111.954         14.7658 
        1.53953         109.976         14.3961 
        1.55526         109.379         14.0419 
        1.57092         107.931         13.7011 
        1.58662         105.816         13.3707 
        1.60235         104.391         13.0505 
        1.61809         103.207         12.7406 
        1.63369         101.377         12.4434 
        1.64941         100.957         12.1536 
        1.66519         99.2436         11.8719 
        1.68085         97.1837          11.601 
        1.69652         96.3531         11.3385 
        1.71228         95.2768         11.0826 
        1.72806         94.2132         10.8344 
        1.74368         92.5323         10.5962 
        1.75933         91.8205         10.3647 
        1.77505         90.2237         10.1389 
        1.79081         88.9622         9.91945 
         1.8065         87.3375         9.70739 
        1.82218         86.4537         9.50168 
        1.83797         86.0685         9.30049 
        1.85367         84.3259         9.10621 
        1.86928         83.8657         8.91861 
        1.88497         82.2933         8.73525 
        1.90073         81.6044         8.55633 
        1.91647         80.1543         8.38256 
        1.93218         79.1888         8.21395 
        1.94787         77.9377         8.05021 
        1.96363         77.2963         7.89025 
        1.97935         76.5064         7.73494 
        1.99499         75.7398         7.58467 
        2.01064         73.8815         7.43815 
         2.0264         73.4724         7.29455 
        2.04216         72.0188          7.1548 
        2.05781         71.5435         7.01957 
        2.07353         70.6715         6.88733 
        2.08928         69.6196         6.75818 
        2.10499         68.7227         6.63268 
        2.12065         68.2897         6.51072 
        2.13633         67.3242          6.3917 
        2.15211         66.1798         6.27487 
        2.16785         65.1925         6.16128 
        2.18349         64.5072         6.05118 
        2.19916         63.6984         5.94353 
        2.21489          62.892         5.83813 
        2.23063         61.9598          5.7352 
         2.2463          61.544         5.63519 
        2.26194         60.7814         5.53781 
        2.27765          59.959         5.44221 
        2.29341          59.281         5.34861 
        2.30914         58.5453         5.25739 
        2.32486         57.4355         5.16833 
        2.34061         56.9162         5.08117 
        2.35635         56.3312          4.9961 
        2.37203         55.4759         4.91325 
        2.38768         54.9485         4.83243 
        2.40339          54.382         4.75314 
        2.41914         53.3262         4.67542 
        2.43483         53.1271         4.59971 
         2.4505         52.3357         4.52579 
        2.46622         51.9119         4.45323 
        2.48195         51.1799         4.38224 
        2.49759         50.6153         4.31317 
        2.51328         50.0438         4.24541 
        2.52906          49.438         4.17865 
        2.54479         48.8466         4.11358 
        2.56049         48.1055         4.05001 
        2.57618         47.6098         3.98782 
        2.59189         47.1624         3.92684 
        2.60758         46.4904         3.86723 
        2.62325          46.049         3.80891 
        2.63898         45.6127         3.75159 
        2.65468         45.0541         3.69555 
        2.67044         44.5837         3.64042 
        2.68618         44.1466         3.58653 
        2.70184         43.5658         3.53394 
        2.71755         42.8095         3.48226 
        2.73329         42.5758         3.43154 
        2.74897         42.1858         3.38198 
        2.76462         41.7655          3.3335 
        2.78034         41.2305         3.28577 
        2.79607         40.5694         3.23891 
        2.81179         40.1817         3.19302 
        2.82749         39.8448         3.14806 
        2.84321         39.5061         3.10391 
        2.85893         38.9755         3.06062 
        2.87462          38.358         3.01822 
        2.89033         38.0083         2.97657 
        2.90605         37.5282         2.93568 
        2.92176         37.3062         2.89556 
        2.93747         36.8043         2.85621 
        2.95318         36.4209         2.81758 
        2.96891         35.9965         2.77964 
        2.98456         35.7049         2.74257 
        3.00023          35.164         2.70611 
        3.01596         34.8467         2.67019 
        3.03164         34.4853         2.63503 
        3.04738         34.1116         2.60039 
         3.0631         33.8859         2.56638 
        3.07883         33.4096         2.53297 
        3.09456         33.0728         2.50016 
        3.11026         32.6651         2.46798 
        3.12596         32.3659         2.43636 
        3.14163         31.9822         2.40537 
        3.15734         31.7216         2.37484 
        3.17308          31.404         2.34476 
        3.18879         31.0765         2.31528 
        3.20447         30.6232         2.28635 
         3.2202         30.3325         2.25782 
         3.2359         30.1472         2.22982 
        3.25157         29.6852         2.20236 
        3.26729         29.5023         2.17528 
        3.28304         29.2268          2.1486 
        3.29877         28.7865         2.12239 
        3.31446         28.5642         2.09668 
        3.33014         28.2117         2.07141 
        3.34585         27.8965         2.04652 
        3.36158         27.6692         2.02199 
        3.37727           27.35         1.99794 
        3.39294         27.0896         1.97431 
        3.40867         26.8866         1.95096 
        3.42439         26.5732         1.92801 
        3.44008         26.3301         1.90546 
        3.45578         26.0275         1.88326 
        3.47153         25.8812         1.86136 
        3.48724         25.4956         1.83984 
        3.50292         25.3294         1.81871 
        3.51859         25.0581         1.79792 
        3.53431         24.8313         1.77739 
        3.55007         24.4578         1.75713 
        3.56577          24.282         1.73726 
        3.58146         24.0314          1.7177 
        3.59719         23.8267          1.6984 
        3.61292         23.6041          1.6794 
        3.62859         23.3553         1.66076 
        3.64429          23.114         1.64236 
        3.66003         22.8734         1.62419 
        3.67578         22.6945         1.60629 
        3.69146         22.4784         1.58873 
        3.70712         22.2243         1.57146 
        3.72284         22.0679         1.55438 
        3.73853         21.8776         1.53759 
        3.75422         21.6385         1.52103 
        3.76993         21.4395          1.5047 
        3.78564          21.187         1.48862 
        3.80137         21.0493         1.47274 
        3.81707         20.8338         1.45713 
        3.83279         20.5902         1.44173 
        3.84853         20.4373         1.42652 
        3.86424         20.1398         1.41157 
        3.87992         20.0001         1.39684 
        3.89561          19.876         1.38233 
        3.91134          19.612         1.36799 
        3.92704         19.4457         1.35387 
        3.94273          19.237         1.33996 
        3.95845         19.0977         1.32622 
        3.97418         18.9489         1.31266 
        3.98988         18.7353         1.29932 
        4.00554         18.5158         1.28619 
        4.02125         18.3849         1.27321 
        4.03698          18.216         1.26038 
        4.05268         18.0513         1.24776 
        4.06839         17.8831          1.2353 
         4.0841         17.7072         1.22302 
        4.09983         17.5442         1.21088 
        4.11555         17.4145         1.19891 
        4.13124          17.304         1.18713 
        4.14693         17.1127          1.1755 
        4.16266         16.9599           1.164 
        4.17839         16.7917         1.15266 
        4.19408         16.6333          1.1415 
        4.20977         16.5061         1.13047 
        4.22551         16.3833         1.11957 
        4.24123         16.1881         1.10882 
        4.25691         16.0748         1.09823 
        4.27259          15.954         1.08778 
        4.28831         15.8071         1.07745 
        4.30404         15.6166         1.06724 
        4.31974         15.5352         1.05718 
        4.33543         15.3852         1.04726 
        4.35116         15.2665         1.03744 
        4.36688         15.1013         1.02775 
        4.38255         14.9659         1.01821 
        4.39825         14.8627         1.00878 
        4.41398         14.7042        0.999445 
         4.4297         14.6437        0.990238 
        4.44541         14.4751        0.981149 
        4.46111         14.2955        0.972179 
        4.47683         14.2093        0.963314 
        4.49251         14.0945        0.954577 
        4.50819         13.9793        0.945949 
         4.5239         13.8735        0.937416 
        4.53962         13.7693        0.928976 
        4.55535         13.6319        0.920635 
        4.57106         13.5338        0.912407 
        4.58678         13.3833        0.904278 
         4.6025         13.2723        0.896245 
        4.61821         13.1832         0.88831 
        4.63391          13.057        0.880481 
         4.6496         12.9386        0.872749 
        4.66532         12.8308        0.865097 
        4.68103         12.7427        0.857539 
        4.69673         12.6356        0.850078 
        4.71241         12.5535        0.842713 
        4.72811         12.4276        0.835422 
        4.74384         12.3371        0.828208 
        4.75955         12.2065        0.821089 
        4.77525         12.1096        0.814057 
        4.79096         12.0251        0.807098 
        4.80669         11.9506        0.800216 
         4.8224         11.8466        0.793422 
        4.83809         11.7079        0.786714 
        4.85379         11.6288        0.780078 
         4.8695         11.5689        0.773513 
        4.88521         11.4394        0.767026 
        4.90093         11.3318        0.760611 
        4.91663         11.2798        0.754275 
        4.93234         11.1847        0.748004 
        4.94807         11.0948          0.7418 
        4.96377         11.0165        0.735677 
        4.97943         10.9264        0.729635 
        4.99514         10.8118        0.723646 
        5.01086         10.7497        0.717718 
        5.02654         10.6736        0.711872 
        5.04227         10.5861        0.706072 
          5.058         10.4863        0.700335 
        5.07371         10.4274        0.694672 
        5.08942         10.3423         0.68907 
        5.10513         10.2597        0.683529 
        5.12084         10.1801        0.678045 
        5.13656         10.0913        0.672623 
        5.15225         10.0274        0.667268 
        5.16796         9.95049        0.661963 
        5.18369          9.8631         0.65671 
         5.1994         9.79905        0.651523 
        5.21509         9.70933        0.646397 
        5.23079         9.65005        0.641319 
        5.24649          9.5459        0.636299 
        5.26217         9.48874        0.631336 
        5.27788         9.42464        0.626419 
        5.29359         9.33884        0.621553 
        5.30933         9.27346        0.616731 
        5.32504         9.21101        0.611968 
        5.34073         9.15097         0.60726 
        5.35646         9.09254        0.602591 
        5.37218         8.99906        0.597971 
        5.38789          8.9296        0.593406 
        5.40357         8.86977        0.588893 
        5.41929         8.80339        0.584418 
        5.43502         8.74841        0.579987 
         5.4507         8.67414        0.575613 
        5.46639         8.59008        0.571283 
        5.48212         8.56338        0.566988 
        5.49786         8.49326        0.562731 
        5.51353         8.42059        0.558538 
        5.52921         8.36757        0.554383 
        5.54495         8.31422        0.550259 
        5.56066         8.23356         0.54618 
        5.57637         8.19078        0.542143 
        5.59207         8.11239         0.53815 
        5.60778         8.06974        0.534196 
        5.62346         7.99966        0.530286 
        5.63916         7.94613        0.526412 
        5.65487         7.90979        0.522574 
         5.6706         7.82624        0.518769 
        5.68633         7.76909        0.515001 
        5.70203         7.72301        0.511277 
        5.71773         7.65878        0.507591 
        5.73344         7.62358        0.503939 
        5.74916         7.57008        0.500319 
        5.76486         7.50337        0.496739 
        5.78054         7.45906          0.4932 
        5.79626         7.39726        0.489685 
          5.812         7.34074          0.4862 
         5.8277         7.29606        0.482759 
        5.84339         7.21804        0.479352 
        5.85911         7.20344         0.47597 
        5.87484         7.13819        0.472621 
        5.89053         7.09111        0.469311 
        5.90623         7.05032        0.466031 
        5.92195         6.98918        0.462776 
        5.93767         6.95433        0.459555 
        5.95336         6.88581        0.456368 
        5.96905         6.84725        0.453213 
        5.98476         6.80107        0.450083 
        6.00048         6.76088        0.446981 
        6.01617         6.70928        0.443913 
        6.03185         6.66796        0.440877 
        6.04756         6.62388        0.437861 
        6.06331         6.57317        0.434868 
        6.07903         6.53311        0.431908 
        6.09473         6.48014        0.428979 
        6.11044         6.43378        0.426073 
        6.12616          6.3998        0.423195 
        6.14186         6.36414        0.420346 
        6.15755         6.32242        0.417524 
        6.17326         6.28062        0.414725 
        6.18898           6.227         0.41195 
        6.20467         6.19349        0.409205 
        6.22036         6.14088        0.406485 
         6.2361         6.11009        0.403783 
         6.2518         6.06803        0.401109 
        6.26748         6.02854        0.398465 
        6.28319         5.98919        0.395837 
        6.29893         5.94726        0.393231 
        6.31463         5.90474        0.390653 
        6.33033         5.86147        0.388098 
        6.34604         5.82769        0.385564 
        6.36177         5.79401         0.38305 
        6.37747         5.74764        0.380563 
