# k  (h/Mpc)    Pcb(k)  (Mpc/h)^3    Pcb_linear(k) (Mpc/h)^3   ShotnoiseSubtracted = true
      0.0200456         15919.6         16152.8 
      0.0350414         11802.5           11449 
      0.0492313         8173.44         8281.81 
      0.0637834         6517.41         6788.93 
      0.0800726         5004.78         5242.43 
       0.096163         3948.84         3781.15 
       0.111083         3233.47         3048.26 
       0.126058         2666.23         2676.75 
       0.142273         2272.35         2206.23 
       0.158546         1860.38         1736.94 
        0.17375         1648.47         1485.44 
       0.188953         1536.39         1336.62 
       0.204907         1302.16         1155.54 
       0.220756         1167.05         972.894 
        0.23588         1041.53         856.329 
         0.2514         932.128         776.875 
       0.267535         900.227         691.421 
       0.283568         788.912         605.754 
       0.299022         752.502         543.176 
       0.314451          770.56         496.749 
       0.330372         662.768         451.148 
       0.346141         610.728         406.809 
       0.361624         583.981         370.499 
       0.377134         551.964         341.152 
       0.392932         530.353         313.977 
       0.408854         505.179         287.889 
       0.424564         489.857         265.162 
       0.440253         445.593         245.836 
       0.455999          426.06         228.353 
       0.471626         431.075         212.142 
        0.48727         406.433         197.436 
       0.502856         377.632          184.43 
       0.518488         375.492         172.622 
       0.534347         351.417          161.55 
       0.550082         337.465         151.455 
       0.565732         335.007         142.341 
       0.581496         322.658          133.95 
       0.597222         313.096         126.216 
       0.612804         304.718         119.128 
       0.628434          292.63         112.571 
       0.644267         280.629         106.451 
       0.660051         276.527         100.803 
       0.675724         271.502         95.5935 
       0.691403         264.868         90.7454 
       0.707174         254.418         86.2041 
       0.722871         250.168         81.9894 
        0.73838          247.19         78.0996 
       0.754018         236.536         74.4312 
       0.769845         235.681          70.957 
        0.78569         229.264         67.7001 
       0.801365         222.494         64.6786 
       0.817031         219.307          61.843 
       0.832809         214.789          59.159 
       0.848511         209.173         56.6459 
       0.864097         203.754         54.2958 
       0.879701         202.716         52.0764 
       0.895507         197.645         49.9546 
       0.911279         192.117         47.9551 
        0.92691         189.308         46.0813 
       0.942635         187.652          44.297 
       0.958396          182.89         42.6031 
       0.974128         179.805         41.0006 
       0.989692          173.49         39.4961 
        1.00528         172.977         38.0646 
        1.02113         169.781         36.6815 
        1.03692          165.92         35.3719 
        1.05264         163.098          34.132 
        1.06832         162.472         32.9533 
        1.08405         157.747         31.8269 
        1.09979         156.605         30.7522 
        1.11537          153.52         29.7377 
        1.13105           150.8         28.7627 
        1.14679         149.011         27.8275 
        1.16256         146.333         26.9319 
        1.17828         144.607         26.0785 
        1.19395         140.849         25.2648 
         1.2097         139.919         24.4816 
        1.22537         138.562         23.7352 
          1.241         135.006          23.022 
        1.25666         133.344         22.3363 
        1.27241         130.196         21.6752 
        1.28819         128.944         21.0396 
        1.30392         127.133         20.4312 
        1.31957         124.045         19.8495 
        1.33529         122.614         19.2883 
        1.35108         121.087         18.7464 
        1.36674         118.829         18.2291 
         1.3824         118.149         17.7317 
        1.39811         115.453         17.2512 
        1.41389         113.867         16.7866 
        1.42964         111.942         16.3397 
        1.44531         110.861         15.9113 
        1.46101         108.442         15.4972 
        1.47667         108.187          15.099 
        1.49229         106.584         14.7159 
        1.50793         104.474         14.3455 
        1.52367         103.004         13.9854 
        1.53953         101.445         13.6353 
        1.55526         100.649         13.2998 
        1.57092         99.4188          12.977 
        1.58662         97.6885         12.6641 
        1.60235         96.1724         12.3608 
        1.61809         95.2924         12.0672 
        1.63369         93.5265         11.7858 
        1.64941         93.2672         11.5113 
        1.66519         91.5914         11.2444 
        1.68085         89.7875         10.9879 
        1.69652         88.8503         10.7393 
        1.71228         87.8611         10.4969 
        1.72806         86.8575         10.2618 
        1.74368         85.2538         10.0362 
        1.75933         84.6853          9.8169 
        1.77505         83.3377         9.60308 
        1.79081         82.0679         9.39522 
         1.8065         80.8125         9.19437 
        1.82218         79.9201         8.99953 
        1.83797         79.5689         8.80898 
        1.85367         77.7748         8.62496 
        1.86928         77.4222         8.44728 
        1.88497         76.1933         8.27361 
        1.90073         75.4226         8.10415 
        1.91647         74.0953         7.93956 
        1.93218         73.1567         7.77986 
        1.94787         72.1012         7.62477 
        1.96363         71.4105         7.47326 
        1.97935         70.7567         7.32617 
        1.99499          69.997         7.18383 
        2.01064         68.3771         7.04506 
         2.0264          67.906         6.90905 
        2.04216         66.6912         6.77668 
        2.05781         66.1938          6.6486 
        2.07353          65.395         6.52334 
        2.08928         64.4512         6.40103 
        2.10499         63.6308         6.28215 
        2.12065         63.2229         6.16664 
        2.13633         62.3689         6.05391 
        2.15211          61.321         5.94326 
        2.16785         60.3358         5.83566 
        2.18349         59.7863         5.73139 
        2.19916         59.0767         5.62943 
        2.21489         58.2175          5.5296 
        2.23063         57.4594          5.4321 
         2.2463         57.0495         5.33739 
        2.26194         56.3702         5.24515 
        2.27765         55.6087          5.1546 
        2.29341          54.985         5.06595 
        2.30914         54.2675         4.97954 
        2.32486         53.3178         4.89519 
        2.34061         52.8718         4.81264 
        2.35635         52.3057         4.73206 
        2.37203         51.5169         4.65359 
        2.38768         51.0722         4.57705 
        2.40339         50.5175         4.50194 
        2.41914         49.6186         4.42833 
        2.43483          49.373         4.35662 
         2.4505         48.7456         4.28661 
        2.46622         48.2776         4.21788 
        2.48195         47.6047         4.15065 
        2.49759         47.0987         4.08523 
        2.51328         46.6431         4.02104 
        2.52906         45.9993         3.95782 
        2.54479          45.432         3.89618 
        2.56049         44.7115         3.83597 
        2.57618          44.329         3.77707 
        2.59189         43.9549         3.71932 
        2.60758         43.2686         3.66285 
        2.62325         42.8818         3.60762 
        2.63898         42.4831         3.55332 
        2.65468         41.9281         3.50025 
        2.67044         41.5152         3.44803 
        2.68618          41.116         3.39699 
        2.70184         40.4742         3.34718 
        2.71755         39.9325         3.29823 
        2.73329         39.6807         3.25019 
        2.74897         39.3734         3.20325 
        2.76462         38.8445         3.15733 
        2.78034         38.3636         3.11212 
        2.79607         37.7951         3.06774 
        2.81179         37.4777         3.02428 
        2.82749          37.136         2.98169 
        2.84321         36.8084         2.93988 
        2.85893         36.2781         2.89887 
        2.87462         35.6956         2.85871 
        2.89033         35.4334         2.81927 
        2.90605         35.0098         2.78053 
        2.92176         34.7595         2.74254 
        2.93747         34.3484         2.70527 
        2.95318         34.0203         2.66868 
        2.96891         33.5778         2.63275 
        2.98456         33.3038         2.59763 
        3.00023         32.8696          2.5631 
        3.01596         32.5949         2.52908 
        3.03164         32.2192         2.49577 
        3.04738         31.7934         2.46296 
         3.0631         31.6631         2.43075 
        3.07883         31.2133         2.39911 
        3.09456         30.8943         2.36803 
        3.11026         30.4581         2.33755 
        3.12596         30.2088         2.30761 
        3.14163         29.8553         2.27825 
        3.15734         29.6349         2.24933 
        3.17308         29.3534         2.22084 
        3.18879         28.9724         2.19292 
        3.20447         28.5635         2.16552 
         3.2202           28.32          2.1385 
         3.2359         28.1923         2.11198 
        3.25157         27.7639         2.08597 
        3.26729         27.5339         2.06032 
        3.28304         27.2995         2.03505 
        3.29877         26.8722         2.01023 
        3.31446         26.6853         1.98587 
        3.33014         26.3434         1.96194 
        3.34585         26.0843         1.93836 
        3.36158         25.8341         1.91513 
        3.37727         25.5779         1.89236 
        3.39294         25.3227         1.86997 
        3.40867         25.1187         1.84786 
        3.42439         24.8739         1.82612 
        3.44008         24.6331         1.80476 
        3.45578         24.3452         1.78373 
        3.47153         24.1509         1.76299 
        3.48724         23.8433         1.74261 
        3.50292         23.6711          1.7226 
        3.51859         23.4188         1.70291 
        3.53431         23.1738         1.68346 
        3.55007         22.8684         1.66427 
        3.56577          22.628         1.64545 
        3.58146         22.4489         1.62693 
        3.59719         22.2932         1.60864 
        3.61292         22.0764         1.59065 
        3.62859         21.8234         1.57299 
        3.64429         21.5929         1.55557 
        3.66003         21.4032         1.53835 
        3.67578          21.191          1.5214 
        3.69146         21.0423         1.50477 
        3.70712         20.8167         1.48841 
        3.72284         20.6698         1.47224 
        3.73853          20.469         1.45633 
        3.75422         20.2295         1.44065 
        3.76993          20.059         1.42518 
        3.78564         19.8166         1.40995 
        3.80137         19.6435         1.39491 
        3.81707         19.4578         1.38012 
        3.83279         19.2648         1.36554 
        3.84853         19.1431         1.35113 
        3.86424         18.8834         1.33697 
        3.87992         18.6994         1.32302 
        3.89561         18.6047         1.30927 
        3.91134         18.3573         1.29569 
        3.92704           18.21         1.28232 
        3.94273         18.0013         1.26914 
        3.95845         17.8999         1.25613 
        3.97418          17.745         1.24329 
        3.98988         17.5411         1.23065 
        4.00554         17.3682         1.21822 
        4.02125          17.206         1.20592 
        4.03698         17.0699         1.19377 
        4.05268         16.9178         1.18182 
        4.06839         16.7698         1.17002 
         4.0841         16.6155         1.15838 
        4.09983         16.4576         1.14689 
        4.11555         16.3082         1.13555 
        4.13124         16.2007          1.1244 
        4.14693         16.0263         1.11338 
        4.16266         15.8812         1.10249 
        4.17839         15.7486         1.09175 
        4.19408         15.6183         1.08117 
        4.20977         15.4873         1.07073 
        4.22551         15.3317          1.0604 
        4.24123         15.1897         1.05022 
        4.25691         15.0321         1.04019 
        4.27259          14.935          1.0303 
        4.28831         14.8039         1.02051 
        4.30404         14.6477         1.01084 
        4.31974         14.5581         1.00131 
        4.33543         14.4293        0.991912 
        4.35116          14.295        0.982611 
        4.36688         14.1615        0.973431 
        4.38255         14.0214        0.964402 
        4.39825         13.9229        0.955467 
        4.41398         13.7808        0.946626 
         4.4297          13.714        0.937906 
        4.44541         13.5639        0.929297 
        4.46111         13.4023        0.920801 
        4.47683         13.3196        0.912405 
        4.49251         13.2262        0.904129 
        4.50819          13.106        0.895958 
         4.5239         13.0033        0.887875 
        4.53962         12.9089        0.879881 
        4.55535         12.7529        0.871981 
        4.57106          12.667        0.864188 
        4.58678         12.5549        0.856489 
         4.6025         12.4414         0.84888 
        4.61821         12.3427        0.841365 
        4.63391         12.2346         0.83395 
         4.6496         12.1066        0.826626 
        4.66532         12.0231        0.819378 
        4.68103         11.9443         0.81222 
        4.69673         11.8336        0.805153 
        4.71241         11.7591        0.798177 
        4.72811          11.636        0.791272 
        4.74384         11.5558        0.784439 
        4.75955         11.4513        0.777696 
        4.77525         11.3527        0.771035 
        4.79096         11.2435        0.764444 
        4.80669         11.1854        0.757926 
         4.8224         11.0775        0.751492 
        4.83809         10.9702        0.745137 
        4.85379         10.9018        0.738852 
         4.8695         10.8153        0.732634 
        4.88521         10.7177         0.72649 
        4.90093          10.633        0.720414 
        4.91663         10.5694        0.714413 
        4.93234         10.4743        0.708474 
        4.94807         10.4129        0.702597 
        4.96377         10.3363        0.696798 
        4.97943          10.233        0.691076 
        4.99514          10.141        0.685402 
        5.01086           10.07        0.679788 
        5.02654         10.0153        0.674251 
        5.04227         9.90109        0.668758 
          5.058         9.82217        0.663323 
        5.07371         9.76574         0.65796 
        5.08942         9.68357        0.652654 
        5.10513         9.62626        0.647405 
        5.12084         9.51837        0.642212 
        5.13656         9.45309        0.637076 
        5.15225         9.39586        0.632004 
        5.16796         9.33121        0.626979 
        5.18369         9.23858        0.622004 
         5.1994         9.18507        0.617091 
        5.21509         9.10446        0.612236 
        5.23079         9.04176        0.607426 
        5.24649         8.94575        0.602672 
        5.26217         8.89516        0.597971 
        5.27788         8.82091        0.593314 
        5.29359         8.77218        0.588705 
        5.30933         8.68805        0.584138 
        5.32504         8.62647        0.579626 
        5.34073         8.56753        0.575167 
        5.35646         8.52071        0.570746 
        5.37218         8.42285        0.566369 
        5.38789         8.36794        0.562045 
        5.40357          8.3053        0.557772 
        5.41929            8.27        0.553532 
        5.43502         8.20012        0.549336 
         5.4507         8.11795        0.545193 
        5.46639         8.05963        0.541092 
        5.48212         8.01416        0.537023 
        5.49786         7.95011        0.532991 
        5.51353         7.89452         0.52902 
        5.52921         7.84172        0.525085 
        5.54495         7.76364        0.521179 
        5.56066         7.72143        0.517316 
        5.57637         7.66358        0.513492 
        5.59207         7.59743         0.50971 
        5.60778         7.55571        0.505965 
        5.62346         7.50354        0.502262 
        5.63916         7.44576        0.498592 
        5.65487         7.40621        0.494957 
         5.6706         7.31992        0.491353 
        5.68633          7.2747        0.487784 
        5.70203         7.23393        0.484257 
        5.71773         7.17689        0.480766 
        5.73344         7.13669        0.477307 
        5.74916         7.07899        0.473878 
        5.76486         7.02825        0.470488 
        5.78054         6.99597        0.467135 
        5.79626         6.92399        0.463806 
          5.812         6.87407        0.460505 
         5.8277          6.8353        0.457246 
        5.84339         6.77549        0.454019 
        5.85911         6.74736        0.450816 
        5.87484         6.68515        0.447644 
        5.89053         6.64675        0.444509 
        5.90623         6.59969        0.441402 
        5.92195         6.55536         0.43832 
        5.93767         6.50416        0.435268 
        5.95336         6.46706         0.43225 
        5.96905         6.42633        0.429262 
        5.98476         6.37277        0.426297 
        6.00048         6.32951        0.423359 
        6.01617         6.28425        0.420453 
        6.03185         6.24303        0.417577 
        6.04756         6.20794        0.414721 
        6.06331         6.16239        0.411886 
        6.07903         6.12278        0.409083 
        6.09473         6.07992        0.406308 
        6.11044         6.03876        0.403556 
        6.12616         5.99989         0.40083 
        6.14186         5.95953        0.398132 
        6.15755         5.92306        0.395458 
        6.17326         5.88914        0.392807 
        6.18898         5.83857        0.390179 
        6.20467         5.79825        0.387579 
        6.22036         5.75578        0.385003 
         6.2361         5.72457        0.382443 
         6.2518         5.68558        0.379911 
        6.26748         5.65027        0.377407 
        6.28319         5.61193        0.374918 
        6.29893          5.5737         0.37245 
        6.31463         5.53926        0.370007 
        6.33033           5.509        0.367588 
        6.34604         5.46192        0.365187 
        6.36177         5.42909        0.362806 
        6.37747         5.39921        0.360451 
