# k  (h/Mpc)    Pcb(k)  (Mpc/h)^3    Pcb_linear(k) (Mpc/h)^3   ShotnoiseSubtracted = true
      0.0200456         3034.92         3070.73 
      0.0350414         2216.33         2176.52 
      0.0492313          1576.2         1574.42 
      0.0637834         1269.57         1290.61 
      0.0800726         978.674         996.613 
       0.096163         736.384         718.816 
       0.111083         598.192          579.49 
       0.126058         506.176         508.865 
       0.142273         419.064         419.416 
       0.158546         337.897         330.201 
        0.17375         293.126         282.391 
       0.188953         263.296         254.099 
       0.204907          220.71         219.674 
       0.220756         193.568         184.952 
        0.23588         170.749         162.793 
         0.2514         153.985         147.688 
       0.267535         141.605         131.443 
       0.283568         123.418         115.157 
       0.299022         113.609         103.261 
       0.314451         107.484         94.4345 
       0.330372         94.9241         85.7655 
       0.346141         86.5375         77.3365 
       0.361624          79.771         70.4339 
       0.377134         72.8713         64.8548 
       0.392932         70.2577         59.6886 
       0.408854         64.3281         54.7292 
       0.424564         61.2011         50.4087 
       0.440253         55.7274         46.7347 
       0.455999         50.8837          43.411 
       0.471626         48.2428         40.3293 
        0.48727         46.7258         37.5336 
       0.502856         43.3993         35.0611 
       0.518488         40.7794         32.8163 
       0.534347         38.3437         30.7114 
       0.550082         36.8314         28.7923 
       0.565732         35.3891         27.0598 
       0.581496         33.0499         25.4646 
       0.597222         31.3371         23.9943 
       0.612804         29.8612         22.6468 
       0.628434         29.2477         21.4003 
       0.644267         27.6149         20.2369 
       0.660051         26.2347         19.1632 
       0.675724         25.0284         18.1728 
       0.691403         24.4963         17.2512 
       0.707174         23.4628         16.3878 
       0.722871         22.6579         15.5866 
        0.73838         21.4672         14.8471 
       0.754018         20.3179         14.1498 
       0.769845         19.8467         13.4893 
        0.78569         19.1718         12.8701 
       0.801365         18.4578         12.2957 
       0.817031         17.7301         11.7567 
       0.832809         17.2222         11.2464 
       0.848511         16.6469         10.7687 
       0.864097         16.1027         10.3219 
       0.879701         15.8135         9.89999 
       0.895507         15.1907         9.49662 
       0.911279         14.5625         9.11651 
        0.92691         14.2722         8.76029 
       0.942635         13.9005         8.42109 
       0.958396         13.4256         8.09907 
       0.974128         13.0716         7.79443 
       0.989692         12.4732         7.50842 
        1.00528         12.3823         7.23628 
        1.02113          11.949         6.97333 
        1.03692          11.673         6.72438 
        1.05264          11.398         6.48867 
        1.06832         11.1436         6.26458 
        1.08405         10.8216         6.05045 
        1.09979         10.5494         5.84616 
        1.11537         10.2609         5.65329 
        1.13105         10.0824         5.46794 
        1.14679         9.84171         5.29015 
        1.16256         9.62092         5.11989 
        1.17828         9.40574         4.95766 
        1.19395         9.22486         4.80297 
         1.2097         8.93391         4.65408 
        1.22537         8.77026         4.51218 
          1.241         8.53186         4.37661 
        1.25666         8.47798         4.24625 
        1.27241         8.29119         4.12056 
        1.28819         7.94861         3.99973 
        1.30392         7.92853         3.88408 
        1.31957         7.71248          3.7735 
        1.33529         7.60516          3.6668 
        1.35108         7.44267         3.56378 
        1.36674          7.2564         3.46545 
         1.3824         7.15847         3.37089 
        1.39811         7.02905         3.27954 
        1.41389         6.86728         3.19121 
        1.42964         6.76533         3.10627 
        1.44531         6.63444         3.02482 
        1.46101         6.55706          2.9461 
        1.47667         6.41543         2.87041 
        1.49229         6.24143         2.79756 
        1.50793         6.17458         2.72716 
        1.52367         6.05937         2.65871 
        1.53953         5.95439         2.59214 
        1.55526         5.87681         2.52836 
        1.57092         5.77522         2.46699 
        1.58662         5.67134          2.4075 
        1.60235         5.60116         2.34985 
        1.61809         5.51349         2.29405 
        1.63369         5.40051         2.24054 
        1.64941          5.3093         2.18835 
        1.66519         5.24591         2.13763 
        1.68085         5.14791         2.08886 
        1.69652         5.09425          2.0416 
        1.71228         5.04056         1.99552 
        1.72806         4.93679         1.95082 
        1.74368         4.87776         1.90794 
        1.75933         4.80171         1.86624 
        1.77505         4.70689          1.8256 
        1.79081         4.66564         1.78608 
         1.8065         4.62126          1.7479 
        1.82218         4.54539         1.71086 
        1.83797         4.45535         1.67463 
        1.85367         4.39943         1.63965 
        1.86928         4.35847         1.60587 
        1.88497          4.2829         1.57286 
        1.90073         4.22769         1.54064 
        1.91647         4.15006         1.50935 
        1.93218          4.1144         1.47899 
        1.94787         4.06137         1.44951 
        1.96363         4.01343         1.42071 
        1.97935         3.97572         1.39274 
        1.99499         3.92015         1.36568 
        2.01064         3.86865          1.3393 
         2.0264         3.82381         1.31345 
        2.04216         3.77447         1.28828 
        2.05781         3.72886         1.26393 
        2.07353          3.6914         1.24012 
        2.08928         3.62351         1.21687 
        2.10499         3.58588         1.19427 
        2.12065          3.5876         1.17231 
        2.13633         3.52966         1.15088 
        2.15211         3.46678         1.12984 
        2.16785         3.42514         1.10939 
        2.18349         3.40676         1.08957 
        2.19916         3.36322         1.07018 
        2.21489         3.32834         1.05121 
        2.23063         3.28337         1.03267 
         2.2463         3.24121         1.01466 
        2.26194         3.20157         0.99713 
        2.27765         3.15271        0.979916 
        2.29341         3.12268        0.963062 
        2.30914         3.09649        0.946637 
        2.32486         3.06998        0.930602 
        2.34061         3.04169        0.914909 
        2.35635         3.00497        0.899589 
        2.37203         2.98998        0.884671 
        2.38768         2.96108        0.870121 
        2.40339          2.9075        0.855842 
        2.41914         2.88484        0.841849 
        2.43483         2.84901        0.828216 
         2.4505         2.82354        0.814906 
        2.46622         2.79796        0.801841 
        2.48195         2.78225         0.78906 
        2.49759         2.73782        0.776624 
        2.51328         2.71861        0.764421 
        2.52906         2.68757        0.752402 
        2.54479         2.66496        0.740685 
        2.56049         2.63767        0.729238 
        2.57618         2.61235        0.718041 
        2.59189         2.60897        0.707061 
        2.60758         2.57866        0.696327 
        2.62325         2.52682        0.685826 
        2.63898         2.51619        0.675505 
        2.65468         2.48937        0.665416 
        2.67044         2.48186        0.655489 
        2.68618         2.46039        0.645785 
        2.70184         2.43367        0.636316 
        2.71755          2.4026        0.627011 
        2.73329         2.38511        0.617877 
        2.74897         2.36239        0.608954 
        2.76462         2.34129        0.600225 
        2.78034         2.32756        0.591631 
        2.79607         2.30339        0.583194 
        2.81179         2.28349        0.574931 
        2.82749         2.25718        0.566835 
        2.84321         2.24394        0.558886 
        2.85893         2.21765         0.55109 
        2.87462         2.20783        0.543456 
        2.89033         2.19451        0.535958 
        2.90605         2.17141        0.528594 
        2.92176         2.14702        0.521371 
        2.93747         2.13428        0.514286 
        2.95318         2.11564         0.50733 
        2.96891         2.10335        0.500499 
        2.98456         2.08552        0.493823 
        3.00023         2.07093        0.487258 
        3.01596         2.04711        0.480791 
        3.03164         2.03221        0.474459 
        3.04738         2.02182        0.468222 
         3.0631         2.00417        0.462098 
        3.07883         1.98964        0.456083 
        3.09456          1.9665        0.450176 
        3.11026         1.95627        0.444381 
        3.12596         1.94019        0.438688 
        3.14163         1.93106        0.433107 
        3.15734         1.91063         0.42761 
        3.17308         1.90015        0.422194 
        3.18879         1.88894        0.416886 
        3.20447         1.86908        0.411677 
         3.2202         1.86118        0.406539 
         3.2359         1.84823        0.401498 
        3.25157          1.8311        0.396554 
        3.26729         1.81325        0.391677 
        3.28304         1.80315        0.386873 
        3.29877         1.78586        0.382154 
        3.31446         1.77666        0.377525 
        3.33014         1.76776        0.372975 
        3.34585         1.75233        0.368493 
        3.36158         1.73548        0.364077 
        3.37727         1.73259        0.359747 
        3.39294         1.71666        0.355491 
        3.40867          1.7091        0.351287 
        3.42439          1.6926        0.347154 
        3.44008         1.67926        0.343095 
        3.45578         1.66868        0.339097 
        3.47153           1.661        0.335153 
        3.48724         1.64783        0.331279 
        3.50292         1.63358        0.327475 
        3.51859         1.62621        0.323731 
        3.53431         1.61202        0.320034 
        3.55007         1.60734        0.316386 
        3.56577         1.59462        0.312808 
        3.58146         1.58361        0.309287 
        3.59719          1.5758        0.305811 
        3.61292         1.56418         0.30239 
        3.62859         1.55401        0.299033 
        3.64429         1.54522        0.295721 
        3.66003         1.53395        0.292448 
        3.67578         1.52468        0.289226 
        3.69146         1.51059        0.286064 
        3.70712         1.50389        0.282955 
        3.72284          1.4915         0.27988 
        3.73853         1.48376        0.276856 
        3.75422          1.4751        0.273875 
        3.76993         1.46357        0.270935 
        3.78564         1.45223        0.268039 
        3.80137         1.44614         0.26518 
        3.81707         1.43563        0.262369 
        3.83279         1.43421        0.259595 
        3.84853            1.42        0.256858 
        3.86424         1.40847        0.254164 
        3.87992          1.4024        0.251513 
        3.89561         1.39379          0.2489 
        3.91134         1.38548        0.246318 
        3.92704         1.37563        0.243775 
        3.94273         1.36894        0.241271 
        3.95845         1.35726        0.238796 
        3.97418         1.34969        0.236356 
        3.98988         1.34526        0.233953 
        4.00554         1.33594         0.23159 
        4.02125         1.32467        0.229252 
        4.03698         1.31977        0.226943 
        4.05268         1.30854         0.22467 
        4.06839         1.30024        0.222427 
         4.0841         1.29055        0.220214 
        4.09983         1.28069        0.218029 
        4.11555         1.27285        0.215874 
        4.13124         1.26649        0.213753 
        4.14693         1.25535         0.21166 
        4.16266         1.25047        0.209589 
        4.17839         1.24161        0.207547 
        4.19408         1.23282        0.205536 
        4.20977         1.22586        0.203551 
        4.22551         1.22086        0.201587 
        4.24123         1.21084        0.199652 
        4.25691         1.20235        0.197746 
        4.27259         1.19339        0.195865 
        4.28831         1.19066        0.194004 
        4.30404         1.17996        0.192165 
        4.31974         1.17331        0.190354 
        4.33543         1.16534        0.188568 
        4.35116         1.16018        0.186799 
        4.36688         1.15359        0.185054 
        4.38255            1.15        0.183338 
        4.39825         1.14046        0.181639 
        4.41398           1.135        0.179959 
         4.4297         1.12865        0.178301 
        4.44541         1.11812        0.176664 
        4.46111           1.115        0.175049 
        4.47683         1.11081        0.173453 
        4.49251         1.10196         0.17188 
        4.50819         1.09844        0.170326 
         4.5239         1.09173         0.16879 
        4.53962         1.08465         0.16727 
        4.55535         1.08188        0.165768 
        4.57106         1.07427        0.164287 
        4.58678         1.07105        0.162823 
         4.6025         1.06572        0.161377 
        4.61821         1.06289        0.159948 
        4.63391         1.05767        0.158538 
         4.6496         1.04789        0.157146 
        4.66532         1.04757        0.155768 
        4.68103         1.03973        0.154407 
        4.69673          1.0377        0.153064 
        4.71241         1.03084        0.151738 
        4.72811         1.02935        0.150425 
        4.74384         1.02354        0.149126 
        4.75955         1.02115        0.147844 
        4.77525         1.01388        0.146578 
        4.79096         1.00744        0.145325 
        4.80669         1.00473        0.144086 
         4.8224         1.00193        0.142862 
        4.83809        0.999025        0.141654 
        4.85379        0.995794         0.14046 
         4.8695         0.98771        0.139278 
        4.88521        0.986262        0.138109 
        4.90093        0.984081        0.136955 
        4.91663        0.979408        0.135814 
        4.93234        0.976115        0.134684 
        4.94807        0.969999        0.133567 
        4.96377        0.967328        0.132465 
        4.97943        0.966206        0.131377 
        4.99514        0.962981        0.130299 
        5.01086        0.957436        0.129231 
        5.02654        0.953594        0.128179 
        5.04227        0.950236        0.127134 
          5.058        0.949311        0.126101 
        5.07371        0.946744        0.125082 
        5.08942         0.94297        0.124073 
        5.10513        0.942016        0.123075 
        5.12084         0.93597        0.122088 
        5.13656        0.933745        0.121111 
        5.15225        0.929169        0.120147 
        5.16796        0.926615        0.119192 
        5.18369        0.926215        0.118246 
         5.1994        0.922814        0.117312 
        5.21509        0.917685        0.116389 
        5.23079        0.916554        0.115475 
        5.24649        0.914043        0.114571 
        5.26217        0.911226        0.113677 
        5.27788        0.907239        0.112792 
        5.29359         0.90582        0.111916 
        5.30933        0.904413        0.111048 
        5.32504        0.900775         0.11019 
        5.34073        0.900202        0.109342 
        5.35646        0.894992        0.108502 
        5.37218        0.894133         0.10767 
        5.38789        0.893628        0.106848 
        5.40357        0.890095        0.106035 
        5.41929        0.890296        0.105229 
        5.43502        0.884277        0.104432 
         5.4507        0.881881        0.103644 
        5.46639        0.882821        0.102864 
        5.48212        0.878395        0.102091 
        5.49786        0.876686        0.101324 
        5.51353        0.875845        0.100569 
        5.52921        0.870794       0.0998214 
        5.54495        0.871652       0.0990788 
        5.56066         0.87044       0.0983444 
        5.57637         0.86851       0.0976175 
        5.59207         0.86536       0.0968985 
        5.60778         0.86577       0.0961865 
        5.62346         0.86272       0.0954825 
        5.63916        0.861743       0.0947849 
        5.65487        0.858722       0.0940938 
         5.6706        0.855772       0.0934088 
        5.68633        0.855367       0.0927303 
        5.70203        0.854007       0.0920598 
        5.71773        0.852127       0.0913961 
        5.73344         0.85044       0.0907385 
        5.74916        0.848435       0.0900867 
        5.76486        0.846852       0.0894421 
        5.78054        0.846297       0.0888048 
        5.79626        0.844372       0.0881719 
          5.812        0.842255       0.0875445 
         5.8277        0.840695       0.0869249 
        5.84339        0.841719       0.0863113 
        5.85911        0.837797       0.0857024 
        5.87484        0.836734       0.0850995 
        5.89053        0.834157       0.0845035 
        5.90623        0.833623       0.0839129 
        5.92195        0.832555       0.0833268 
        5.93767        0.831303       0.0827467 
        5.95336        0.827758        0.082173 
        5.96905        0.827236       0.0816049 
        5.98476        0.825913       0.0810413 
        6.00048        0.826167       0.0804828 
        6.01617        0.821748       0.0799303 
        6.03185        0.822959       0.0793836 
        6.04756        0.822202       0.0788407 
        6.06331        0.819456       0.0783016 
        6.07903        0.819171       0.0777687 
        6.09473        0.818208       0.0772412 
        6.11044        0.817056       0.0767181 
        6.12616        0.814547       0.0761999 
        6.14186        0.813232       0.0756869 
        6.15755        0.812315       0.0751787 
        6.17326        0.810791       0.0746747 
        6.18898         0.81047        0.074175 
        6.20467        0.807147       0.0736808 
        6.22036        0.806554       0.0731911 
         6.2361        0.804994       0.0727045 
         6.2518        0.805847        0.072223 
        6.26748        0.802799        0.071747 
        6.28319        0.802816       0.0712739 
        6.29893        0.798782       0.0708046 
        6.31463        0.800176       0.0703403 
        6.33033        0.797917       0.0698803 
        6.34604        0.797494        0.069424 
        6.36177        0.796081       0.0689714 
        6.37747        0.793677       0.0685236 
