# k  (h/Mpc)    Pcb(k)  (Mpc/h)^3    Pcb_linear(k) (Mpc/h)^3   ShotnoiseSubtracted = true
      0.0200456         25391.8         25983.1 
      0.0350414         17524.3         18416.7 
      0.0492313         13013.7           13322 
      0.0637834         11174.1         10920.6 
      0.0800726         8618.62         8432.89 
       0.096163         5927.91          6082.3 
       0.111083         4819.54         4903.39 
       0.126058         4399.77         4305.79 
       0.142273         3761.16         3548.91 
       0.158546          3314.2         2794.01 
        0.17375         2664.77         2389.46 
       0.188953         2601.61         2150.07 
       0.204907         2424.83         1858.79 
       0.220756         2102.22         1564.98 
        0.23588         1889.92         1377.48 
         0.2514         1645.46         1249.67 
       0.267535         1641.52         1112.21 
       0.283568         1485.03         974.407 
       0.299022         1408.32         873.745 
       0.314451         1338.14         799.062 
       0.330372         1223.26         725.709 
       0.346141         1182.48         654.387 
       0.361624         1135.35          595.98 
       0.377134         1058.58         548.772 
       0.392932         1009.17         505.058 
       0.408854          995.12         463.094 
       0.424564         914.354         426.535 
       0.440253         896.688         395.448 
       0.455999         870.166         367.325 
       0.471626         839.085         341.248 
        0.48727          802.51         317.592 
       0.502856         776.348         296.671 
       0.518488         770.402         277.677 
       0.534347         722.309         259.866 
       0.550082         707.016         243.628 
       0.565732         700.042         228.968 
       0.581496         662.216          215.47 
       0.597222         646.908         203.029 
       0.612804          636.14         191.627 
       0.628434         617.887          181.08 
       0.644267         601.659         171.235 
       0.660051         585.543          162.15 
       0.675724          577.12          153.77 
       0.691403         558.234         145.972 
       0.707174         538.973         138.667 
       0.722871         530.656         131.887 
        0.73838         520.486          125.63 
       0.754018         509.975         119.729 
       0.769845         500.357          114.14 
        0.78569         490.648         108.901 
       0.801365         477.157         104.041 
       0.817031         466.169         99.4796 
       0.832809         460.387         95.1622 
       0.848511         450.346         91.1198 
       0.864097         435.208         87.3393 
       0.879701          428.68         83.7693 
       0.895507         426.312         80.3562 
       0.911279         414.884         77.1398 
        0.92691         408.698         74.1256 
       0.942635         396.647         71.2555 
       0.958396         387.294         68.5307 
       0.974128         381.717          65.953 
       0.989692         379.141         63.5328 
        1.00528         367.202         61.2302 
        1.02113         364.437         59.0052 
        1.03692         355.259         56.8986 
        1.05264         351.127         54.9042 
        1.06832         341.223         53.0081 
        1.08405         336.299         51.1962 
        1.09979         331.472         49.4676 
        1.11537         325.065         47.8356 
        1.13105         319.563         46.2672 
        1.14679         309.591         44.7629 
        1.16256         304.499         43.3222 
        1.17828         303.332         41.9495 
        1.19395         296.361         40.6406 
         1.2097         289.551         39.3807 
        1.22537         284.066         38.1801 
          1.241         280.048         37.0329 
        1.25666         276.687         35.9298 
        1.27241         271.407         34.8664 
        1.28819          266.14         33.8439 
        1.30392         260.891         32.8654 
        1.31957         258.589         31.9296 
        1.33529         254.899         31.0268 
        1.35108         248.833         30.1551 
        1.36674         244.474         29.3231 
         1.3824         242.212          28.523 
        1.39811         237.768           27.75 
        1.41389         234.899         27.0026 
        1.42964          231.77         26.2838 
        1.44531         228.584         25.5946 
        1.46101         223.627         24.9286 
        1.47667         220.655         24.2881 
        1.49229         218.117         23.6717 
        1.50793         212.331          23.076 
        1.52367         211.357         22.4968 
        1.53953         207.123         21.9335 
        1.55526         203.971         21.3939 
        1.57092         201.244         20.8746 
        1.58662         198.799         20.3712 
        1.60235         195.639         19.8834 
        1.61809         192.786         19.4112 
        1.63369         190.576         18.9584 
        1.64941         186.345         18.5168 
        1.66519          184.89         18.0876 
        1.68085         182.118          17.675 
        1.69652         179.652         17.2751 
        1.71228         175.017         16.8852 
        1.72806         172.797          16.507 
        1.74368         170.293         16.1441 
        1.75933         168.177         15.7913 
        1.77505         166.247         15.4474 
        1.79081         164.165          15.113 
         1.8065         160.527         14.7899 
        1.82218         158.947         14.4765 
        1.83797         157.424           14.17 
        1.85367         155.034          13.874 
        1.86928         151.939         13.5882 
        1.88497         150.649         13.3088 
        1.90073         148.355         13.0362 
        1.91647         147.284         12.7714 
        1.93218         144.662         12.5146 
        1.94787         141.425         12.2651 
        1.96363         139.593         12.0214 
        1.97935         138.165         11.7848 
        1.99499         136.519         11.5558 
        2.01064         134.389         11.3326 
         2.0264         133.237         11.1138 
        2.04216          131.11         10.9009 
        2.05781         129.368         10.6948 
        2.07353         128.238         10.4934 
        2.08928         125.691         10.2966 
        2.10499         124.549         10.1054 
        2.12065         122.549         9.91956 
        2.13633         120.311         9.73823 
        2.15211         119.044         9.56024 
        2.16785         117.728         9.38716 
        2.18349         116.421         9.21943 
        2.19916         114.527         9.05542 
        2.21489          113.39         8.89483 
        2.23063         111.454           8.738 
         2.2463         110.249         8.58564 
        2.26194         108.336         8.43726 
        2.27765         107.343         8.29161 
        2.29341          105.85           8.149 
        2.30914         104.809         8.01002 
        2.32486         103.126         7.87433 
        2.34061         101.912         7.74155 
        2.35635         100.671         7.61192 
        2.37203         99.5398         7.48569 
        2.38768         97.9508         7.36257 
        2.40339         96.9476         7.24175 
        2.41914         95.5354         7.12335 
        2.43483         94.3217           7.008 
         2.4505         93.2636         6.89537 
        2.46622         92.2342         6.78482 
        2.48195         90.5955         6.67667 
        2.49759         89.7798         6.57144 
        2.51328         89.0131         6.46819 
        2.52906         87.7195         6.36649 
        2.54479          86.678         6.26734 
        2.56049         85.2281         6.17048 
        2.57618          84.538         6.07574 
        2.59189         83.8217         5.98283 
        2.60758         82.6519           5.892 
        2.62325         81.2228         5.80316 
        2.63898         80.2938         5.71582 
        2.65468         79.2553         5.63045 
        2.67044         78.6653         5.54645 
        2.68618         77.8286         5.46434 
        2.70184         76.9362         5.38422 
        2.71755         75.7942         5.30549 
        2.73329         75.1503          5.2282 
        2.74897         74.1395          5.1527 
        2.76462         73.3678         5.07884 
        2.78034         72.2879         5.00611 
        2.79607         71.2974         4.93473 
        2.81179          70.637          4.8648 
        2.82749         70.0152         4.79631 
        2.84321         68.9561         4.72904 
        2.85893         68.2796         4.66308 
        2.87462         67.6659         4.59848 
        2.89033         66.6373         4.53503 
        2.90605          65.758         4.47272 
        2.92176         64.9906         4.41161 
        2.93747         64.4574         4.35165 
        2.95318         63.7937          4.2928 
        2.96891          63.091         4.23499 
        2.98456         62.4298          4.1785 
        3.00023         61.5755         4.12296 
        3.01596         60.6719         4.06824 
        3.03164         60.2608         4.01466 
        3.04738         59.3681         3.96189 
         3.0631         58.7816         3.91007 
        3.07883         58.2983         3.85917 
        3.09456         57.6811         3.80918 
        3.11026         56.9598         3.76015 
        3.12596         56.1929         3.71198 
        3.14163         55.8926         3.66476 
        3.15734         54.9987         3.61824 
        3.17308         54.4103         3.57242 
        3.18879           53.95          3.5275 
        3.20447         53.3368         3.48342 
         3.2202         52.8093         3.43995 
         3.2359         52.1979          3.3973 
        3.25157         51.7451         3.35546 
        3.26729         51.2352          3.3142 
        3.28304         50.7366         3.27354 
        3.29877         50.0254         3.23362 
        3.31446         49.4451         3.19444 
        3.33014         49.0286         3.15595 
        3.34585         48.3894         3.11802 
        3.36158           48.06         3.08065 
        3.37727         47.5374         3.04401 
        3.39294         46.8096           3.008 
        3.40867         46.4803         2.97244 
        3.42439         46.1522         2.93746 
        3.44008         45.4384         2.90311 
        3.45578         45.1047         2.86928 
        3.47153         44.6249         2.83592 
        3.48724         44.2541         2.80313 
        3.50292          43.851         2.77094 
        3.51859         43.2574         2.73927 
        3.53431         43.0092         2.70799 
        3.55007         42.5257         2.67712 
        3.56577          42.186         2.64684 
        3.58146         41.6908         2.61705 
        3.59719         41.2641         2.58764 
        3.61292         40.8415         2.55869 
        3.62859          40.316         2.53029 
        3.64429         40.0167         2.50226 
        3.66003         39.6003         2.47457 
        3.67578         39.2206          2.4473 
        3.69146         38.8004         2.42055 
        3.70712         38.4216         2.39424 
        3.72284         38.1632         2.36822 
        3.73853         37.6302         2.34263 
        3.75422         37.2785          2.3174 
        3.76993         36.8324         2.29253 
        3.78564         36.6435         2.26802 
        3.80137         36.2119         2.24383 
        3.81707          35.867         2.22005 
        3.83279         35.5605         2.19658 
        3.84853         35.1904         2.17341 
        3.86424         34.8957         2.15062 
        3.87992          34.433         2.12819 
        3.89561         34.1913         2.10608 
        3.91134         33.8881         2.08423 
        3.92704          33.446         2.06272 
        3.94273         33.1677         2.04152 
        3.95845         32.8759         2.02059 
        3.97418         32.6717         1.99994 
        3.98988         32.3025         1.97961 
        4.00554         32.0947         1.95961 
        4.02125         31.6906         1.93983 
        4.03698         31.4851         1.92029 
        4.05268         31.0971         1.90106 
        4.06839         30.8435         1.88207 
         4.0841         30.5738         1.86336 
        4.09983         30.3692         1.84486 
        4.11555         30.0018         1.82663 
        4.13124         29.7958         1.80869 
        4.14693         29.5662         1.79097 
        4.16266         29.2077         1.77345 
        4.17839         28.9464         1.75617 
        4.19408         28.6828         1.73915 
        4.20977         28.4322         1.72236 
        4.22551         28.2058         1.70574 
        4.24123         27.9054         1.68936 
        4.25691         27.6896         1.67324 
        4.27259         27.4171         1.65732 
        4.28831         27.2145         1.64157 
        4.30404          26.995         1.62602 
        4.31974          26.743         1.61069 
        4.33543         26.4788         1.59557 
        4.35116          26.244         1.58061 
        4.36688         26.0102         1.56585 
        4.38255         25.7587         1.55132 
        4.39825          25.576         1.53695 
        4.41398         25.3469         1.52273 
         4.4297          25.098          1.5087 
        4.44541         24.9538         1.49485 
        4.46111         24.6427         1.48119 
        4.47683         24.4647         1.46768 
        4.49251         24.2514         1.45437 
        4.50819         24.0387         1.44122 
         4.5239         23.8911         1.42822 
        4.53962         23.6689         1.41536 
        4.55535         23.4529         1.40266 
        4.57106         23.2671         1.39012 
        4.58678         22.9924         1.37773 
         4.6025         22.8242          1.3655 
        4.61821         22.6809         1.35341 
        4.63391         22.4474         1.34148 
         4.6496         22.3302          1.3297 
        4.66532         22.1083         1.31804 
        4.68103         21.9291         1.30652 
        4.69673         21.7274         1.29516 
        4.71241          21.577         1.28394 
        4.72811         21.3785         1.27283 
        4.74384          21.264         1.26184 
        4.75955         21.0098         1.25099 
        4.77525         20.8789         1.24028 
        4.79096         20.6711         1.22967 
        4.80669         20.5357         1.21919 
         4.8224         20.3302         1.20884 
        4.83809         20.2254         1.19862 
        4.85379         20.0577         1.18851 
         4.8695         19.8599          1.1785 
        4.88521         19.7258         1.16862 
        4.90093         19.4905         1.15885 
        4.91663          19.359         1.14919 
        4.93234         19.2067         1.13964 
        4.94807         19.0809         1.13019 
        4.96377         18.9149         1.12086 
        4.97943         18.7585         1.11165 
        4.99514         18.5904         1.10253 
        5.01086         18.4789          1.0935 
        5.02654         18.3076         1.08459 
        5.04227         18.1847         1.07575 
          5.058         18.0098         1.06701 
        5.07371          17.855         1.05838 
        5.08942         17.6932         1.04985 
        5.10513         17.5735         1.04141 
        5.12084         17.5174         1.03305 
        5.13656          17.332         1.02479 
        5.15225         17.1723         1.01663 
        5.16796          17.067         1.00855 
        5.18369         16.8967         1.00055 
         5.1994         16.8029        0.992644 
        5.21509         16.6462        0.984833 
        5.23079         16.5282        0.977097 
        5.24649         16.4515        0.969449 
        5.26217         16.2966        0.961888 
        5.27788         16.1887        0.954396 
        5.29359         16.0654        0.946982 
        5.30933         15.8847        0.939635 
        5.32504         15.7733        0.932378 
        5.34073         15.6947        0.925205 
        5.35646         15.5406        0.918092 
        5.37218         15.4258        0.911053 
        5.38789         15.3068        0.904098 
        5.40357         15.2115        0.897223 
        5.41929         15.0531        0.890403 
        5.43502         14.9858        0.883654 
         5.4507         14.8234         0.87699 
        5.46639         14.7411        0.870393 
        5.48212         14.6446        0.863848 
        5.49786          14.522        0.857362 
        5.51353         14.4069        0.850974 
        5.52921         14.3139        0.844644 
        5.54495         14.1928         0.83836 
        5.56066         14.1144        0.832146 
        5.57637         13.9928        0.825995 
        5.59207          13.872        0.819912 
        5.60778         13.7322        0.813887 
        5.62346         13.6853         0.80793 
        5.63916         13.5843        0.802027 
        5.65487         13.4759         0.79618 
         5.6706         13.3829        0.790383 
        5.68633         13.3051        0.784642 
        5.70203         13.1681        0.778969 
        5.71773         13.0836        0.773352 
        5.73344         13.0181        0.767788 
        5.74916         12.8983        0.762273 
        5.76486         12.8118        0.756819 
        5.78054          12.747        0.751426 
        5.79626         12.6229        0.746071 
          5.812         12.5396        0.740762 
         5.8277         12.4502         0.73552 
        5.84339         12.3651        0.730328 
        5.85911         12.2876        0.725176 
        5.87484         12.1692        0.720074 
        5.89053          12.101        0.715031 
        5.90623         11.9898        0.710033 
        5.92195          11.914        0.705074 
        5.93767         11.8382        0.700165 
        5.95336         11.7832        0.695311 
        5.96905         11.6561        0.690504 
        5.98476         11.6065        0.685735 
        6.00048         11.4939        0.681009 
        6.01617         11.4302        0.676334 
        6.03185         11.3504        0.671708 
        6.04756         11.2434        0.667114 
        6.06331         11.1785        0.662553 
        6.07903         11.1305        0.658044 
        6.09473         11.0498        0.653581 
        6.11044         10.9347        0.649154 
        6.12616         10.8675        0.644769 
        6.14186         10.8064        0.640429 
        6.15755         10.7236        0.636128 
        6.17326         10.6543        0.631864 
        6.18898         10.5923        0.627636 
        6.20467         10.5274        0.623454 
        6.22036         10.4478         0.61931 
         6.2361         10.3641        0.615193 
         6.2518         10.2979        0.611119 
        6.26748          10.248        0.607091 
        6.28319         10.1434        0.603088 
        6.29893         10.0842        0.599117 
        6.31463         9.99918        0.595188 
        6.33033         9.96081        0.591296 
        6.34604         9.89361        0.587435 
        6.36177          9.8227        0.583605 
        6.37747         9.73847        0.579816 
