# k  (h/Mpc)    Pcb(k)  (Mpc/h)^3    Pcb_linear(k) (Mpc/h)^3   ShotnoiseSubtracted = true
      0.0200456         24556.7         25120.7 
      0.0350414           16961         17805.5 
      0.0492313         12592.8         12879.8 
      0.0637834         10803.7         10558.1 
      0.0800726         8333.79         8152.98 
       0.096163         5733.41         5880.41 
       0.111083         4656.95         4740.63 
       0.126058         4253.05         4162.87 
       0.142273         3634.25         3431.11 
       0.158546         3193.75         2701.27 
        0.17375         2566.52         2310.15 
       0.188953         2504.67         2078.71 
       0.204907         2334.26         1797.09 
       0.220756         2021.94         1513.04 
        0.23588         1815.43         1331.76 
         0.2514         1579.29         1208.19 
       0.267535         1574.55         1075.29 
       0.283568         1424.22         942.065 
       0.299022         1349.53         844.744 
       0.314451         1282.52          772.54 
       0.330372         1173.07         701.621 
       0.346141         1129.65         632.667 
       0.361624         1084.55         576.198 
       0.377134         1010.24         530.558 
       0.392932          963.98         488.294 
       0.408854         949.335         447.723 
       0.424564         873.021         412.378 
       0.440253         856.526         382.323 
       0.455999         828.689         355.132 
       0.471626         799.041         329.921 
        0.48727         763.869         307.051 
       0.502856         739.825         286.824 
       0.518488         732.978          268.46 
       0.534347         686.973         251.241 
       0.550082         671.249         235.541 
       0.565732         665.546         221.368 
       0.581496         628.616         208.318 
       0.597222         614.635          196.29 
       0.612804         603.667         185.267 
       0.628434         586.165          175.07 
       0.644267         570.581         165.552 
       0.660051         554.333         156.768 
       0.675724         546.907         148.666 
       0.691403         528.443         141.127 
       0.707174         510.296         134.064 
       0.722871         502.931         127.509 
        0.73838         493.137          121.46 
       0.754018         482.741         115.755 
       0.769845         473.428         110.352 
        0.78569         464.049         105.287 
       0.801365         451.579         100.588 
       0.817031         440.234         96.1777 
       0.832809         435.232         92.0036 
       0.848511         425.549         88.0954 
       0.864097         411.493         84.4404 
       0.879701         405.377         80.9888 
       0.895507         402.795          77.689 
       0.911279         391.442         74.5794 
        0.92691         385.818         71.6653 
       0.942635         374.596         68.8904 
       0.958396          365.58         66.2561 
       0.974128         360.064         63.7639 
       0.989692         357.487         61.4241 
        1.00528          346.57         59.1978 
        1.02113         344.079         57.0467 
        1.03692         334.804         55.0101 
        1.05264         331.604         53.0818 
        1.06832         321.902         51.2487 
        1.08405         317.444         49.4969 
        1.09979         312.519         47.8257 
        1.11537          306.43         46.2478 
        1.13105         301.159         44.7315 
        1.14679         291.983         43.2771 
        1.16256         287.302         41.8843 
        1.17828         286.218         40.5571 
        1.19395         279.179         39.2917 
         1.2097         273.541         38.0736 
        1.22537         268.135         36.9128 
          1.241         264.932         35.8037 
        1.25666         261.162         34.7373 
        1.27241         256.376         33.7091 
        1.28819         251.709         32.7206 
        1.30392         246.413         31.7745 
        1.31957         244.993         30.8698 
        1.33529         240.749          29.997 
        1.35108         235.104         29.1542 
        1.36674         231.093         28.3498 
         1.3824         229.384         27.5763 
        1.39811         225.164         26.8289 
        1.41389           222.4         26.1063 
        1.42964         219.586         25.4114 
        1.44531          216.31         24.7451 
        1.46101          211.89         24.1012 
        1.47667          209.23         23.4819 
        1.49229          206.85          22.886 
        1.50793         201.264           22.31 
        1.52367         200.354         21.7501 
        1.53953         196.636         21.2055 
        1.55526         193.097         20.6838 
        1.57092         190.858         20.1817 
        1.58662         188.559          19.695 
        1.60235         185.501         19.2234 
        1.61809         183.071         18.7669 
        1.63369         180.681         18.3292 
        1.64941         176.681         17.9022 
        1.66519         175.391         17.4873 
        1.68085         172.612         17.0884 
        1.69652         170.285         16.7017 
        1.71228         166.031         16.3248 
        1.72806         164.062         15.9591 
        1.74368         161.767         15.6082 
        1.75933         159.403         15.2672 
        1.77505         157.798         14.9346 
        1.79081         155.935         14.6114 
         1.8065          152.56          14.299 
        1.82218         151.306          13.996 
        1.83797         149.512         13.6997 
        1.85367          147.22         13.4135 
        1.86928         144.431         13.1371 
        1.88497         143.124         12.8671 
        1.90073         141.086         12.6035 
        1.91647         139.833         12.3475 
        1.93218         137.619         12.0992 
        1.94787         134.407          11.858 
        1.96363         132.749         11.6224 
        1.97935         131.679         11.3936 
        1.99499         129.726         11.1722 
        2.01064         127.891         10.9564 
         2.0264         126.708         10.7449 
        2.04216         124.674          10.539 
        2.05781         123.192         10.3398 
        2.07353         122.022         10.1451 
        2.08928          119.64         9.95483 
        2.10499         118.525         9.76996 
        2.12065         116.468         9.59031 
        2.13633         114.629           9.415 
        2.15211         113.225         9.24291 
        2.16785         111.921         9.07558 
        2.18349         110.798         8.91342 
        2.19916          109.06         8.75485 
        2.21489         107.956         8.59959 
        2.23063         105.991         8.44797 
         2.2463         104.991         8.30066 
        2.26194          103.15         8.15721 
        2.27765         102.192          8.0164 
        2.29341          100.73         7.87852 
        2.30914         99.7988         7.74415 
        2.32486         98.1761         7.61297 
        2.34061         97.0855         7.48459 
        2.35635          95.863         7.35927 
        2.37203          94.784         7.23723 
        2.38768         93.2659         7.11819 
        2.40339         92.3425         7.00139 
        2.41914         90.9359         6.88691 
        2.43483         89.8686         6.77539 
         2.4505         88.8807          6.6665 
        2.46622         87.9006         6.55962 
        2.48195         86.4373         6.45506 
        2.49759         85.4586         6.35332 
        2.51328         84.8844          6.2535 
        2.52906         83.5695         6.15517 
        2.54479         82.6272         6.05932 
        2.56049         81.3621         5.96567 
        2.57618         80.5841         5.87408 
        2.59189         79.7654         5.78425 
        2.60758          78.646         5.69644 
        2.62325         77.4114         5.61054 
        2.63898         76.5196          5.5261 
        2.65468         75.5313         5.44357 
        2.67044         75.0168         5.36235 
        2.68618         74.1822         5.28297 
        2.70184          73.442         5.20551 
        2.71755         72.1959         5.12939 
        2.73329         71.7041         5.05467 
        2.74897          70.803         4.98167 
        2.76462         69.8059         4.91026 
        2.78034         69.0536         4.83995 
        2.79607         67.9822         4.77093 
        2.81179         67.3004         4.70333 
        2.82749         66.7157         4.63711 
        2.84321         65.8341         4.57208 
        2.85893         65.1192          4.5083 
        2.87462         64.4655         4.44584 
        2.89033         63.5141         4.38451 
        2.90605         62.7219         4.32426 
        2.92176         61.9589         4.26518 
        2.93747         61.5469         4.20721 
        2.95318          60.777         4.15031 
        2.96891         60.2019         4.09443 
        2.98456         59.6365         4.03981 
        3.00023         58.7325         3.98611 
        3.01596         57.9435          3.9332 
        3.03164         57.4677         3.88141 
        3.04738         56.6878         3.83038 
         3.0631         56.0545         3.78029 
        3.07883         55.7125         3.73108 
        3.09456         55.0742         3.68275 
        3.11026         54.2738         3.63534 
        3.12596         53.6618         3.58877 
        3.14163         53.3278         3.54312 
        3.15734         52.4519         3.49815 
        3.17308         51.9055         3.45384 
        3.18879         51.5102         3.41042 
        3.20447         50.9121          3.3678 
         3.2202         50.4233         3.32577 
         3.2359         49.7745         3.28453 
        3.25157         49.2932         3.24409 
        3.26729         48.8757         3.20419 
        3.28304         48.4103         3.16489 
        3.29877         47.7932         3.12629 
        3.31446         47.1282         3.08841 
        3.33014         46.8604         3.05119 
        3.34585         46.1356         3.01453 
        3.36158         45.8412          2.9784 
        3.37727         45.3657         2.94298 
        3.39294         44.7197         2.90816 
        3.40867         44.3494         2.87378 
        3.42439         44.0099         2.83996 
        3.44008          43.394         2.80675 
        3.45578         43.0358         2.77405 
        3.47153         42.5655         2.74179 
        3.48724         42.1689         2.71009 
        3.50292         41.8139         2.67897 
        3.51859         41.2335         2.64835 
        3.53431         40.9815          2.6181 
        3.55007         40.5029         2.58826 
        3.56577         40.1267         2.55899 
        3.58146         39.7465         2.53018 
        3.59719         39.2645         2.50175 
        3.61292         38.9126         2.47376 
        3.62859         38.4597          2.4463 
        3.64429         38.1361          2.4192 
        3.66003         37.7356         2.39243 
        3.67578         37.3542         2.36607 
        3.69146         36.9789          2.3402 
        3.70712         36.5842         2.31477 
        3.72284         36.3061         2.28961 
        3.73853          35.862         2.26487 
        3.75422         35.5143         2.24048 
        3.76993          35.119         2.21643 
        3.78564         34.8966         2.19274 
        3.80137         34.4721         2.16936 
        3.81707         34.1446         2.14636 
        3.83279         33.7927         2.12367 
        3.84853         33.5218         2.10127 
        3.86424         33.1743         2.07924 
        3.87992         32.8372         2.05755 
        3.89561         32.5723         2.03617 
        3.91134         32.2361         2.01505 
        3.92704         31.8648         1.99425 
        3.94273         31.6121         1.97376 
        3.95845         31.3975         1.95352 
        3.97418         31.1411         1.93356 
        3.98988         30.8222          1.9139 
        4.00554          30.542         1.89456 
        4.02125         30.2363         1.87544 
        4.03698         30.0273         1.85655 
        4.05268         29.6806         1.83796 
        4.06839         29.4225          1.8196 
         4.0841         29.1586         1.80151 
        4.09983         28.9433         1.78363 
        4.11555         28.5866           1.766 
        4.13124         28.4314         1.74865 
        4.14693         28.1579         1.73152 
        4.16266         27.8576         1.71458 
        4.17839         27.5806         1.69788 
        4.19408         27.3694         1.68143 
        4.20977         27.1272         1.66519 
        4.22551         26.8512         1.64913 
        4.24123           26.59         1.63329 
        4.25691         26.3786          1.6177 
        4.27259         26.1345         1.60231 
        4.28831         25.9365         1.58709 
        4.30404         25.7078         1.57205 
        4.31974         25.4692         1.55723 
        4.33543         25.1711         1.54261 
        4.35116         25.0037         1.52815 
        4.36688         24.8001         1.51387 
        4.38255         24.5471         1.49983 
        4.39825         24.3945         1.48593 
        4.41398         24.1836         1.47219 
         4.4297         23.9012         1.45862 
        4.44541         23.7714         1.44524 
        4.46111         23.4847         1.43202 
        4.47683         23.3153         1.41897 
        4.49251         23.0961          1.4061 
        4.50819         22.9022         1.39339 
         4.5239         22.7822         1.38082 
        4.53962          22.536         1.36838 
        4.55535         22.3649          1.3561 
        4.57106         22.1689         1.34398 
        4.58678          21.944           1.332 
         4.6025          21.722         1.32017 
        4.61821          21.607         1.30848 
        4.63391         21.4029         1.29695 
         4.6496         21.2464         1.28556 
        4.66532         21.0679         1.27429 
        4.68103         20.8726         1.26316 
        4.69673         20.7011         1.25217 
        4.71241         20.5533         1.24132 
        4.72811         20.3381         1.23058 
        4.74384         20.2621         1.21995 
        4.75955         19.9934         1.20947 
        4.77525         19.8535         1.19911 
        4.79096         19.7103         1.18886 
        4.80669         19.5294         1.17872 
         4.8224         19.3466         1.16871 
        4.83809         19.2734         1.15883 
        4.85379         19.0962         1.14906 
         4.8695         18.8954         1.13939 
        4.88521         18.7521         1.12983 
        4.90093          18.537         1.12038 
        4.91663         18.4278         1.11105 
        4.93234         18.2847         1.10181 
        4.94807          18.169         1.09267 
        4.96377         18.0037         1.08365 
        4.97943         17.8292         1.07476 
        4.99514         17.7224         1.06593 
        5.01086         17.6044          1.0572 
        5.02654         17.4301         1.04859 
        5.04227         17.3179         1.04005 
          5.058         17.1554          1.0316 
        5.07371         17.0097         1.02325 
        5.08942          16.872           1.015 
        5.10513         16.7566         1.00684 
        5.12084         16.6582        0.998763 
        5.13656         16.5038        0.990776 
        5.15225         16.3336        0.982888 
        5.16796         16.2606        0.975074 
        5.18369         16.0985        0.967336 
         5.1994         16.0105        0.959696 
        5.21509         15.8687        0.952145 
        5.23079         15.7567        0.944665 
        5.24649         15.6581        0.937271 
        5.26217         15.5198        0.929961 
        5.27788         15.4307        0.922717 
        5.29359         15.2927        0.915549 
        5.30933         15.1168        0.908447 
        5.32504         15.0456         0.90143 
        5.34073         14.9214        0.894496 
        5.35646         14.7622        0.887619 
        5.37218         14.6929        0.880813 
        5.38789         14.5593        0.874089 
        5.40357         14.4657        0.867442 
        5.41929         14.3303        0.860849 
        5.43502         14.2652        0.854324 
         5.4507         14.1325        0.847881 
        5.46639         14.0299        0.841503 
        5.48212         13.9564        0.835175 
        5.49786         13.8319        0.828904 
        5.51353          13.722        0.822728 
        5.52921         13.6383        0.816609 
        5.54495         13.5389        0.810533 
        5.56066          13.431        0.804525 
        5.57637          13.321        0.798579 
        5.59207         13.2144        0.792697 
        5.60778         13.0938        0.786872 
        5.62346         13.0376        0.781113 
        5.63916          12.933        0.775406 
        5.65487         12.8281        0.769753 
         5.6706         12.7526        0.764149 
        5.68633         12.6772        0.758598 
        5.70203         12.5608        0.753113 
        5.71773          12.468        0.747683 
        5.73344         12.3853        0.742304 
        5.74916         12.2849        0.736972 
        5.76486         12.2017        0.731699 
        5.78054         12.1404        0.726485 
        5.79626          12.015        0.721307 
          5.812         11.9589        0.716175 
         5.8277         11.8571        0.711106 
        5.84339         11.7695        0.706087 
        5.85911         11.6929        0.701106 
        5.87484         11.6011        0.696173 
        5.89053         11.5065        0.691297 
        5.90623         11.4492        0.686466 
        5.92195         11.3549        0.681671 
        5.93767          11.278        0.676925 
        5.95336         11.2217        0.672232 
        5.96905         11.1018        0.667585 
        5.98476          11.056        0.662974 
        6.00048         10.9519        0.658405 
        6.01617         10.9007        0.653885 
        6.03185         10.8153        0.649413 
        6.04756         10.7228        0.644972 
        6.06331         10.6579        0.640562 
        6.07903         10.6096        0.636202 
        6.09473         10.5214        0.631887 
        6.11044          10.431        0.627608 
        6.12616         10.3628        0.623368 
        6.14186         10.2927        0.619172 
        6.15755         10.2161        0.615014 
        6.17326         10.1485        0.610891 
        6.18898         10.0942        0.606803 
        6.20467         10.0246         0.60276 
        6.22036         9.96241        0.598754 
         6.2361         9.88485        0.594773 
         6.2518         9.81268        0.590835 
        6.26748         9.75139         0.58694 
        6.28319         9.66435         0.58307 
        6.29893         9.60293        0.579231 
        6.31463          9.5327        0.575433 
        6.33033         9.49837        0.571669 
        6.34604         9.41375        0.567937 
        6.36177         9.35699        0.564234 
        6.37747          9.2839        0.560571 
