# k  (h/Mpc)    Pcb(k)  (Mpc/h)^3    Pcb_linear(k) (Mpc/h)^3   ShotnoiseSubtracted = true
      0.0200456         652.617         660.212 
      0.0350414         473.309         467.956 
      0.0492313         339.693         338.502 
      0.0637834         275.372         277.483 
      0.0800726         212.478         214.273 
       0.096163         156.727         154.547 
       0.111083         126.648         124.591 
       0.126058         108.852         109.407 
       0.142273         89.7091         90.1751 
       0.158546         71.4728         70.9937 
        0.17375         61.5396         60.7145 
       0.188953          54.944         54.6318 
       0.204907          46.621         47.2304 
       0.220756         40.0943          39.765 
        0.23588         35.2623         35.0007 
         0.2514         31.9572         31.7532 
       0.267535         28.6492         28.2604 
       0.283568          25.087          24.759 
       0.299022         22.5911         22.2012 
       0.314451         20.9742         20.3036 
       0.330372         18.8389         18.4397 
       0.346141         17.0236         16.6275 
       0.361624         15.4771         15.1434 
       0.377134          14.191         13.9439 
       0.392932         13.4299         12.8331 
       0.408854         12.0819         11.7669 
       0.424564         11.3818         10.8379 
       0.440253          10.416          10.048 
       0.455999         9.54664         9.33344 
       0.471626         8.89819         8.67086 
        0.48727         8.47574         8.06979 
       0.502856         7.93317          7.5382 
       0.518488         7.29223         7.05556 
       0.534347          6.7962         6.60301 
       0.550082         6.48649          6.1904 
       0.565732         6.17595         5.81789 
       0.581496         5.77488         5.47493 
       0.597222         5.43086         5.15882 
       0.612804         5.10759         4.86911 
       0.628434         4.88026         4.60111 
       0.644267         4.63222         4.35097 
       0.660051         4.38035         4.12011 
       0.675724         4.12526         3.90719 
       0.691403         3.94651         3.70903 
       0.707174         3.74538         3.52341 
       0.722871          3.6429         3.35115 
        0.73838         3.39248         3.19216 
       0.754018         3.23448         3.04222 
       0.769845         3.06044         2.90022 
        0.78569         2.97257          2.7671 
       0.801365         2.83915          2.6436 
       0.817031         2.73013          2.5277 
       0.832809          2.5853           2.418 
       0.848511         2.49714         2.31529 
       0.864097           2.404         2.21923 
       0.879701         2.32682         2.12851 
       0.895507         2.20965         2.04179 
       0.911279         2.13487         1.96007 
        0.92691         2.06993         1.88348 
       0.942635         1.96294         1.81055 
       0.958396         1.89937         1.74131 
       0.974128         1.83759         1.67582 
       0.989692         1.76126         1.61432 
        1.00528         1.70091         1.55581 
        1.02113         1.65454         1.49928 
        1.03692         1.60675         1.44575 
        1.05264          1.5317         1.39507 
        1.06832         1.48849          1.3469 
        1.08405         1.43089         1.30086 
        1.09979         1.39497         1.25693 
        1.11537         1.34427         1.21547 
        1.13105         1.29207         1.17562 
        1.14679         1.26068         1.13739 
        1.16256         1.21952         1.10079 
        1.17828         1.19277         1.06591 
        1.19395         1.14997         1.03265 
         1.2097         1.11265         1.00063 
        1.22537         1.07443        0.970127 
          1.241         1.04893        0.940978 
        1.25666         1.02758         0.91295 
        1.27241        0.994541        0.885928 
        1.28819        0.957825        0.859949 
        1.30392         0.93428        0.835084 
        1.31957        0.912385        0.811308 
        1.33529        0.877574        0.788368 
        1.35108         0.85812         0.76622 
        1.36674        0.832795        0.745077 
         1.3824        0.819817        0.724748 
        1.39811         0.79398        0.705107 
        1.41389        0.772106        0.686116 
        1.42964        0.752001        0.667853 
        1.44531        0.734284        0.650341 
        1.46101        0.711583        0.633417 
        1.47667        0.698039        0.617142 
        1.49229        0.674453        0.601481 
        1.50793        0.660435        0.586343 
        1.52367        0.642298        0.571626 
        1.53953        0.626066        0.557313 
        1.55526        0.615788        0.543603 
        1.57092        0.605213        0.530408 
        1.58662         0.59241        0.517617 
        1.60235        0.574031        0.505222 
        1.61809        0.559757        0.493224 
        1.63369        0.543195         0.48172 
        1.64941        0.534928        0.470499 
        1.66519        0.525195        0.459594 
        1.68085        0.509855        0.449109 
        1.69652        0.498703        0.438948 
        1.71228        0.487011        0.429041 
        1.72806        0.477443         0.41943 
        1.74368         0.46732        0.410209 
        1.75933        0.458367        0.401245 
        1.77505        0.450042        0.392506 
        1.79081         0.43521         0.38401 
         1.8065        0.431161        0.375801 
        1.82218         0.41849        0.367837 
        1.83797        0.406937        0.360049 
        1.85367        0.403414        0.352528 
        1.86928        0.394199        0.345265 
        1.88497         0.38361        0.338167 
        1.90073        0.379385         0.33124 
        1.91647        0.369449        0.324513 
        1.93218        0.363298        0.317986 
        1.94787        0.355885        0.311647 
        1.96363        0.349338        0.305454 
        1.97935         0.34169        0.299442 
        1.99499        0.335573        0.293624 
        2.01064        0.329545        0.287952 
         2.0264        0.320882        0.282393 
        2.04216        0.315334        0.276983 
        2.05781        0.310813        0.271748 
        2.07353        0.304395        0.266628 
        2.08928        0.299839        0.261629 
        2.10499        0.293018         0.25677 
        2.12065        0.287917        0.252049 
        2.13633         0.28296        0.247441 
        2.15211        0.277181        0.242918 
        2.16785        0.273062        0.238521 
        2.18349        0.268423        0.234259 
        2.19916        0.262572        0.230091 
        2.21489        0.257595        0.226011 
        2.23063        0.252974        0.222026 
         2.2463        0.249234        0.218155 
        2.26194        0.245584        0.214385 
        2.27765        0.240532        0.210684 
        2.29341        0.236619         0.20706 
        2.30914        0.231448        0.203529 
        2.32486        0.228145        0.200081 
        2.34061        0.223687        0.196707 
        2.35635        0.220522        0.193413 
        2.37203        0.218188        0.190206 
        2.38768        0.213876        0.187077 
        2.40339        0.209832        0.184008 
        2.41914        0.207141        0.180999 
        2.43483        0.202968        0.178068 
         2.4505        0.199843        0.175206 
        2.46622        0.196841        0.172397 
        2.48195        0.193085        0.169649 
        2.49759         0.19178        0.166975 
        2.51328        0.186752        0.164352 
        2.52906        0.183981        0.161768 
        2.54479        0.181303        0.159248 
        2.56049        0.178008        0.156787 
        2.57618        0.176492         0.15438 
        2.59189         0.17273        0.152019 
        2.60758        0.170989        0.149711 
        2.62325        0.168188        0.147454 
        2.63898        0.166161        0.145235 
        2.65468        0.162285        0.143066 
        2.67044        0.160353        0.140931 
        2.68618        0.158025        0.138845 
        2.70184        0.155894        0.136809 
        2.71755        0.152963        0.134808 
        2.73329        0.151815        0.132845 
        2.74897        0.148406        0.130926 
        2.76462        0.147073        0.129049 
        2.78034        0.144369        0.127202 
        2.79607        0.142919        0.125388 
        2.81179        0.139735        0.123611 
        2.82749        0.138511        0.121871 
        2.84321        0.136897        0.120161 
        2.85893         0.13444        0.118485 
        2.87462         0.13252        0.116844 
        2.89033        0.130594        0.115232 
        2.90605        0.129092        0.113649 
        2.92176        0.127784        0.112096 
        2.93747        0.125376        0.110572 
        2.95318        0.123952        0.109077 
        2.96891          0.1224        0.107608 
        2.98456        0.121201        0.106173 
        3.00023        0.118933        0.104761 
        3.01596        0.117341        0.103371 
        3.03164        0.115711         0.10201 
        3.04738        0.114641        0.100669 
         3.0631        0.113079        0.099352 
        3.07883        0.111455       0.0980587 
        3.09456        0.110214       0.0967885 
        3.11026         0.10832       0.0955426 
        3.12596        0.106998       0.0943186 
        3.14163        0.105928       0.0931188 
        3.15734        0.104822       0.0919368 
        3.17308        0.103298       0.0907724 
        3.18879        0.101956       0.0896312 
        3.20447        0.100573       0.0885112 
         3.2202       0.0997202       0.0874066 
         3.2359       0.0982127       0.0863228 
        3.25157        0.096881       0.0852598 
        3.26729        0.096083       0.0842113 
        3.28304        0.095031       0.0831783 
        3.29877       0.0934846       0.0821638 
        3.31446       0.0928852       0.0811684 
        3.33014       0.0918014       0.0801902 
        3.34585       0.0902228       0.0792265 
        3.36158       0.0893305       0.0782771 
        3.37727       0.0885851       0.0773461 
        3.39294       0.0877183       0.0764311 
        3.40867       0.0864457       0.0755274 
        3.42439       0.0856991       0.0746387 
        3.44008       0.0848964       0.0737659 
        3.45578       0.0838117       0.0729064 
        3.47153       0.0831032       0.0720585 
        3.48724       0.0822473       0.0712255 
        3.50292       0.0815164       0.0704076 
        3.51859       0.0804471       0.0696028 
        3.53431       0.0795027       0.0688079 
        3.55007       0.0787483       0.0680235 
        3.56577        0.078205       0.0672543 
        3.58146       0.0773012       0.0664972 
        3.59719       0.0763232       0.0657499 
        3.61292       0.0756473       0.0650144 
        3.62859       0.0751371       0.0642927 
        3.64429       0.0739843       0.0635805 
        3.66003       0.0738027       0.0628769 
        3.67578       0.0729212       0.0621841 
        3.69146       0.0722847       0.0615043 
        3.70712       0.0714863       0.0608358 
        3.72284       0.0708784       0.0601746 
        3.73853       0.0702433       0.0595244 
        3.75422       0.0695466       0.0588835 
        3.76993       0.0689335       0.0582514 
        3.78564       0.0684975       0.0576287 
        3.80137       0.0680222       0.0570141 
        3.81707       0.0669621       0.0564097 
        3.83279       0.0665338       0.0558135 
        3.84853        0.066076       0.0552248 
        3.86424       0.0653973       0.0546458 
        3.87992       0.0648698       0.0540758 
        3.89561       0.0643732       0.0535139 
        3.91134       0.0636906       0.0529588 
        3.92704       0.0630707       0.0524121 
        3.94273       0.0625821       0.0518736 
        3.95845       0.0619131       0.0513416 
        3.97418       0.0615425        0.050817 
        3.98988       0.0605165       0.0503003 
        4.00554        0.060266       0.0497922 
        4.02125       0.0595872       0.0492895 
        4.03698       0.0587565        0.048793 
        4.05268       0.0582845       0.0483044 
        4.06839       0.0574612       0.0478221 
         4.0841       0.0566252       0.0473465 
        4.09983       0.0559754       0.0468766 
        4.11555       0.0552602       0.0464132 
        4.13124       0.0545629       0.0459573 
        4.14693       0.0539231       0.0455072 
        4.16266       0.0532253       0.0450619 
        4.17839       0.0526785       0.0446229 
        4.19408       0.0520339       0.0441906 
        4.20977       0.0514847       0.0437638 
        4.22551       0.0509243       0.0433417 
        4.24123       0.0503506       0.0429254 
        4.25691       0.0499636       0.0425158 
        4.27259       0.0493906       0.0421113 
        4.28831       0.0491086       0.0417112 
        4.30404       0.0483637       0.0413159 
        4.31974       0.0480363       0.0409265 
        4.33543       0.0476666       0.0405424 
        4.35116       0.0473649       0.0401622 
        4.36688       0.0468834        0.039787 
        4.38255       0.0465275       0.0394179 
        4.39825       0.0463007       0.0390527 
        4.41398       0.0458205       0.0386914 
         4.4297       0.0456916        0.038335 
        4.44541       0.0453644       0.0379831 
        4.46111       0.0450351       0.0376358 
        4.47683       0.0447947       0.0372927 
        4.49251       0.0446858       0.0369544 
        4.50819       0.0444355       0.0366204 
         4.5239        0.044225       0.0362901 
        4.53962       0.0439994       0.0359633 
        4.55535       0.0440096       0.0356404 
        4.57106       0.0438294       0.0353219 
        4.58678       0.0437185       0.0350072 
         4.6025       0.0435705       0.0346962 
        4.61821       0.0436637       0.0343891 
        4.63391       0.0435183        0.034086 
         4.6496       0.0433826       0.0337866 
        4.66532       0.0435097       0.0334904 
        4.68103       0.0435289       0.0331978 
        4.69673       0.0433666        0.032909 
        4.71241       0.0435951       0.0326238 
        4.72811       0.0434645       0.0323416 
        4.74384       0.0435108       0.0320623 
        4.75955       0.0435543       0.0317867 
        4.77525       0.0437548       0.0315145 
        4.79096       0.0438888       0.0312451 
        4.80669       0.0438915       0.0309787 
         4.8224       0.0441377       0.0307157 
        4.83809       0.0442583        0.030456 
        4.85379       0.0443953       0.0301991 
         4.8695       0.0447729       0.0299449 
        4.88521       0.0449485       0.0296938 
        4.90093       0.0452594       0.0294454 
        4.91663       0.0453936       0.0292002 
        4.93234       0.0456208       0.0289574 
        4.94807       0.0458651       0.0287172 
        4.96377       0.0463184       0.0284802 
        4.97943        0.046763       0.0282463 
        4.99514        0.047081       0.0280144 
        5.01086       0.0473746       0.0277849 
        5.02654       0.0478621       0.0275586 
        5.04227       0.0482889       0.0273341 
          5.058       0.0485826        0.027112 
        5.07371       0.0490882       0.0268927 
        5.08942       0.0497016       0.0266759 
        5.10513       0.0502068       0.0264614 
        5.12084       0.0506639       0.0262491 
        5.13656       0.0511407       0.0260392 
        5.15225       0.0519168       0.0258319 
        5.16796       0.0525054       0.0256265 
        5.18369       0.0530555       0.0254231 
         5.1994       0.0536298       0.0252223 
        5.21509       0.0543797       0.0250239 
        5.23079       0.0550573       0.0248273 
        5.24649       0.0559668        0.024633 
        5.26217       0.0565005       0.0244408 
        5.27788       0.0574729       0.0242505 
        5.29359       0.0583087       0.0240621 
        5.30933       0.0589755       0.0238754 
        5.32504       0.0598811        0.023691 
        5.34073       0.0605836       0.0235088 
        5.35646        0.061683        0.023328 
        5.37218       0.0626213       0.0231492 
        5.38789       0.0636687       0.0229724 
        5.40357       0.0646153       0.0227978 
        5.41929       0.0657278       0.0226245 
        5.43502       0.0670013        0.022453 
         5.4507       0.0679478       0.0222836 
        5.46639        0.069046        0.022116 
        5.48212       0.0700819       0.0219497 
        5.49786        0.071537       0.0217849 
        5.51353        0.073192       0.0216226 
        5.52921       0.0738619       0.0214618 
        5.54495       0.0756922       0.0213021 
        5.56066       0.0768139       0.0211442 
        5.57637        0.078317       0.0209879 
        5.59207       0.0792948       0.0208333 
        5.60778       0.0809268       0.0206803 
        5.62346       0.0825542       0.0205289 
        5.63916       0.0842158       0.0203789 
        5.65487       0.0863459       0.0202303 
         5.6706       0.0869982        0.020083 
        5.68633       0.0891636       0.0199372 
        5.70203       0.0910408        0.019793 
        5.71773       0.0930659       0.0196503 
        5.73344       0.0949971       0.0195089 
        5.74916       0.0971931       0.0193688 
        5.76486       0.0988688       0.0192302 
        5.78054        0.100788       0.0190932 
        5.79626         0.10307       0.0189571 
          5.812        0.104867       0.0188222 
         5.8277        0.107211        0.018689 
        5.84339         0.10943       0.0185571 
        5.85911        0.111378       0.0184262 
        5.87484         0.11355       0.0182965 
        5.89053         0.11605       0.0181684 
        5.90623        0.119622       0.0180414 
        5.92195        0.121081       0.0179154 
        5.93767        0.123859       0.0177907 
        5.95336         0.12641       0.0176673 
        5.96905        0.130022       0.0175452 
        5.98476        0.131693        0.017424 
        6.00048        0.134819       0.0173039 
        6.01617        0.137637       0.0171851 
        6.03185        0.140627       0.0170676 
        6.04756        0.142499       0.0169509 
        6.06331        0.147033        0.016835 
        6.07903        0.150101       0.0167204 
        6.09473        0.152618        0.016607 
        6.11044        0.157417       0.0164945 
        6.12616        0.158952       0.0163831 
        6.14186        0.163071       0.0162728 
        6.15755        0.166358       0.0161635 
        6.17326        0.170473       0.0160552 
        6.18898        0.173522       0.0159478 
        6.20467        0.177474       0.0158415 
        6.22036        0.180885       0.0157362 
         6.2361        0.183631       0.0156316 
         6.2518        0.189328       0.0155281 
        6.26748        0.193433       0.0154257 
        6.28319        0.197778        0.015324 
        6.29893        0.201844       0.0152231 
        6.31463        0.205982       0.0151233 
        6.33033        0.208908       0.0150244 
        6.34604        0.214169       0.0149263 
        6.36177        0.217644        0.014829 
        6.37747        0.222729       0.0147327 
