# k  (h/Mpc)    Pcb(k)  (Mpc/h)^3    Pcb_linear(k) (Mpc/h)^3   ShotnoiseSubtracted = true
      0.0200456         16292.5         16642.2 
      0.0350414         11635.5         12098.3 
      0.0492313         8658.39         8790.41 
      0.0637834         7452.91         7307.39 
      0.0800726         5888.89         5799.69 
       0.096163         4095.29         4208.18 
       0.111083         3273.04         3356.55 
       0.126058         3018.47         2974.59 
       0.142273         2611.53         2520.13 
       0.158546         2237.63         1990.38 
        0.17375          1789.1         1676.89 
       0.188953         1741.28         1518.39 
       0.204907         1637.05         1343.46 
       0.220756         1407.38         1136.65 
        0.23588         1248.26         988.787 
         0.2514         1085.91         898.303 
       0.267535         1075.72          812.81 
       0.283568         975.424         716.789 
       0.299022         917.458         638.622 
       0.314451         872.043         583.657 
       0.330372         802.707          535.44 
       0.346141         746.378         485.993 
       0.361624          717.77         441.702 
       0.377134         666.483         406.435 
       0.392932          640.87         376.066 
       0.408854         620.608         346.661 
       0.424564         581.123         319.522 
       0.440253         570.247         296.234 
       0.455999         540.046         275.984 
       0.471626         513.751         257.375 
        0.48727         495.231         239.967 
       0.502856         481.437         224.328 
       0.518488         476.442         210.374 
       0.534347         445.103         197.402 
       0.550082         427.015         185.441 
       0.565732         426.355         174.499 
       0.581496         400.925         164.477 
       0.597222         395.052         155.286 
       0.612804         384.122         146.834 
       0.628434          370.26         138.956 
       0.644267         360.241         131.592 
       0.660051         350.874         124.804 
       0.675724         346.614         118.536 
       0.691403         335.854         112.693 
       0.707174         324.155         107.212 
       0.722871         320.167         102.116 
        0.73838         315.655         97.4065 
       0.754018         306.755         92.9584 
       0.769845         297.537         88.7396 
        0.78569         296.815         84.7791 
       0.801365         286.835         81.0998 
       0.817031         277.886         77.6422 
       0.832809         276.118         74.3652 
       0.848511         268.514         71.2929 
       0.864097         264.333         68.4162 
       0.879701          260.56         65.6962 
       0.895507         254.899         63.0927 
       0.911279         246.581         60.6363 
        0.92691         246.156         58.3317 
       0.942635         240.075         56.1347 
       0.958396         236.911         54.0466 
       0.974128         232.421         52.0691 
       0.989692         227.922         50.2104 
        1.00528         224.861         48.4401 
        1.02113          222.71         46.7278 
        1.03692         217.316         45.1049 
        1.05264         213.453         43.5669 
        1.06832         209.537         42.1033 
        1.08405         205.868         40.7033 
        1.09979         203.315         39.3663 
        1.11537         199.447         38.1029 
        1.13105         195.242         36.8877 
        1.14679         195.433         35.7209 
        1.16256         191.668         34.6026 
        1.17828          187.98         33.5359 
        1.19395          185.04          32.518 
         1.2097         184.692         31.5374 
        1.22537         180.307          30.602 
          1.241         178.839         29.7075 
        1.25666         175.202         28.8467 
        1.27241         172.474         28.0161 
        1.28819         170.567         27.2169 
        1.30392         167.264         26.4513 
        1.31957          167.07         25.7186 
        1.33529         162.536         25.0111 
        1.35108         160.778         24.3275 
        1.36674         159.655         23.6744 
         1.3824         156.968          23.046 
        1.39811         156.453         22.4383 
        1.41389         153.032         21.8503 
        1.42964         150.358         21.2844 
        1.44531         148.223         20.7414 
        1.46101         146.687         20.2162 
        1.47667         144.076         19.7109 
        1.49229          142.29         19.2242 
        1.50793         141.038         18.7534 
        1.52367         139.663         18.2954 
        1.53953          136.64         17.8496 
        1.55526         135.093         17.4223 
        1.57092         133.561         17.0108 
        1.58662         131.555         16.6117 
        1.60235         130.279         16.2246 
        1.61809         128.425         15.8496 
        1.63369         126.699         15.4899 
        1.64941         125.151         15.1388 
        1.66519         123.284         14.7974 
        1.68085         122.368         14.4689 
        1.69652         119.758         14.1503 
        1.71228         119.088         13.8395 
        1.72806         117.614         13.5378 
        1.74368         116.517         13.2482 
        1.75933         114.709         12.9665 
        1.77505         113.293         12.6916 
        1.79081         112.228         12.4243 
         1.8065         110.689         12.1658 
        1.82218         108.728         11.9149 
        1.83797         107.137         11.6694 
        1.85367         106.341         11.4322 
        1.86928         105.013          11.203 
        1.88497         102.996         10.9788 
        1.90073         102.476           10.76 
        1.91647         101.101         10.5473 
        1.93218         99.9722         10.3408 
        1.94787         98.8272         10.1402 
        1.96363         97.5677         9.94413 
        1.97935          95.936         9.75364 
        1.99499         95.2716         9.56922 
        2.01064         94.1489         9.38931 
         2.0264         92.6706         9.21291 
        2.04216          91.957         9.04112 
        2.05781         90.6622         8.87481 
        2.07353         89.3487          8.7121 
        2.08928         88.2545         8.55311 
        2.10499         86.8971         8.39852 
        2.12065         86.6195         8.24822 
        2.13633         85.6324         8.10148 
        2.15211         84.5358         7.95736 
        2.16785         83.0248         7.81715 
        2.18349         82.0289         7.68121 
        2.19916         81.3537         7.54821 
        2.21489         80.3174         7.41793 
        2.23063         79.1859         7.29064 
         2.2463         78.4626         7.16691 
        2.26194         78.2725         7.04636 
        2.27765          76.705         6.92797 
        2.29341         75.8085           6.812 
        2.30914         74.8178         6.69892 
        2.32486         74.1058         6.58847 
        2.34061         73.3008         6.48033 
        2.35635         72.1867         6.37472 
        2.37203          71.223         6.27183 
        2.38768         70.5404         6.17142 
        2.40339         69.8169         6.07285 
        2.41914         68.9624         5.97621 
        2.43483         68.6695         5.88201 
         2.4505         67.5518            5.79 
        2.46622         66.8547         5.69965 
        2.48195         66.0201         5.61122 
        2.49759         65.2537         5.52513 
        2.51328         64.5737         5.44064 
        2.52906         64.0112         5.35737 
        2.54479         63.2591         5.27616 
        2.56049         62.2751         5.19679 
        2.57618         61.7625         5.11912 
        2.59189         60.8249         5.04293 
        2.60758         60.3633          4.9684 
        2.62325         59.7251         4.89547 
        2.63898         59.0497         4.82376 
        2.65468         58.5811         4.75363 
        2.67044          57.677         4.68459 
        2.68618         57.3693         4.61709 
        2.70184         56.7798         4.55119 
        2.71755         56.2558         4.48641 
        2.73329         55.3088         4.42279 
        2.74897         54.8858         4.36061 
        2.76462         54.1974         4.29977 
        2.78034         53.6231         4.23983 
        2.79607         53.0465         4.18098 
        2.81179         52.4167         4.12331 
        2.82749         51.9255         4.06679 
        2.84321         51.4241         4.01127 
        2.85893         50.8155         3.95681 
        2.87462         50.1882         3.90345 
        2.89033         49.6699         3.85102 
        2.90605         49.1378         3.79951 
        2.92176         48.6463         3.74897 
        2.93747         48.2087         3.69938 
        2.95318         47.4973         3.65067 
        2.96891         46.8927         3.60282 
        2.98456         46.6938         3.55603 
        3.00023         46.0185         3.51001 
        3.01596         45.7296         3.46466 
        3.03164         45.1451         3.42024 
        3.04738         44.8451         3.37647 
         3.0631         44.3462         3.33349 
        3.07883         43.8876         3.29124 
        3.09456         43.4352         3.24974 
        3.11026         42.9233         3.20902 
        3.12596         42.6148           3.169 
        3.14163         42.0155         3.12975 
        3.15734         41.4874         3.09108 
        3.17308         41.3777         3.05296 
        3.18879         40.9558          3.0156 
        3.20447         40.3455         2.97891 
         3.2202         40.0154         2.94272 
         3.2359         39.5819          2.9072 
        3.25157          39.305         2.87234 
        3.26729         38.7903         2.83795 
        3.28304         38.2996         2.80406 
        3.29877         38.0209         2.77077 
        3.31446         37.7248         2.73809 
        3.33014          37.271         2.70596 
        3.34585          37.042          2.6743 
        3.36158         36.6203          2.6431 
        3.37727         36.1648          2.6125 
        3.39294         35.8598         2.58241 
        3.40867         35.5006         2.55268 
        3.42439         35.1744         2.52344 
        3.44008         34.9208         2.49471 
        3.45578          34.464         2.46641 
        3.47153         34.1191         2.43848 
        3.48724         33.8184         2.41104 
        3.50292         33.5644         2.38408 
        3.51859         33.1457         2.35755 
        3.53431         32.8797         2.33134 
        3.55007         32.5816         2.30546 
        3.56577         32.3293         2.28008 
        3.58146         31.9794         2.25509 
        3.59719          31.693         2.23042 
        3.61292         31.4427         2.20613 
        3.62859         31.0551         2.18228 
        3.64429         30.7594         2.15875 
        3.66003         30.4929         2.13549 
        3.67578         30.1741         2.11258 
        3.69146         29.9581         2.09009 
        3.70712         29.6579         2.06797 
        3.72284         29.5215         2.04609 
        3.73853         29.1698         2.02457 
        3.75422         28.8858         2.00334 
        3.76993         28.6522         1.98241 
        3.78564         28.3961         1.96177 
        3.80137         28.0916          1.9414 
        3.81707          27.869         1.92136 
        3.83279         27.6535         1.90159 
        3.84853         27.4072         1.88207 
        3.86424         27.1269         1.86285 
        3.87992         26.9002         1.84393 
        3.89561          26.634         1.82528 
        3.91134         26.3889         1.80684 
        3.92704         26.1765         1.78868 
        3.94273         25.9751         1.77079 
        3.95845         25.5655         1.75311 
        3.97418         25.4907         1.73567 
        3.98988         25.2311         1.71848 
        4.00554         24.9782         1.70158 
        4.02125         24.8639         1.68486 
        4.03698         24.5029         1.66833 
        4.05268         24.3942         1.65206 
        4.06839         24.1458           1.636 
         4.0841         23.9601         1.62016 
        4.09983         23.7748          1.6045 
        4.11555         23.5502         1.58906 
        4.13124         23.2769         1.57387 
        4.14693         23.1037         1.55885 
        4.16266         22.8336           1.544 
        4.17839         22.6771         1.52936 
        4.19408         22.5138         1.51493 
        4.20977         22.3126         1.50069 
        4.22551         22.1225         1.48659 
        4.24123         21.8846         1.47269 
        4.25691         21.7432           1.459 
        4.27259         21.5424         1.44549 
        4.28831         21.3503         1.43212 
        4.30404         21.1411          1.4189 
        4.31974         21.0452         1.40588 
        4.33543         20.8224         1.39303 
        4.35116         20.6789         1.38031 
        4.36688         20.4715         1.36776 
        4.38255         20.3595          1.3554 
        4.39825         20.1895         1.34318 
        4.41398          20.017         1.33108 
         4.4297         19.8402         1.31914 
        4.44541          19.685         1.30735 
        4.46111         19.5398         1.29571 
        4.47683         19.3259          1.2842 
        4.49251         19.2272         1.27286 
        4.50819         19.0478         1.26166 
         4.5239         18.8771         1.25058 
        4.53962         18.7226         1.23961 
        4.55535         18.5557         1.22878 
        4.57106         18.4347         1.21808 
        4.58678         18.2509         1.20752 
         4.6025         18.1046         1.19707 
        4.61821         17.9933         1.18675 
        4.63391          17.821         1.17657 
         4.6496         17.6633         1.16651 
        4.66532          17.531         1.15655 
        4.68103         17.3742         1.14671 
        4.69673          17.252         1.13699 
        4.71241         17.1655          1.1274 
        4.72811         16.9833          1.1179 
        4.74384         16.8521          1.1085 
        4.75955         16.7226         1.09923 
        4.77525         16.6048         1.09006 
        4.79096         16.4713         1.08099 
        4.80669         16.3563         1.07201 
         4.8224         16.2065         1.06315 
        4.83809         16.0348         1.05439 
        4.85379         15.9562         1.04573 
         4.8695         15.8452         1.03716 
        4.88521         15.7406         1.02869 
        4.90093         15.5782         1.02032 
        4.91663         15.4539         1.01204 
        4.93234         15.3668         1.00385 
        4.94807         15.2109        0.995739 
        4.96377         15.1247        0.987736 
        4.97943         14.9905        0.979837 
        4.99514         14.8771        0.972005 
        5.01086         14.7543        0.964251 
        5.02654         14.6336        0.956603 
        5.04227         14.5431        0.949014 
          5.058         14.4117        0.941504 
        5.07371         14.3235        0.934091 
        5.08942         14.2154        0.926756 
        5.10513         14.0905        0.919498 
        5.12084         13.9882        0.912315 
        5.13656         13.9118        0.905211 
        5.15225          13.769        0.898193 
        5.16796         13.6355        0.891239 
        5.18369         13.5704        0.884352 
         5.1994          13.489         0.87755 
        5.21509         13.3776        0.870826 
        5.23079         13.2773        0.864165 
        5.24649         13.1729        0.857578 
        5.26217         13.0847        0.851064 
        5.27788         12.9723        0.844609 
        5.29359         12.8973        0.838219 
        5.30933         12.7782        0.831887 
        5.32504          12.726         0.82563 
        5.34073         12.5976        0.819445 
        5.35646         12.5506         0.81331 
        5.37218         12.4243        0.807237 
        5.38789         12.3441        0.801236 
        5.40357         12.2561        0.795303 
        5.41929         12.1517        0.789416 
        5.43502         12.0558        0.783588 
         5.4507         11.9776        0.777834 
        5.46639         11.8924        0.772136 
        5.48212         11.8186        0.766481 
        5.49786         11.7305        0.760877 
        5.51353         11.6536        0.755356 
        5.52921         11.5641        0.749885 
        5.54495         11.4807        0.744451 
        5.56066         11.4012        0.739078 
        5.57637         11.3128        0.733758 
        5.59207          11.223        0.728495 
        5.60778         11.1437        0.723282 
        5.62346         11.0944        0.718127 
        5.63916          11.005        0.713017 
        5.65487         10.9084        0.707954 
         5.6706         10.8621        0.702935 
        5.68633         10.7711        0.697962 
        5.70203         10.6922        0.693048 
        5.71773         10.6111        0.688181 
        5.73344         10.5432        0.683359 
        5.74916         10.4785        0.678579 
        5.76486         10.3963        0.673851 
        5.78054          10.315        0.669175 
        5.79626         10.2423         0.66453 
          5.812         10.1799        0.659925 
         5.8277         10.0986        0.655376 
        5.84339          10.041        0.650871 
        5.85911         9.96457        0.646399 
        5.87484         9.88516         0.64197 
        5.89053         9.81709        0.637592 
        5.90623         9.75741        0.633252 
        5.92195         9.69837        0.628945 
        5.93767         9.61208         0.62468 
        5.95336         9.54869        0.620462 
        5.96905           9.512        0.616284 
        5.98476         9.43489        0.612139 
        6.00048         9.35964        0.608031 
        6.01617         9.31151        0.603966 
        6.03185          9.2322        0.599943 
        6.04756         9.18838        0.595947 
        6.06331         9.11182        0.591979 
        6.07903          9.0572        0.588055 
        6.09473         9.00695         0.58417 
        6.11044         8.94656        0.580317 
        6.12616          8.8918        0.576499 
        6.14186         8.82983         0.57272 
        6.15755         8.78309        0.568974 
        6.17326         8.70755        0.565259 
        6.18898         8.64743        0.561576 
        6.20467          8.5885        0.557932 
        6.22036         8.52323         0.55432 
         6.2361         8.47498        0.550731 
         6.2518         8.39503        0.547179 
        6.26748         8.36971        0.543666 
        6.28319         8.30847        0.540175 
        6.29893           8.253        0.536711 
        6.31463          8.1985        0.533283 
        6.33033         8.15203        0.529887 
        6.34604         8.09957        0.526517 
        6.36177          8.0466        0.523174 
        6.37747         7.99649        0.519865 
