# k  (h/Mpc)    Pcb(k)  (Mpc/h)^3    Pcb_linear(k) (Mpc/h)^3   ShotnoiseSubtracted = true
      0.0200456         14746.6         15053.1 
      0.0350414         10550.9         10943.1 
      0.0492313          7846.5         7951.06 
      0.0637834         6741.31         6609.64 
      0.0800726         5328.92         5245.91 
       0.096163         3710.61         3806.36 
       0.111083         2961.11         3036.05 
       0.126058         2730.81         2690.56 
       0.142273         2361.78          2279.5 
       0.158546         2009.66         1800.33 
        0.17375         1607.84         1516.77 
       0.188953         1561.49          1373.4 
       0.204907          1467.8         1215.18 
       0.220756         1257.97         1028.12 
        0.23588         1113.27         894.373 
         0.2514         969.089         812.529 
       0.267535         955.928         735.199 
       0.283568         866.879         648.347 
       0.299022         813.421         577.644 
       0.314451         771.304         527.927 
       0.330372          710.42         484.314 
       0.346141         655.334         439.589 
       0.361624         630.266         399.526 
       0.377134         585.112         367.627 
       0.392932          561.44         340.158 
       0.408854          541.79          313.56 
       0.424564         509.582         289.013 
       0.440253         498.564         267.948 
       0.455999         470.695         249.632 
       0.471626         445.175         232.799 
        0.48727         430.192         217.053 
       0.502856          417.58         202.908 
       0.518488         413.552         190.287 
       0.534347         386.643         178.553 
       0.550082         368.777         167.735 
       0.565732         367.214         157.837 
       0.581496         345.895         148.772 
       0.597222         340.388         140.458 
       0.612804         330.195         132.814 
       0.628434         317.681         125.688 
       0.644267         308.727         119.027 
       0.660051         302.196         112.887 
       0.675724          297.65         107.218 
       0.691403         288.741         101.933 
       0.707174         278.313         96.9745 
       0.722871         274.951         92.3657 
        0.73838           270.6         88.1057 
       0.754018         263.351         84.0823 
       0.769845         254.546         80.2663 
        0.78569         254.353          76.684 
       0.801365         245.449          73.356 
       0.817031         238.047         70.2286 
       0.832809         235.994         67.2645 
       0.848511         229.591         64.4856 
       0.864097         226.584         61.8835 
       0.879701         222.725         59.4232 
       0.895507         217.302         57.0683 
       0.911279         210.551         54.8465 
        0.92691         210.673         52.7619 
       0.942635         205.303         50.7747 
       0.958396         203.583          48.886 
       0.974128         199.179         47.0973 
       0.989692         194.637         45.4161 
        1.00528         192.278         43.8149 
        1.02113         190.725          42.266 
        1.03692         185.553         40.7981 
        1.05264           181.9         39.4069 
        1.06832         178.813         38.0831 
        1.08405         175.923         36.8167 
        1.09979          174.48         35.6075 
        1.11537         170.006         34.4647 
        1.13105         167.479         33.3655 
        1.14679         167.454         32.3101 
        1.16256         164.394         31.2986 
        1.17828         161.023         30.3338 
        1.19395         158.659         29.4131 
         1.2097         157.786          28.526 
        1.22537          154.54           27.68 
          1.241         152.708         26.8709 
        1.25666         150.069         26.0923 
        1.27241         147.494          25.341 
        1.28819         145.939         24.6181 
        1.30392         143.629         23.9256 
        1.31957         142.781         23.2629 
        1.33529         138.907         22.6229 
        1.35108         138.105         22.0046 
        1.36674         136.766         21.4139 
         1.3824         134.154         20.8454 
        1.39811         133.714         20.2958 
        1.41389         131.105         19.7639 
        1.42964         128.389         19.2521 
        1.44531         126.328         18.7609 
        1.46101         125.055         18.2859 
        1.47667         123.415         17.8288 
        1.49229         121.834         17.3885 
        1.50793         120.862         16.9627 
        1.52367         119.398         16.5484 
        1.53953         116.952         16.1453 
        1.55526         115.886         15.7588 
        1.57092         114.508         15.3866 
        1.58662         112.595         15.0255 
        1.60235         111.959         14.6754 
        1.61809         109.802         14.3363 
        1.63369         108.871         14.0109 
        1.64941          107.92         13.6933 
        1.66519         105.771         13.3844 
        1.68085         105.196         13.0873 
        1.69652         102.547         12.7991 
        1.71228         102.716          12.518 
        1.72806         101.308         12.2452 
        1.74368         100.021         11.9832 
        1.75933         98.5932         11.7284 
        1.77505         97.4921         11.4798 
        1.79081         96.1589          11.238 
         1.8065         95.0114         11.0042 
        1.82218         93.2922         10.7772 
        1.83797          92.139         10.5552 
        1.85367         91.3167         10.3406 
        1.86928         90.6221         10.1333 
        1.88497         88.8426          9.9305 
        1.90073         88.4344         9.73256 
        1.91647         87.1305          9.5402 
        1.93218         86.0008         9.35345 
        1.94787         85.2875         9.17198 
        1.96363         83.8605         8.99462 
        1.97935         82.9583         8.82232 
        1.99499         82.1327         8.65551 
        2.01064         81.2541         8.49278 
         2.0264         79.7503         8.33322 
        2.04216         78.9946         8.17784 
        2.05781         78.0658          8.0274 
        2.07353         76.6743         7.88022 
        2.08928         75.7462         7.73642 
        2.10499         75.0299         7.59659 
        2.12065          74.659         7.46065 
        2.13633          73.652         7.32791 
        2.15211         72.7694         7.19755 
        2.16785          71.847         7.07074 
        2.18349         71.0011         6.94777 
        2.19916         70.1921         6.82747 
        2.21489         69.3664         6.70963 
        2.23063         68.7524          6.5945 
         2.2463         67.8067         6.48258 
        2.26194          67.409         6.37354 
        2.27765         66.5337         6.26646 
        2.29341          65.641         6.16156 
        2.30914         64.6936         6.05927 
        2.32486         63.9356         5.95937 
        2.34061         63.2984         5.86156 
        2.35635         62.7015         5.76603 
        2.37203         61.7054         5.67297 
        2.38768         61.0901         5.58215 
        2.40339         60.3845         5.49299 
        2.41914         59.8943         5.40557 
        2.43483          59.569         5.32037 
         2.4505         58.7535         5.23715 
        2.46622         58.0685         5.15542 
        2.48195         57.3579         5.07543 
        2.49759         56.4906         4.99757 
        2.51328         56.0029         4.92114 
        2.52906         55.5935         4.84582 
        2.54479         54.8777         4.77237 
        2.56049          54.145         4.70058 
        2.57618         53.7245         4.63032 
        2.59189         53.0647          4.5614 
        2.60758         52.7308           4.494 
        2.62325         52.0183         4.42803 
        2.63898         51.5381         4.36316 
        2.65468         51.0301         4.29973 
        2.67044         50.2225         4.23729 
        2.68618         49.9169         4.17623 
        2.70184         49.1787         4.11662 
        2.71755         49.0443         4.05802 
        2.73329           48.14         4.00048 
        2.74897         47.7336         3.94424 
        2.76462         47.2145         3.88921 
        2.78034         46.8868         3.83499 
        2.79607         46.1788         3.78176 
        2.81179         45.7533          3.7296 
        2.82749         45.1289         3.67848 
        2.84321         44.8079         3.62826 
        2.85893          44.283         3.57899 
        2.87462         43.7556         3.53073 
        2.89033         43.3197         3.48331 
        2.90605         42.9119         3.43672 
        2.92176         42.5064           3.391 
        2.93747         42.0704         3.34614 
        2.95318         41.5917         3.30209 
        2.96891         41.0033          3.2588 
        2.98456         40.8395         3.21649 
        3.00023         40.3317         3.17486 
        3.01596          39.994         3.13384 
        3.03164         39.4428         3.09366 
        3.04738         39.2298         3.05407 
         3.0631         38.7035         3.01519 
        3.07883          38.356         2.97698 
        3.09456         37.9391         2.93944 
        3.11026         37.4761         2.90261 
        3.12596          37.272         2.86641 
        3.14163         36.8115         2.83091 
        3.15734         36.2432         2.79593 
        3.17308          36.171         2.76145 
        3.18879         35.9097         2.72765 
        3.20447         35.3547         2.69447 
         3.2202          34.921         2.66174 
         3.2359         34.6521          2.6296 
        3.25157         34.2982         2.59808 
        3.26729         34.0165         2.56697 
        3.28304         33.5976         2.53632 
        3.29877         33.3638          2.5062 
        3.31446         33.0909         2.47664 
        3.33014         32.6935         2.44758 
        3.34585         32.4324         2.41895 
        3.36158          32.105         2.39073 
        3.37727         31.7531         2.36304 
        3.39294         31.4453         2.33583 
        3.40867         31.1636         2.30894 
        3.42439          30.881         2.28249 
        3.44008         30.7371          2.2565 
        3.45578         30.1748         2.23091 
        3.47153          29.943         2.20565 
        3.48724         29.7075         2.18082 
        3.50292         29.3917         2.15644 
        3.51859         29.1491         2.13244 
        3.53431         28.9282         2.10873 
        3.55007         28.6342         2.08533 
        3.56577         28.3551         2.06237 
        3.58146         28.1248         2.03977 
        3.59719         27.7839         2.01745 
        3.61292         27.5655         1.99547 
        3.62859         27.2929         1.97391 
        3.64429          26.957         1.95262 
        3.66003         26.7276         1.93158 
        3.67578         26.5731         1.91086 
        3.69146         26.3313         1.89052 
        3.70712          26.059         1.87051 
        3.72284          25.919         1.85072 
        3.73853         25.6477         1.83125 
        3.75422         25.3623         1.81206 
        3.76993           25.21         1.79312 
        3.78564         24.8856         1.77446 
        3.80137         24.7298         1.75603 
        3.81707         24.5133          1.7379 
        3.83279         24.2369         1.72002 
        3.84853         23.9179         1.70236 
        3.86424          23.741         1.68498 
        3.87992         23.5543         1.66787 
        3.89561         23.3602         1.65099 
        3.91134         23.1696         1.63432 
        3.92704         22.9578         1.61789 
        3.94273         22.7068         1.60171 
        3.95845         22.4989         1.58571 
        3.97418         22.3619         1.56994 
        3.98988         22.1306         1.55439 
        4.00554         21.9535         1.53911 
        4.02125         21.8104         1.52398 
        4.03698         21.5287         1.50903 
        4.05268         21.3679         1.49432 
        4.06839         21.1522         1.47979 
         4.0841         21.0458         1.46546 
        4.09983         20.8615          1.4513 
        4.11555         20.6793         1.43733 
        4.13124         20.3882         1.42359 
        4.14693         20.2216         1.41001 
        4.16266         20.0787         1.39658 
        4.17839         19.8934         1.38333 
        4.19408         19.6844         1.37028 
        4.20977          19.619         1.35739 
        4.22551         19.4113         1.34464 
        4.24123         19.2325         1.33207 
        4.25691         19.0947         1.31969 
        4.27259         18.9154         1.30747 
        4.28831         18.7375         1.29537 
        4.30404          18.567         1.28342 
        4.31974         18.4057         1.27164 
        4.33543          18.299         1.26002 
        4.35116         18.1539         1.24851 
        4.36688          17.957         1.23716 
        4.38255          17.826         1.22598 
        4.39825         17.7173         1.21492 
        4.41398         17.5105         1.20398 
         4.4297         17.3784         1.19318 
        4.44541         17.2739         1.18251 
        4.46111         17.1031         1.17199 
        4.47683         16.9562         1.16158 
        4.49251          16.853         1.15132 
        4.50819         16.6787         1.14119 
         4.5239         16.5787         1.13117 
        4.53962         16.4032         1.12125 
        4.55535         16.2882         1.11145 
        4.57106         16.1241         1.10178 
        4.58678         16.0573         1.09222 
         4.6025          15.892         1.08277 
        4.61821          15.759         1.07344 
        4.63391         15.6415         1.06422 
         4.6496         15.5005         1.05512 
        4.66532         15.3457         1.04612 
        4.68103         15.2359         1.03722 
        4.69673         15.1743         1.02843 
        4.71241         15.0297         1.01975 
        4.72811         14.8828         1.01116 
        4.74384         14.7874         1.00266 
        4.75955         14.6663        0.994267 
        4.77525         14.5684        0.985975 
        4.79096         14.4318        0.977768 
        4.80669         14.3214         0.96965 
         4.8224         14.1866        0.961634 
        4.83809         14.0896        0.953716 
        4.85379         13.9556        0.945883 
         4.8695          13.915        0.938131 
        4.88521          13.764         0.93047 
        4.90093          13.659        0.922893 
        4.91663         13.5875        0.915407 
        4.93234         13.4244        0.907996 
        4.94807         13.3498        0.900662 
        4.96377         13.2169        0.893422 
        4.97943         13.1527        0.886278 
        4.99514         13.0158        0.879193 
        5.01086         12.9623         0.87218 
        5.02654         12.8139        0.865262 
        5.04227         12.7496        0.858398 
          5.058         12.6532        0.851605 
        5.07371         12.5561        0.844899 
        5.08942         12.4481        0.838265 
        5.10513         12.3715        0.831701 
        5.12084         12.2574        0.825203 
        5.13656         12.1779        0.818777 
        5.15225         12.0606         0.81243 
        5.16796         12.0167        0.806139 
        5.18369         11.8886         0.79991 
         5.1994          11.823        0.793758 
        5.21509         11.7212        0.787676 
        5.23079         11.6543         0.78165 
        5.24649          11.564        0.775692 
        5.26217         11.4566        0.769801 
        5.27788         11.3746        0.763962 
        5.29359         11.3292        0.758182 
        5.30933         11.2283        0.752454 
        5.32504         11.1654        0.746795 
        5.34073          11.064          0.7412 
        5.35646         10.9842        0.735652 
        5.37218         10.9029        0.730158 
        5.38789         10.8272         0.72473 
        5.40357         10.7503        0.719363 
        5.41929         10.6642        0.714039 
        5.43502         10.6237        0.708768 
         5.4507         10.5137        0.703562 
        5.46639         10.4567        0.698409 
        5.48212         10.3991        0.693294 
        5.49786         10.2914        0.688225 
        5.51353         10.2328        0.683231 
        5.52921         10.1432        0.678282 
        5.54495         10.0664        0.673368 
        5.56066         9.99897        0.668507 
        5.57637         9.91682        0.663695 
        5.59207         9.87476        0.658935 
        5.60778         9.78778         0.65422 
        5.62346         9.73681        0.649557 
        5.63916         9.65255        0.644935 
        5.65487         9.59104        0.640356 
         5.6706         9.52786        0.635815 
        5.68633         9.45209        0.631317 
        5.70203         9.40715        0.626872 
        5.71773         9.33694        0.622471 
        5.73344         9.26112        0.618109 
        5.74916         9.19519        0.613785 
        5.76486         9.13849        0.609508 
        5.78054         9.07391        0.605279 
        5.79626         9.00242        0.601078 
          5.812          8.9475        0.596912 
         5.8277         8.87743        0.592798 
        5.84339         8.82669        0.588723 
        5.85911         8.76346        0.584678 
        5.87484         8.69361        0.580672 
        5.89053         8.64093        0.576712 
        5.90623         8.57199        0.572786 
        5.92195          8.5303         0.56889 
        5.93767         8.47341        0.565033 
        5.95336         8.41209        0.561217 
        5.96905         8.34516        0.557439 
        5.98476          8.3095        0.553689 
        6.00048         8.24534        0.549973 
        6.01617         8.20336        0.546296 
        6.03185         8.13859        0.542658 
        6.04756          8.0712        0.539043 
        6.06331         8.03314        0.535454 
        6.07903          7.9783        0.531905 
        6.09473          7.9127        0.528391 
        6.11044         7.87654        0.524906 
        6.12616         7.81186        0.521453 
        6.14186         7.75247        0.518034 
        6.15755         7.69633        0.514646 
        6.17326         7.66357        0.511286 
        6.18898         7.61075        0.507954 
        6.20467         7.56006        0.504658 
        6.22036         7.50831        0.501391 
         6.2361         7.45728        0.498144 
         6.2518          7.4184        0.494932 
        6.26748         7.35428        0.491755 
        6.28319         7.31045        0.488596 
        6.29893         7.27176        0.485463 
        6.31463         7.22616        0.482363 
        6.33033         7.18422        0.479291 
        6.34604         7.13178        0.476243 
        6.36177         7.07502        0.473219 
        6.37747          7.0448        0.470226 
