# k  (h/Mpc)    Pcb(k)  (Mpc/h)^3    Pcb_linear(k) (Mpc/h)^3   ShotnoiseSubtracted = true
      0.0200456         291.924         295.689 
      0.0350414         216.738         214.956 
      0.0492313         156.828         156.183 
      0.0637834         129.155         129.833 
      0.0800726         102.298         103.046 
       0.096163          75.572         74.7685 
       0.111083         60.4439         59.6373 
       0.126058         52.6477         52.8508 
       0.142273         44.4909         44.7762 
       0.158546         35.4902         35.3638 
        0.17375         30.0922          29.794 
       0.188953         27.0261         26.9778 
       0.204907         23.5512         23.8698 
       0.220756         20.2371         20.1953 
        0.23588         17.6157         17.5682 
         0.2514         15.9902         15.9605 
       0.267535         14.4934         14.4415 
       0.283568          12.783         12.7355 
       0.299022         11.4151         11.3467 
       0.314451         10.5428         10.3701 
       0.330372         9.58876         9.51338 
       0.346141         8.70929         8.63485 
       0.361624         7.90285         7.84789 
       0.377134         7.24951          7.2213 
       0.392932         6.84151         6.68173 
       0.408854         6.20282         6.15926 
       0.424564         5.80703         5.67708 
       0.440253         5.33666         5.26331 
       0.455999         4.92482         4.90352 
       0.471626         4.59576         4.57288 
        0.48727         4.35177         4.26358 
       0.502856         4.07459         3.98573 
       0.518488         3.76391         3.73781 
       0.534347         3.51581         3.50733 
       0.550082         3.34971         3.29481 
       0.565732         3.18444         3.10039 
       0.581496         2.97829         2.92233 
       0.597222         2.80773         2.75902 
       0.612804         2.64871         2.60886 
       0.628434         2.51382          2.4689 
       0.644267          2.3919         2.33804 
       0.660051         2.26845         2.21744 
       0.675724         2.13872         2.10608 
       0.691403         2.03875         2.00227 
       0.707174         1.93883         1.90487 
       0.722871         1.88058         1.81434 
        0.73838         1.75889         1.73066 
       0.754018         1.67878         1.65163 
       0.769845         1.58959         1.57667 
        0.78569         1.53779         1.50631 
       0.801365         1.47352         1.44093 
       0.817031         1.41457          1.3795 
       0.832809          1.3434         1.32128 
       0.848511         1.29386         1.26669 
       0.864097         1.24732         1.21558 
       0.879701         1.20484         1.16725 
       0.895507          1.1421         1.12099 
       0.911279         1.10673         1.07735 
        0.92691         1.07274          1.0364 
       0.942635         1.01773        0.997368 
       0.958396        0.984228        0.960269 
       0.974128        0.949869        0.925133 
       0.989692        0.915059        0.892109 
        1.00528        0.878559        0.860656 
        1.02113        0.856564        0.830232 
        1.03692        0.829746        0.801398 
        1.05264        0.793011        0.774071 
        1.06832        0.769537        0.748066 
        1.08405        0.739566        0.723192 
        1.09979        0.719721        0.699438 
        1.11537        0.692353        0.676991 
        1.13105        0.666423        0.655399 
        1.14679        0.650836        0.634668 
        1.16256        0.631412        0.614798 
        1.17828        0.613741        0.595847 
        1.19395         0.59422        0.577761 
         1.2097        0.574319        0.560337 
        1.22537        0.555102        0.543718 
          1.241        0.540323        0.527826 
        1.25666        0.528124        0.512531 
        1.27241        0.510305        0.497773 
        1.28819        0.494026        0.483573 
        1.30392        0.482243        0.469971 
        1.31957        0.467819        0.456953 
        1.33529        0.455058        0.444383 
        1.35108        0.441581        0.432237 
        1.36674        0.429589        0.420633 
         1.3824        0.420424        0.409467 
        1.39811        0.406471        0.398671 
        1.41389        0.397909        0.388223 
        1.42964        0.387036        0.378169 
        1.44531        0.375989        0.368521 
        1.46101        0.365043         0.35919 
        1.47667        0.357236        0.350211 
        1.49229        0.347091        0.341563 
        1.50793        0.339915        0.333199 
        1.52367         0.32974        0.325061 
        1.53953         0.32137        0.317142 
        1.55526        0.314291         0.30955 
        1.57092        0.309407        0.302238 
        1.58662        0.301271        0.295146 
        1.60235        0.293695        0.288269 
        1.61809        0.285524        0.281607 
        1.63369        0.278345        0.275216 
        1.64941        0.273039        0.268978 
        1.66519        0.267451        0.262911 
        1.68085        0.259778        0.257074 
        1.69652        0.254574        0.251414 
        1.71228        0.248106        0.245892 
        1.72806        0.243633        0.240532 
        1.74368         0.23776        0.235386 
        1.75933         0.23316         0.23038 
        1.77505        0.228567        0.225497 
        1.79081        0.221917        0.220747 
         1.8065        0.218672        0.216155 
        1.82218        0.212531        0.211697 
        1.83797        0.207467        0.207335 
        1.85367        0.204164         0.20312 
        1.86928        0.199126        0.199048 
        1.88497        0.194942        0.195065 
        1.90073        0.191041        0.191177 
        1.91647        0.187974        0.187398 
        1.93218        0.184892         0.18373 
        1.94787        0.179576        0.180165 
        1.96363        0.176406        0.176681 
        1.97935        0.172722        0.173297 
        1.99499        0.169114         0.17002 
        2.01064        0.166113        0.166824 
         2.0264        0.163138        0.163689 
        2.04216         0.15911        0.160637 
        2.05781        0.156237        0.157682 
        2.07353         0.15365        0.154791 
        2.08928        0.151074        0.151967 
        2.10499        0.147426         0.14922 
        2.12065        0.144981         0.14655 
        2.13633         0.14232        0.143942 
        2.15211        0.139953        0.141382 
        2.16785        0.136737        0.138891 
        2.18349        0.134588        0.136475 
        2.19916        0.131546        0.134112 
        2.21489        0.129095        0.131797 
        2.23063        0.127076        0.129536 
         2.2463        0.125002        0.127337 
        2.26194        0.122836        0.125196 
        2.27765        0.120467        0.123092 
        2.29341        0.118078        0.121032 
        2.30914        0.115905        0.119022 
        2.32486        0.113935         0.11706 
        2.34061        0.111931        0.115139 
        2.35635        0.110074        0.113262 
        2.37203        0.109134        0.111434 
        2.38768        0.106607         0.10965 
        2.40339        0.104821        0.107899 
        2.41914         0.10287        0.106182 
        2.43483        0.101432        0.104508 
         2.4505       0.0994268        0.102873 
        2.46622       0.0978583        0.101268 
        2.48195       0.0962692       0.0996968 
        2.49759       0.0948423       0.0981673 
        2.51328       0.0923809        0.096666 
        2.52906       0.0915367       0.0951866 
        2.54479        0.090004       0.0937437 
        2.56049       0.0882631       0.0923335 
        2.57618       0.0874218       0.0909535 
        2.59189       0.0854995       0.0895997 
        2.60758       0.0845668       0.0882756 
        2.62325       0.0829026       0.0869799 
        2.63898       0.0819742       0.0857057 
        2.65468       0.0802884       0.0844597 
        2.67044       0.0791477       0.0832331 
        2.68618       0.0778527       0.0820337 
        2.70184       0.0769629       0.0808628 
        2.71755       0.0755501       0.0797118 
        2.73329       0.0744065       0.0785815 
        2.74897       0.0733859       0.0774768 
        2.76462       0.0720144       0.0763957 
        2.78034       0.0711463       0.0753309 
        2.79607       0.0702251       0.0742852 
        2.81179       0.0688418       0.0732605 
        2.82749       0.0680785       0.0722564 
        2.84321       0.0669742         0.07127 
        2.85893       0.0658044       0.0703022 
        2.87462        0.065236       0.0693541 
        2.89033        0.064001       0.0684226 
        2.90605       0.0632293       0.0675075 
        2.92176        0.062481       0.0666095 
        2.93747       0.0613136       0.0657283 
        2.95318        0.060759       0.0648629 
        2.96891       0.0597792       0.0640127 
        2.98456       0.0589067       0.0631815 
        3.00023       0.0583139       0.0623638 
        3.01596        0.057107       0.0615581 
        3.03164       0.0564118       0.0607689 
        3.04738       0.0556883       0.0599912 
         3.0631       0.0546719       0.0592274 
        3.07883       0.0541492       0.0584769 
        3.09456       0.0535099       0.0577395 
        3.11026       0.0526357       0.0570159 
        3.12596       0.0522199       0.0563048 
        3.14163        0.051329       0.0556075 
        3.15734       0.0508637       0.0549204 
        3.17308       0.0500722       0.0542432 
        3.18879       0.0493872       0.0535793 
        3.20447       0.0486151       0.0529275 
         3.2202       0.0481396       0.0522845 
         3.2359         0.04761       0.0516533 
        3.25157       0.0469937       0.0510341 
        3.26729       0.0463295       0.0504231 
        3.28304       0.0459546       0.0498209 
        3.29877       0.0451928       0.0492294 
        3.31446       0.0445922       0.0486487 
        3.33014       0.0442651       0.0480779 
        3.34585       0.0435594       0.0475154 
        3.36158       0.0430751       0.0469611 
        3.37727       0.0424722       0.0464173 
        3.39294       0.0420949       0.0458827 
        3.40867       0.0416551       0.0453545 
        3.42439       0.0411727        0.044835 
        3.44008       0.0407358       0.0443246 
        3.45578       0.0403186       0.0438217 
        3.47153       0.0398793       0.0433256 
        3.48724        0.039336        0.042838 
        3.50292       0.0390752        0.042359 
        3.51859       0.0385451       0.0418876 
        3.53431       0.0380831       0.0414219 
        3.55007       0.0377421       0.0409621 
        3.56577       0.0373238       0.0405111 
        3.58146       0.0369421       0.0400671 
        3.59719       0.0364952       0.0396288 
        3.61292       0.0360444       0.0391971 
        3.62859       0.0357211       0.0387735 
        3.64429        0.035427       0.0383554 
        3.66003       0.0351375       0.0379421 
        3.67578       0.0348085       0.0375351 
        3.69146       0.0344938       0.0371355 
        3.70712       0.0341093       0.0367426 
        3.72284       0.0336697       0.0363538 
        3.73853        0.033533       0.0359713 
        3.75422       0.0330429       0.0355942 
        3.76993         0.03279       0.0352222 
        3.78564       0.0324969       0.0348557 
        3.80137       0.0322697       0.0344937 
        3.81707       0.0318601       0.0341377 
        3.83279       0.0315782       0.0337864 
        3.84853       0.0313079       0.0334394 
        3.86424       0.0311545       0.0330981 
        3.87992       0.0308686       0.0327619 
        3.89561       0.0304293       0.0324305 
        3.91134       0.0302365       0.0321029 
        3.92704       0.0299052       0.0317802 
        3.94273        0.029658       0.0314623 
        3.95845       0.0294184       0.0311482 
        3.97418       0.0291169       0.0308383 
        3.98988       0.0287372        0.030533 
        4.00554       0.0285803       0.0302327 
        4.02125        0.028215       0.0299355 
        4.03698        0.027799       0.0296419 
        4.05268       0.0275612       0.0293529 
        4.06839       0.0271157       0.0290675 
         4.0841        0.026694       0.0287861 
        4.09983       0.0262887       0.0285079 
        4.11555       0.0259475       0.0282335 
        4.13124       0.0255521       0.0279635 
        4.14693       0.0252416       0.0276968 
        4.16266       0.0248402        0.027433 
        4.17839       0.0245584       0.0271727 
        4.19408       0.0242537       0.0269164 
        4.20977       0.0239332       0.0266633 
        4.22551       0.0236545       0.0264129 
        4.24123       0.0233585       0.0261659 
        4.25691       0.0231423       0.0259227 
        4.27259       0.0228982       0.0256826 
        4.28831       0.0226768        0.025445 
        4.30404       0.0223885       0.0252102 
        4.31974       0.0221889       0.0249789 
        4.33543       0.0219527       0.0247506 
        4.35116       0.0217328       0.0245246 
        4.36688       0.0216202       0.0243015 
        4.38255       0.0213606        0.024082 
        4.39825       0.0213039       0.0238648 
        4.41398       0.0211223       0.0236498 
         4.4297       0.0209925       0.0234376 
        4.44541       0.0208104       0.0232282 
        4.46111       0.0206496       0.0230214 
        4.47683        0.020629        0.022817 
        4.49251       0.0204964       0.0226155 
        4.50819        0.020419       0.0224164 
         4.5239       0.0203021       0.0222195 
        4.53962       0.0202576       0.0220247 
        4.55535       0.0202064       0.0218322 
        4.57106       0.0201947       0.0216422 
        4.58678       0.0200596       0.0214544 
         4.6025       0.0200029       0.0212689 
        4.61821       0.0200586       0.0210855 
        4.63391       0.0200158       0.0209046 
         4.6496       0.0199718       0.0207258 
        4.66532        0.019944       0.0205489 
        4.68103       0.0200881       0.0203741 
        4.69673       0.0200274       0.0202015 
        4.71241       0.0200955        0.020031 
        4.72811       0.0200495       0.0198623 
        4.74384       0.0201113       0.0196952 
        4.75955       0.0202263       0.0195304 
        4.77525       0.0203001       0.0193675 
        4.79096       0.0203616       0.0192063 
        4.80669       0.0204802       0.0190469 
         4.8224       0.0205634       0.0188894 
        4.83809       0.0206354       0.0187339 
        4.85379       0.0208578         0.01858 
         4.8695       0.0209415       0.0184277 
        4.88521       0.0210567       0.0182772 
        4.90093        0.021191       0.0181284 
        4.91663       0.0213485       0.0179813 
        4.93234       0.0215252       0.0178358 
        4.94807       0.0217276       0.0176917 
        4.96377       0.0218761       0.0175495 
        4.97943       0.0222227       0.0174092 
        4.99514       0.0222822         0.01727 
        5.01086       0.0225557       0.0171323 
        5.02654       0.0227667       0.0169964 
        5.04227       0.0230044       0.0168615 
          5.058       0.0232453       0.0167281 
        5.07371       0.0234644       0.0165964 
        5.08942       0.0237767        0.016466 
        5.10513       0.0240956       0.0163371 
        5.12084       0.0243994       0.0162095 
        5.13656       0.0247935       0.0160832 
        5.15225       0.0250672       0.0159586 
        5.16796       0.0254049        0.015835 
        5.18369       0.0257559       0.0157126 
         5.1994       0.0261289       0.0155918 
        5.21509        0.026589       0.0154723 
        5.23079        0.026883        0.015354 
        5.24649       0.0273463       0.0152369 
        5.26217       0.0277211       0.0151212 
        5.27788       0.0282523       0.0150065 
        5.29359       0.0285971        0.014893 
        5.30933       0.0291269       0.0147805 
        5.32504       0.0296181       0.0146693 
        5.34073         0.03017       0.0145594 
        5.35646        0.030578       0.0144504 
        5.37218       0.0311193       0.0143425 
        5.38789        0.031569       0.0142359 
        5.40357       0.0323435       0.0141305 
        5.41929       0.0329912       0.0140259 
        5.43502       0.0334679       0.0139223 
         5.4507       0.0341087       0.0138201 
        5.46639       0.0347327       0.0137188 
        5.48212       0.0353918       0.0136184 
        5.49786       0.0361454       0.0135188 
        5.51353        0.037043       0.0134207 
        5.52921        0.037412       0.0133235 
        5.54495       0.0383463        0.013227 
        5.56066       0.0392095       0.0131315 
        5.57637       0.0400607        0.013037 
        5.59207       0.0407632       0.0129435 
        5.60778       0.0414005       0.0128508 
        5.62346       0.0424129       0.0127593 
        5.63916       0.0433441       0.0126685 
        5.65487       0.0441704       0.0125785 
         5.6706       0.0450162       0.0124893 
        5.68633       0.0458896        0.012401 
        5.70203       0.0470538       0.0123137 
        5.71773       0.0483285       0.0122272 
        5.73344       0.0492684       0.0121415 
        5.74916       0.0504855       0.0120566 
        5.76486       0.0517125       0.0119726 
        5.78054       0.0532584       0.0118895 
        5.79626       0.0537853        0.011807 
          5.812        0.055438       0.0117252 
         5.8277       0.0564244       0.0116443 
        5.84339       0.0578752       0.0115643 
        5.85911       0.0591181       0.0114848 
        5.87484       0.0602988       0.0114062 
        5.89053       0.0622515       0.0113284 
        5.90623       0.0634394       0.0112512 
        5.92195       0.0649361       0.0111747 
        5.93767       0.0668326       0.0110989 
        5.95336       0.0676191        0.011024 
        5.96905       0.0696807       0.0109498 
        5.98476       0.0708565       0.0108761 
        6.00048       0.0729938       0.0108031 
        6.01617       0.0750741       0.0107309 
        6.03185       0.0766183       0.0106594 
        6.04756       0.0786041       0.0105884 
        6.06331       0.0810817       0.0105179 
        6.07903       0.0824939       0.0104482 
        6.09473       0.0843066       0.0103792 
        6.11044       0.0867941       0.0103107 
        6.12616       0.0887721       0.0102429 
        6.14186         0.09119       0.0101757 
        6.15755       0.0934045       0.0101092 
        6.17326       0.0957451       0.0100432 
        6.18898       0.0987095      0.00997775 
        6.20467        0.100631        0.009913 
        6.22036        0.104211      0.00984883 
         6.2361        0.106235      0.00978506 
         6.2518        0.108975      0.00972195 
        6.26748        0.110573      0.00965954 
        6.28319        0.114353      0.00959751 
        6.29893         0.11711      0.00953596 
        6.31463        0.120482      0.00947506 
        6.33033        0.123422      0.00941471 
        6.34604        0.126989      0.00935484 
        6.36177        0.129689      0.00929544 
        6.37747        0.132652      0.00923666 
