# k  (h/Mpc)    Pcb(k)  (Mpc/h)^3    Pcb_linear(k) (Mpc/h)^3   ShotnoiseSubtracted = true
      0.0200456         12607.3           12799 
      0.0350414         9556.15         9304.43 
      0.0492313         6688.57         6760.42 
      0.0637834         5409.55         5619.88 
      0.0800726         4259.94         4460.36 
       0.096163         3349.81         3236.38 
       0.111083         2723.01         2581.42 
       0.126058         2267.23         2287.66 
       0.142273         1958.45         1938.15 
       0.158546         1608.37         1530.73 
        0.17375         1409.79         1289.64 
       0.188953         1309.02         1167.74 
       0.204907         1118.94         1033.21 
       0.220756         1003.73         874.161 
        0.23588         892.523         760.444 
         0.2514         799.585         690.856 
       0.267535         775.567         625.106 
       0.283568         678.693          551.26 
       0.299022         647.365         491.144 
       0.314451          656.28         448.872 
       0.330372         564.376          411.79 
       0.346141         522.677         373.762 
       0.361624         499.644         339.698 
       0.377134         468.662         312.576 
       0.392932         454.005         289.221 
       0.408854         431.952         266.606 
       0.424564         417.867         245.734 
       0.440253         378.636         227.824 
       0.455999         362.586          212.25 
       0.471626          364.66         197.939 
        0.48727         345.662         184.551 
       0.502856         318.021         172.523 
       0.518488         319.027         161.792 
       0.534347         296.724         151.816 
       0.550082         287.684         142.617 
       0.565732         286.113         134.201 
       0.581496         272.266         126.494 
       0.597222         264.837         119.425 
       0.612804          257.79         112.925 
       0.628434         248.226         106.867 
       0.644267         237.492         101.203 
       0.660051         233.623         95.9825 
       0.675724         230.878         91.1622 
       0.691403         224.711         86.6688 
       0.707174         216.826         82.4529 
       0.722871         213.531         78.5343 
        0.73838         211.603         74.9122 
       0.754018         200.699         71.4913 
       0.769845         200.548         68.2468 
        0.78569         195.413         65.2009 
       0.801365         190.017         62.3712 
       0.817031         185.829         59.7121 
       0.832809         182.796         57.1919 
       0.848511         178.309         54.8291 
       0.864097         174.407         52.6167 
       0.879701         173.222         50.5248 
       0.895507         169.019         48.5226 
       0.911279         164.135         46.6335 
        0.92691         161.792          44.861 
       0.942635         159.713         43.1714 
       0.958396         156.683         41.5655 
       0.974128         153.597         40.0447 
       0.989692          149.33         38.6152 
        1.00528         148.311         37.2538 
        1.02113         144.844         35.9369 
        1.03692         143.114         34.6887 
        1.05264         141.187         33.5059 
        1.06832         138.801         32.3803 
        1.08405         136.205         31.3036 
        1.09979         135.391         30.2754 
        1.11537         132.239         29.3038 
        1.13105         130.832         28.3691 
        1.14679         128.687         27.4718 
        1.16256         126.473         26.6117 
        1.17828         125.108         25.7914 
        1.19395         122.127         25.0086 
         1.2097         121.331         24.2544 
        1.22537         119.187          23.535 
          1.241         117.864         22.8471 
        1.25666         114.973         22.1851 
        1.27241         112.871         21.5463 
        1.28819         112.367         20.9316 
        1.30392         110.336         20.3428 
        1.31957          108.59         19.7794 
        1.33529         107.419         19.2352 
        1.35108         106.466         18.7095 
        1.36674         104.411         18.2072 
         1.3824          104.09         17.7239 
        1.39811         101.421         17.2566 
        1.41389         100.556         16.8044 
        1.42964         98.5254         16.3692 
        1.44531         97.7869         15.9516 
        1.46101         96.3372         15.5477 
        1.47667          95.765          15.159 
        1.49229         94.7196         14.7847 
        1.50793         92.9057         14.4226 
        1.52367         92.0774         14.0704 
        1.53953         90.9318         13.7276 
        1.55526         89.5166          13.399 
        1.57092         89.0786         13.0825 
        1.58662         87.8034         12.7755 
        1.60235         86.3692         12.4778 
        1.61809         85.5978         12.1895 
        1.63369         84.1581         11.9128 
        1.64941         84.1897         11.6428 
        1.66519          82.336         11.3802 
        1.68085         81.3646         11.1275 
        1.69652         80.0096         10.8825 
        1.71228         79.1848         10.6435 
        1.72806         78.7216         10.4115 
        1.74368         77.3732         10.1888 
        1.75933         76.7075         9.97209 
        1.77505         76.0372         9.76072 
        1.79081         74.6821         9.55512 
         1.8065         74.3738         9.35633 
        1.82218         72.8195         9.16338 
        1.83797         72.4837         8.97456 
        1.85367         71.2616         8.79211 
        1.86928          70.614         8.61584 
        1.88497         69.9381         8.44345 
        1.90073         69.0422         8.27515 
        1.91647         68.0952         8.11159 
        1.93218         67.4398         7.95281 
        1.94787         66.5692         7.79851 
        1.96363         65.7637         7.64771 
        1.97935         65.1083         7.50121 
        1.99499         64.4185         7.35938 
        2.01064         63.7245         7.22102 
         2.0264         62.8839         7.08535 
        2.04216         62.1797         6.95324 
        2.05781         61.4623         6.82533 
        2.07353         60.7683         6.70019 
        2.08928         60.0691         6.57792 
        2.10499         59.4387         6.45903 
        2.12065         58.9092         6.34344 
        2.13633         58.3916         6.23059 
        2.15211         57.5149         6.11975 
        2.16785         56.6551         6.01192 
        2.18349         56.1621         5.90737 
        2.19916         55.4815         5.80509 
        2.21489         55.0726         5.70489 
        2.23063         54.2684           5.607 
         2.2463         53.8105         5.51184 
        2.26194         53.4936         5.41913 
        2.27765         52.6209         5.32808 
        2.29341         51.9546         5.23889 
        2.30914         51.3581         5.15192 
        2.32486         50.7731         5.06698 
        2.34061         50.4618         4.98381 
        2.35635         49.6282         4.90259 
        2.37203         49.2345         4.82346 
        2.38768         48.8267         4.74624 
        2.40339         48.2941         4.67044 
        2.41914         47.7769         4.59611 
        2.43483         47.0355         4.52367 
         2.4505         46.7912         4.45291 
        2.46622         46.2835         4.38342 
        2.48195         45.6782         4.31541 
        2.49759         45.1672          4.2492 
        2.51328         44.8462         4.18422 
        2.52906         44.2712         4.12018 
        2.54479         43.9342         4.05772 
        2.56049         43.1515         3.99668 
        2.57618         42.9118         3.93695 
        2.59189         42.4634         3.87835 
        2.60758          41.845         3.82104 
        2.62325         41.6902         3.76495 
        2.63898         41.1608          3.7098 
        2.65468         40.7879         3.65586 
        2.67044         40.4521         3.60277 
        2.68618         40.0633         3.55086 
        2.70184         39.3975         3.50017 
        2.71755         39.1941         3.45035 
        2.73329         38.5568         3.40142 
        2.74897         38.3639         3.35361 
        2.76462         37.8175         3.30681 
        2.78034         37.5522         3.26072 
        2.79607         37.0595         3.21546 
        2.81179         36.7391         3.17111 
        2.82749         36.3443         3.12764 
        2.84321         35.9074         3.08494 
        2.85893         35.5637         3.04305 
        2.87462         35.2131         3.00201 
        2.89033         34.9677          2.9617 
        2.90605         34.5585         2.92208 
        2.92176         34.3581         2.88321 
        2.93747         34.0125         2.84507 
        2.95318         33.5911         2.80761 
        2.96891         33.2505         2.77081 
        2.98456         32.9862         2.73483 
        3.00023          32.586         2.69944 
        3.01596         32.3142         2.66456 
        3.03164         31.9431          2.6304 
        3.04738         31.7277         2.59674 
         3.0631         31.4645         2.56368 
        3.07883         31.0149         2.53119 
        3.09456         30.6368         2.49927 
        3.11026         30.3818         2.46795 
        3.12596         30.1035         2.43717 
        3.14163         29.8126         2.40699 
        3.15734         29.5229         2.37725 
        3.17308         29.1981         2.34794 
        3.18879         28.9415          2.3192 
        3.20447         28.7002         2.29098 
         3.2202         28.3562         2.26315 
         3.2359          28.077         2.23583 
        3.25157         27.9061         2.20903 
        3.26729         27.6176         2.18258 
        3.28304         27.2235         2.15651 
        3.29877         26.9591         2.13091 
        3.31446         26.7346         2.10577 
        3.33014         26.5484         2.08107 
        3.34585         26.2649         2.05672 
        3.36158         26.0603         2.03273 
        3.37727         25.7459         2.00919 
        3.39294         25.5208         1.98605 
        3.40867          25.283         1.96318 
        3.42439         25.0831          1.9407 
        3.44008         24.8058          1.9186 
        3.45578         24.7006         1.89684 
        3.47153         24.3408         1.87536 
        3.48724         24.1284         1.85425 
        3.50292         23.9135         1.83352 
        3.51859         23.6914         1.81312 
        3.53431         23.4821         1.79296 
        3.55007         23.2488         1.77306 
        3.56577         23.0697         1.75354 
        3.58146         22.8613         1.73432 
        3.59719         22.6127         1.71534 
        3.61292         22.4166         1.69666 
        3.62859         22.1999         1.67832 
        3.64429         21.9476         1.66022 
        3.66003         21.8685         1.64234 
        3.67578         21.6492         1.62472 
        3.69146         21.3937         1.60742 
        3.70712         21.2635         1.59041 
        3.72284         21.0376         1.57359 
        3.73853         20.8702         1.55703 
        3.75422           20.61         1.54071 
        3.76993          20.481          1.5246 
        3.78564         20.2978         1.50874 
        3.80137         20.1271         1.49307 
        3.81707          19.963         1.47766 
        3.83279         19.7526         1.46245 
        3.84853         19.5648         1.44744 
        3.86424         19.3911         1.43266 
        3.87992         19.2064         1.41811 
        3.89561         19.0948         1.40376 
        3.91134         18.8401         1.38958 
        3.92704          18.727         1.37562 
        3.94273         18.5478         1.36186 
        3.95845         18.3983         1.34826 
        3.97418         18.2043         1.33484 
        3.98988          18.058         1.32163 
        4.00554         17.9815         1.30863 
        4.02125         17.7219         1.29577 
        4.03698         17.5475         1.28306 
        4.05268         17.4602         1.27055 
        4.06839         17.3261          1.2582 
         4.0841         17.1372         1.24601 
        4.09983         16.9756         1.23397 
        4.11555         16.8286          1.2221 
        4.13124         16.7351         1.21041 
        4.14693         16.6066         1.19886 
        4.16266         16.4722         1.18744 
        4.17839         16.2972         1.17618 
        4.19408         16.1413         1.16508 
        4.20977         16.0301         1.15413 
        4.22551         15.8843         1.14329 
        4.24123         15.7436          1.1326 
        4.25691         15.5607         1.12207 
        4.27259         15.5004         1.11168 
        4.28831         15.4116         1.10139 
        4.30404         15.2189         1.09123 
        4.31974         15.1317         1.08122 
        4.33543         14.9838         1.07134 
        4.35116         14.8339         1.06155 
        4.36688         14.7343          1.0519 
        4.38255         14.6157          1.0424 
        4.39825         14.4488         1.03299 
        4.41398         14.3877         1.02369 
         4.4297         14.2313         1.01451 
        4.44541         14.1171         1.00544 
        4.46111         14.0265        0.996488 
        4.47683         13.8922         0.98764 
        4.49251          13.781        0.978918 
        4.50819         13.6762        0.970303 
         4.5239         13.5631        0.961779 
        4.53962         13.4755        0.953348 
        4.55535         13.3426        0.945013 
        4.57106         13.2376         0.93679 
        4.58678         13.1451        0.928662 
         4.6025          13.046         0.92063 
        4.61821          12.928        0.912693 
        4.63391         12.8285        0.904861 
         4.6496         12.7129        0.897123 
        4.66532         12.6168        0.889464 
        4.68103         12.5072        0.881897 
        4.69673         12.3905        0.874426 
        4.71241         12.3317        0.867049 
        4.72811         12.2515        0.859744 
        4.74384         12.1219        0.852515 
        4.75955         12.0435        0.845379 
        4.77525         11.9412        0.838329 
        4.79096         11.8727        0.831351 
        4.80669         11.7842        0.824449 
         4.8224         11.6933        0.817633 
        4.83809         11.5952        0.810901 
        4.85379         11.4899        0.804241 
         4.8695         11.3877         0.79765 
        4.88521         11.3321        0.791136 
        4.90093         11.2619        0.784693 
        4.91663         11.1514        0.778328 
        4.93234         11.0518        0.772027 
        4.94807         10.9772        0.765791 
        4.96377         10.8955        0.759636 
        4.97943         10.8209        0.753561 
        4.99514         10.6863        0.747537 
        5.01086         10.6538        0.741575 
        5.02654         10.5779        0.735692 
        5.04227         10.4606        0.729856 
          5.058         10.4132        0.724081 
        5.07371         10.3227        0.718379 
        5.08942         10.2766        0.712738 
        5.10513         10.1708        0.707157 
        5.12084         10.1191        0.701632 
        5.13656         10.0279        0.696168 
        5.15225         9.93722        0.690771 
        5.16796         9.87474        0.685423 
        5.18369         9.81155        0.680127 
         5.1994          9.7261        0.674896 
        5.21509          9.6415        0.669724 
        5.23079         9.57185        0.664601 
        5.24649         9.50684        0.659535 
        5.26217         9.42507        0.654526 
        5.27788         9.39316        0.649562 
        5.29359         9.28738        0.644648 
        5.30933         9.25158        0.639777 
        5.32504         9.18226        0.634966 
        5.34073         9.11838        0.630209 
        5.35646         9.02946        0.625491 
        5.37218          8.9785         0.62082 
        5.38789         8.90298        0.616205 
        5.40357         8.82772        0.611642 
        5.41929          8.7988        0.607115 
        5.43502         8.72409        0.602633 
         5.4507         8.64918        0.598207 
        5.46639         8.59524        0.593825 
        5.48212         8.53767        0.589476 
        5.49786          8.4751        0.585166 
        5.51353         8.42358         0.58092 
        5.52921         8.36813        0.576712 
        5.54495          8.3075        0.572534 
        5.56066         8.22844        0.568401 
        5.57637         8.18986         0.56431 
        5.59207         8.12811        0.560262 
        5.60778         8.06999        0.556253 
        5.62346         8.00611        0.552288 
        5.63916         7.96055        0.548358 
        5.65487         7.91024        0.544465 
         5.6706         7.85007        0.540605 
        5.68633         7.79169         0.53678 
        5.70203         7.72455        0.533001 
        5.71773         7.68754        0.529258 
        5.73344          7.6368         0.52555 
        5.74916         7.58576        0.521873 
        5.76486         7.53557        0.518237 
        5.78054         7.48113        0.514641 
        5.79626         7.41773        0.511069 
          5.812         7.39567        0.507527 
         5.8277         7.32187        0.504029 
        5.84339         7.27366        0.500564 
        5.85911         7.21271        0.497125 
        5.87484         7.17859        0.493719 
        5.89053         7.13342        0.490351 
        5.90623         7.08455        0.487014 
        5.92195         7.03856        0.483701 
        5.93767          6.9821        0.480421 
        5.95336         6.93679        0.477177 
        5.96905         6.89634        0.473965 
        5.98476         6.84079        0.470777 
        6.00048         6.80112        0.467617 
        6.01617         6.75433        0.464491 
        6.03185         6.71041        0.461397 
        6.04756         6.66715        0.458323 
        6.06331         6.62721        0.455272 
        6.07903         6.57723        0.452254 
        6.09473         6.53994        0.449266 
        6.11044         6.50687        0.446303 
        6.12616         6.44297        0.443367 
        6.14186         6.41058         0.44046 
        6.15755         6.36889         0.43758 
        6.17326         6.32948        0.434723 
        6.18898         6.28496         0.43189 
        6.20467         6.24034        0.429087 
        6.22036         6.20426         0.42631 
         6.2361          6.1616        0.423549 
         6.2518         6.11496        0.420818 
        6.26748         6.09238        0.418116 
        6.28319         6.04518        0.415431 
        6.29893         6.01441        0.412767 
        6.31463         5.97021        0.410131 
        6.33033         5.93822        0.407519 
        6.34604         5.88917        0.404927 
        6.36177         5.85986        0.402356 
        6.37747         5.82168        0.399812 
