# k  (h/Mpc)    Pcb(k)  (Mpc/h)^3    Pcb_linear(k) (Mpc/h)^3   ShotnoiseSubtracted = true
      0.0200456         10363.8         10558.9 
      0.0350414         7458.06         7675.94 
      0.0492313         5533.92         5577.19 
      0.0637834         4725.75         4636.27 
      0.0800726         3740.36         3679.69 
       0.096163         2617.06         2669.94 
       0.111083         2080.84         2129.61 
       0.126058         1915.68         1887.27 
       0.142273         1654.11         1598.93 
       0.158546         1378.23         1262.82 
        0.17375         1107.36         1063.92 
       0.188953         1065.97          963.36 
       0.204907         1000.42         852.377 
       0.220756         848.549         721.163 
        0.23588         746.215         627.349 
         0.2514         652.659          569.94 
       0.267535         633.341         515.698 
       0.283568         574.073         454.776 
       0.299022         534.193         405.182 
       0.314451         499.972         370.309 
       0.330372         461.424         339.717 
       0.346141         417.932         308.345 
       0.361624         401.548         280.243 
       0.377134         374.046         257.868 
       0.392932         352.793           238.6 
       0.408854         338.366         219.943 
       0.424564         322.328         202.725 
       0.440253         310.072         187.949 
       0.455999         291.728         175.102 
       0.471626         271.514         163.295 
        0.48727         263.684          152.25 
       0.502856         254.604         142.328 
       0.518488         251.171         133.475 
       0.534347         236.889         125.244 
       0.550082         222.054         117.656 
       0.565732         217.959         110.713 
       0.581496         207.158         104.355 
       0.597222         201.842          98.523 
       0.612804         194.273         93.1608 
       0.628434         188.048         88.1627 
       0.644267         181.828           83.49 
       0.660051         179.617         79.1833 
       0.675724         175.344         75.2067 
       0.691403         170.227         71.4997 
       0.707174         163.001         68.0217 
       0.722871         161.597          64.789 
        0.73838          158.05         61.8008 
       0.754018         152.915         58.9786 
       0.769845         148.878          56.302 
        0.78569         146.449         53.7892 
       0.801365         142.292         51.4548 
       0.817031         137.482         49.2611 
       0.832809         135.566          47.182 
       0.848511         132.076         45.2327 
       0.864097         129.486         43.4075 
       0.879701         126.924         41.6818 
       0.895507         123.822           40.03 
       0.911279         121.687         38.4715 
        0.92691         120.089         37.0093 
       0.942635         117.102         35.6154 
       0.958396          116.79         34.2906 
       0.974128         113.496         33.0359 
       0.989692         110.718         31.8567 
        1.00528          108.55         30.7335 
        1.02113         107.765         29.6471 
        1.03692          103.72         28.6174 
        1.05264          103.44         27.6416 
        1.06832         100.898          26.713 
        1.08405          99.582         25.8247 
        1.09979         99.0451         24.9765 
        1.11537         95.7015         24.1749 
        1.13105         95.6439         23.4039 
        1.14679         94.3929         22.6636 
        1.16256         93.0313         21.9541 
        1.17828         90.5879         21.2773 
        1.19395         89.6212         20.6315 
         1.2097         87.4765         20.0093 
        1.22537         87.6608         19.4158 
          1.241         85.5595         18.8483 
        1.25666         83.8551         18.3022 
        1.27241         82.8759         17.7752 
        1.28819         81.5451         17.2681 
        1.30392          80.567         16.7824 
        1.31957          79.445         16.3175 
        1.33529          78.072         15.8686 
        1.35108         77.4385         15.4349 
        1.36674         76.5104         15.0205 
         1.3824         75.0752         14.6218 
        1.39811         74.3257         14.2363 
        1.41389         73.2133         13.8632 
        1.42964         72.4143         13.5042 
        1.44531         70.9357         13.1597 
        1.46101           70.01         12.8265 
        1.47667         69.9094         12.5058 
        1.49229         68.5508          12.197 
        1.50793         68.0568         11.8983 
        1.52367         66.9175         11.6077 
        1.53953          66.048         11.3249 
        1.55526         65.3967         11.0538 
        1.57092         65.1671         10.7927 
        1.58662         63.8208         10.5395 
        1.60235         63.3133         10.2939 
        1.61809         62.4593          10.056 
        1.63369         61.4582         9.82778 
        1.64941         60.8969         9.60502 
        1.66519         59.8102         9.38837 
        1.68085         59.3807         9.17997 
        1.69652         58.4277         8.97783 
        1.71228         58.0705         8.78065 
        1.72806         57.5214         8.58925 
        1.74368          56.705         8.40549 
        1.75933         56.1187         8.22674 
        1.77505         55.5205         8.05237 
        1.79081         54.8296         7.88275 
         1.8065         54.3571         7.71875 
        1.82218          53.586         7.55957 
        1.83797         52.9845          7.4038 
        1.85367         52.3637         7.25329 
        1.86928         51.8365         7.10787 
        1.88497         51.3221         6.96565 
        1.90073         50.7101          6.8268 
        1.91647         50.2871         6.69187 
        1.93218          49.673         6.56088 
        1.94787         49.1879         6.43359 
        1.96363         48.5378         6.30918 
        1.97935         48.0884         6.18832 
        1.99499         47.4495         6.07132 
        2.01064         47.2507         5.95717 
         2.0264          46.195         5.84525 
        2.04216         45.9466         5.73626 
        2.05781         45.3405         5.63074 
        2.07353          44.904          5.5275 
        2.08928         44.4622         5.42663 
        2.10499         44.0205         5.32855 
        2.12065          43.503         5.23319 
        2.13633         43.3436         5.14009 
        2.15211         42.8257         5.04865 
        2.16785          42.001         4.95969 
        2.18349         41.7868         4.87344 
        2.19916          41.436         4.78906 
        2.21489         40.9368          4.7064 
        2.23063         40.3712         4.62564 
         2.2463         39.9415         4.54714 
        2.26194         39.4408         4.47066 
        2.27765         39.0495         4.39554 
        2.29341         38.6341         4.32196 
        2.30914         38.2413         4.25022 
        2.32486         37.7605         4.18014 
        2.34061         37.4891         4.11153 
        2.35635         37.1182         4.04452 
        2.37203         36.7283         3.97924 
        2.38768         36.3271         3.91554 
        2.40339          36.139           3.853 
        2.41914         35.7827         3.79168 
        2.43483         35.1542         3.73192 
         2.4505         34.9415         3.67354 
        2.46622         34.6326         3.61622 
        2.48195         34.3436         3.56011 
        2.49759         33.8988         3.50549 
        2.51328         33.4556         3.45188 
        2.52906         33.3015         3.39905 
        2.54479         32.7757         3.34753 
        2.56049         32.5239         3.29717 
        2.57618         32.1833         3.24789 
        2.59189         31.9758         3.19955 
        2.60758         31.7078         3.15227 
        2.62325         31.2417           3.106 
        2.63898         31.0466          3.0605 
        2.65468         30.6525           3.016 
        2.67044         30.4012          2.9722 
        2.68618         30.0968         2.92937 
        2.70184         29.7477         2.88756 
        2.71755         29.6265         2.84646 
        2.73329         29.2697          2.8061 
        2.74897         28.9326         2.76665 
        2.76462         28.6079         2.72804 
        2.78034         28.4971         2.69002 
        2.79607         28.1666         2.65268 
        2.81179         27.9298         2.61609 
        2.82749         27.6742         2.58023 
        2.84321          27.216         2.54501 
        2.85893          27.026         2.51045 
        2.87462         26.7882         2.47659 
        2.89033         26.5454         2.44333 
        2.90605         26.3685         2.41065 
        2.92176         26.2125         2.37858 
        2.93747         25.8552         2.34712 
        2.95318          25.488         2.31621 
        2.96891         25.3748         2.28585 
        2.98456         25.0278         2.25617 
        3.00023         24.8248         2.22697 
        3.01596         24.5636          2.1982 
        3.03164         24.3471         2.17002 
        3.04738           24.19         2.14225 
         3.0631         23.9441         2.11497 
        3.07883         23.7414         2.08817 
        3.09456         23.4399         2.06184 
        3.11026          23.241           2.036 
        3.12596         23.0637         2.01061 
        3.14163         22.8802         1.98571 
        3.15734         22.6726         1.96117 
        3.17308         22.4643         1.93699 
        3.18879         22.2504         1.91328 
        3.20447         22.0376         1.89001 
         3.2202         21.8336         1.86705 
         3.2359         21.5626         1.84451 
        3.25157          21.569         1.82239 
        3.26729          21.281         1.80058 
        3.28304         21.0923         1.77907 
        3.29877         20.7797         1.75795 
        3.31446         20.6681         1.73722 
        3.33014         20.4639         1.71683 
        3.34585          20.284         1.69675 
        3.36158         20.1148         1.67695 
        3.37727         19.8972         1.65753 
        3.39294         19.7506         1.63844 
        3.40867         19.5712         1.61958 
        3.42439         19.4138         1.60103 
        3.44008         19.2196          1.5828 
        3.45578         19.0246         1.56485 
        3.47153         18.8586         1.54713 
        3.48724          18.689         1.52972 
        3.50292         18.5773         1.51261 
        3.51859         18.3703         1.49578 
        3.53431         18.1944         1.47915 
        3.55007         18.0434         1.46273 
        3.56577          17.849         1.44663 
        3.58146          17.744         1.43077 
        3.59719         17.5713         1.41512 
        3.61292         17.4076          1.3997 
        3.62859         17.2776         1.38458 
        3.64429         17.1155         1.36965 
        3.66003         16.9767         1.35489 
        3.67578         16.8093         1.34035 
        3.69146         16.7117         1.32609 
        3.70712         16.5051         1.31205 
        3.72284         16.4726         1.29817 
        3.73853         16.2687         1.28451 
        3.75422         16.0495         1.27105 
        3.76993          15.963         1.25776 
        3.78564          15.818         1.24467 
        3.80137         15.6618         1.23175 
        3.81707          15.536         1.21903 
        3.83279         15.4066         1.20649 
        3.84853         15.2581          1.1941 
        3.86424           15.17         1.18191 
        3.87992         15.0128         1.16991 
        3.89561         14.8676         1.15807 
        3.91134          14.764         1.14637 
        3.92704         14.6295         1.13485 
        3.94273         14.5328          1.1235 
        3.95845         14.3622         1.11228 
        3.97418         14.2971         1.10122 
        3.98988         14.1361         1.09031 
        4.00554         14.0539         1.07959 
        4.02125         13.9066         1.06898 
        4.03698         13.8379         1.05849 
        4.05268         13.6842         1.04817 
        4.06839         13.5512         1.03798 
         4.0841         13.4551         1.02793 
        4.09983         13.3049           1.018 
        4.11555         13.2142          1.0082 
        4.13124         13.1212        0.998559 
        4.14693          13.025        0.989035 
        4.16266         12.9069        0.979613 
        4.17839         12.7944         0.97032 
        4.19408         12.6886        0.961168 
        4.20977         12.5995         0.95213 
        4.22551         12.4733        0.943186 
        4.24123         12.3919        0.934367 
        4.25691         12.2681        0.925684 
        4.27259         12.1928        0.917109 
        4.28831          12.062        0.908625 
        4.30404         11.9773        0.900241 
        4.31974         11.8682         0.89198 
        4.33543         11.7849        0.883828 
        4.35116         11.6935        0.875758 
        4.36688         11.5774        0.867791 
        4.38255         11.4985        0.859954 
        4.39825         11.4223        0.852196 
        4.41398         11.3461        0.844518 
         4.4297          11.223        0.836943 
        4.44541         11.1108        0.829463 
        4.46111         11.0531        0.822079 
        4.47683         10.9661         0.81478 
        4.49251         10.8772        0.807584 
        4.50819         10.8021        0.800477 
         4.5239         10.7084        0.793446 
        4.53962         10.6393         0.78649 
        4.55535         10.5375        0.779614 
        4.57106         10.4397         0.77283 
        4.58678         10.3508        0.766125 
         4.6025         10.3003        0.759498 
        4.61821         10.1969        0.752951 
        4.63391         10.1048        0.746489 
         4.6496         10.0584        0.740105 
        4.66532         9.95714        0.733787 
        4.68103         9.89408        0.727545 
        4.69673         9.80511        0.721381 
        4.71241         9.72141        0.715295 
        4.72811         9.63124        0.709269 
        4.74384         9.60127        0.703305 
        4.75955         9.51732        0.697418 
        4.77525         9.42447        0.691602 
        4.79096         9.39314        0.685845 
        4.80669         9.29924        0.680151 
         4.8224         9.24206        0.674528 
        4.83809         9.16822        0.668974 
        4.85379          9.0905         0.66348 
         4.8695         9.03145        0.658043 
        4.88521         8.96014        0.652669 
        4.90093         8.87654        0.647354 
        4.91663         8.82578        0.642103 
        4.93234         8.78076        0.636904 
        4.94807          8.6722         0.63176 
        4.96377         8.61413        0.626682 
        4.97943         8.58034        0.621671 
        4.99514         8.51847        0.616701 
        5.01086         8.43263        0.611782 
        5.02654         8.37585        0.606929 
        5.04227         8.33784        0.602114 
          5.058          8.2435         0.59735 
        5.07371         8.19077        0.592646 
        5.08942         8.15138        0.587992 
        5.10513         8.07798        0.583388 
        5.12084          8.0112         0.57883 
        5.13656         7.97813        0.574323 
        5.15225         7.90733         0.56987 
        5.16796         7.85004        0.565458 
        5.18369          7.7898        0.561089 
         5.1994         7.69423        0.556773 
        5.21509          7.6784        0.552507 
        5.23079         7.61986         0.54828 
        5.24649         7.55937        0.544101 
        5.26217         7.49658        0.539969 
        5.27788         7.44891        0.535873 
        5.29359         7.40069        0.531819 
        5.30933         7.34803        0.527801 
        5.32504         7.29576        0.523832 
        5.34073         7.24896        0.519907 
        5.35646         7.18724        0.516015 
        5.37218         7.15952        0.512162 
        5.38789         7.08844        0.508355 
        5.40357         7.04835         0.50459 
        5.41929         6.98946        0.500855 
        5.43502          6.9439        0.497158 
         5.4507          6.9118        0.493507 
        5.46639          6.8595        0.489891 
        5.48212         6.80973        0.486304 
        5.49786         6.76769        0.482748 
        5.51353         6.69705        0.479246 
        5.52921         6.66884        0.475774 
        5.54495         6.61838        0.472327 
        5.56066         6.57383        0.468918 
        5.57637         6.50579        0.465542 
        5.59207         6.48666        0.462203 
        5.60778          6.4213        0.458896 
        5.62346         6.38753        0.455625 
        5.63916         6.35032        0.452383 
        5.65487         6.31039        0.449171 
         5.6706         6.25906        0.445986 
        5.68633         6.21886        0.442831 
        5.70203         6.17984        0.439713 
        5.71773         6.14208        0.436626 
        5.73344         6.09053        0.433566 
        5.74916         6.05779        0.430533 
        5.76486         6.02224        0.427533 
        5.78054         5.97973        0.424567 
        5.79626         5.93945         0.42162 
          5.812         5.88988        0.418698 
         5.8277         5.85659        0.415812 
        5.84339         5.81373        0.412954 
        5.85911         5.77938        0.410117 
        5.87484         5.74429        0.407307 
        5.89053         5.69793        0.404528 
        5.90623         5.66213        0.401775 
        5.92195          5.6184        0.399042 
        5.93767         5.58617        0.396336 
        5.95336         5.54545         0.39366 
        5.96905         5.53176         0.39101 
        5.98476         5.48942         0.38838 
        6.00048         5.44975        0.385773 
        6.01617         5.42284        0.383194 
        6.03185         5.38574        0.380642 
        6.04756         5.34874        0.378106 
        6.06331         5.30702        0.375589 
        6.07903          5.2786        0.373099 
        6.09473         5.24362        0.370634 
        6.11044          5.2053         0.36819 
        6.12616         5.18395        0.365768 
        6.14186         5.14701         0.36337 
        6.15755          5.1097        0.360993 
        6.17326         5.07927        0.358636 
        6.18898         5.04953        0.356299 
        6.20467         5.01874        0.353987 
        6.22036         4.97631        0.351696 
         6.2361         4.95548        0.349418 
         6.2518         4.91924        0.347165 
        6.26748          4.8928        0.344936 
        6.28319         4.86283        0.342721 
        6.29893         4.83509        0.340523 
        6.31463         4.80523        0.338348 
        6.33033           4.771        0.336193 
        6.34604          4.7455        0.334056 
        6.36177         4.71534        0.331934 
        6.37747         4.68055        0.329835 
