# k  (h/Mpc)    Pcb(k)  (Mpc/h)^3    Pcb_linear(k) (Mpc/h)^3   ShotnoiseSubtracted = true
      0.0200456         6538.93         6650.31 
      0.0350414         4733.89         4834.55 
      0.0492313         3502.01         3512.69 
      0.0637834         2970.93         2920.07 
      0.0800726         2353.81         2317.59 
       0.096163         1657.59         1681.61 
       0.111083         1315.29          1341.3 
       0.126058          1204.9         1188.66 
       0.142273         1037.49         1007.06 
       0.158546         847.498         795.364 
        0.17375         686.135         670.094 
       0.188953         651.863         606.755 
       0.204907         609.018         536.854 
       0.220756         511.422         454.211 
        0.23588         447.568         395.124 
         0.2514         394.591         358.966 
       0.267535          375.06         324.803 
       0.283568         339.206         286.433 
       0.299022         312.495         255.197 
       0.314451         286.625         233.232 
       0.330372         265.619         213.965 
       0.346141         239.157         194.205 
       0.361624         227.463         176.506 
       0.377134         213.478         162.414 
       0.392932         195.592         150.278 
       0.408854         187.642         138.527 
       0.424564         179.794         127.683 
       0.440253         169.133         118.377 
       0.455999         159.179         110.285 
       0.471626         147.164         102.848 
        0.48727         142.852         95.8918 
       0.502856         136.659         89.6426 
       0.518488         132.844         84.0666 
       0.534347          126.88         78.8829 
       0.550082          117.43         74.1033 
       0.565732         113.042         69.7306 
       0.581496         108.572         65.7258 
       0.597222         105.072         62.0529 
       0.612804         99.9519         58.6756 
       0.628434         97.7604         55.5277 
       0.644267         94.4689         52.5847 
       0.660051          92.029         49.8722 
       0.675724         88.7204         47.3675 
       0.691403         86.0526         45.0328 
       0.707174         82.9887         42.8423 
       0.722871          81.155         40.8061 
        0.73838            79.4         38.9241 
       0.754018         75.5229         37.1466 
       0.769845         74.0451         35.4608 
        0.78569         72.1728         33.8782 
       0.801365         69.7903         32.4079 
       0.817031         67.6755         31.0262 
       0.832809          66.865         29.7167 
       0.848511         63.9172          28.489 
       0.864097         62.3959         27.3395 
       0.879701         61.5564         26.2525 
       0.895507         60.5036         25.2122 
       0.911279         59.1801         24.2306 
        0.92691         57.6563         23.3096 
       0.942635         55.7489         22.4317 
       0.958396         55.5299         21.5973 
       0.974128         54.0605         20.8071 
       0.989692         53.0244         20.0643 
        1.00528         51.9429         19.3569 
        1.02113         50.5747         18.6727 
        1.03692         49.4459         18.0242 
        1.05264         49.0405         17.4095 
        1.06832         47.7561         16.8247 
        1.08405         47.1741         16.2652 
        1.09979           46.47          15.731 
        1.11537         44.7627         15.2261 
        1.13105         45.0456         14.7405 
        1.14679         44.1517         14.2743 
        1.16256         43.1981         13.8274 
        1.17828         42.2273         13.4011 
        1.19395         41.6941         12.9944 
         1.2097         41.0994         12.6025 
        1.22537         40.7644         12.2287 
          1.241         39.7376         11.8713 
        1.25666         38.8881         11.5273 
        1.27241         38.6202         11.1954 
        1.28819         37.5766          10.876 
        1.30392         37.1452         10.5701 
        1.31957         36.9065         10.2773 
        1.33529         36.5202         9.99456 
        1.35108         35.9106         9.72139 
        1.36674         35.2623         9.46041 
         1.3824         34.4699         9.20928 
        1.39811         34.3899         8.96646 
        1.41389         33.8639         8.73149 
        1.42964         33.2633         8.50537 
        1.44531         32.9888         8.28837 
        1.46101            32.2         8.07851 
        1.47667         32.0826         7.87656 
        1.49229         31.7788         7.68207 
        1.50793           31.23         7.49394 
        1.52367         30.9299         7.31092 
        1.53953         30.6699          7.1328 
        1.55526         30.0446         6.96206 
        1.57092         29.7242         6.79761 
        1.58662         29.3425         6.63811 
        1.60235         29.0492         6.48342 
        1.61809         28.6482          6.3336 
        1.63369         28.3191         6.18985 
        1.64941         27.8421         6.04955 
        1.66519          27.675          5.9131 
        1.68085         27.3089         5.78183 
        1.69652         27.0083         5.65452 
        1.71228         26.7928         5.53033 
        1.72806         26.3567         5.40978 
        1.74368         26.0162         5.29404 
        1.75933         25.7445         5.18146 
        1.77505         25.6043         5.07164 
        1.79081         25.1833         4.96481 
         1.8065         24.9994         4.86152 
        1.82218          24.732         4.76126 
        1.83797         24.3737         4.66315 
        1.85367         24.1101         4.56835 
        1.86928         23.8847         4.47676 
        1.88497         23.5091         4.38719 
        1.90073         23.5422         4.29974 
        1.91647         23.1237         4.21475 
        1.93218         22.9395         4.13225 
        1.94787         22.7454         4.05208 
        1.96363         22.5615         3.97372 
        1.97935         22.3076          3.8976 
        1.99499         22.0375         3.82391 
        2.01064         21.8865         3.75202 
         2.0264          21.506         3.68152 
        2.04216         21.3506         3.61288 
        2.05781          21.128         3.54642 
        2.07353         20.9354          3.4814 
        2.08928         20.8601         3.41787 
        2.10499         20.5705         3.35609 
        2.12065         20.2376         3.29603 
        2.13633         20.2055         3.23739 
        2.15211         19.8401          3.1798 
        2.16785         19.7815         3.12377 
        2.18349         19.5906         3.06945 
        2.19916         19.3872          3.0163 
        2.21489         19.1841         2.96424 
        2.23063         19.0285         2.91338 
         2.2463         18.8599         2.86393 
        2.26194         18.7434         2.81576 
        2.27765          18.468         2.76845 
        2.29341         18.2544         2.72211 
        2.30914         18.1561         2.67692 
        2.32486         18.0383         2.63279 
        2.34061         17.8343         2.58957 
        2.35635         17.5847         2.54737 
        2.37203         17.5038         2.50625 
        2.38768         17.3624         2.46613 
        2.40339         17.1519         2.42674 
        2.41914          17.001         2.38812 
        2.43483         16.8581         2.35048 
         2.4505         16.6682         2.31371 
        2.46622         16.5473         2.27761 
        2.48195          16.375         2.24227 
        2.49759          16.246         2.20787 
        2.51328         16.0959         2.17411 
        2.52906         15.9885         2.14083 
        2.54479         15.8355         2.10838 
        2.56049         15.7093         2.07666 
        2.57618         15.5994         2.04563 
        2.59189         15.4374         2.01518 
        2.60758         15.3155          1.9854 
        2.62325         15.2075         1.95626 
        2.63898          15.029          1.9276 
        2.65468         14.9532         1.89957 
        2.67044         14.7711         1.87199 
        2.68618         14.6782         1.84501 
        2.70184         14.5415         1.81868 
        2.71755         14.3853         1.79279 
        2.73329         14.2901         1.76737 
        2.74897         14.1415         1.74252 
        2.76462         14.1401         1.71821 
        2.78034         13.9115         1.69426 
        2.79607         13.7908         1.67074 
        2.81179         13.6776          1.6477 
        2.82749         13.5857         1.62511 
        2.84321         13.4337         1.60293 
        2.85893         13.3526         1.58116 
        2.87462         13.2496         1.55984 
        2.89033         13.0763         1.53889 
        2.90605         13.0076          1.5183 
        2.92176         12.9127         1.49811 
        2.93747         12.8161         1.47829 
        2.95318         12.6691         1.45883 
        2.96891         12.5605          1.4397 
        2.98456         12.4893         1.42101 
        3.00023         12.4027         1.40262 
        3.01596         12.2846          1.3845 
        3.03164         12.1965         1.36675 
        3.04738         12.0658         1.34926 
         3.0631          11.982         1.33208 
        3.07883         11.8537          1.3152 
        3.09456         11.7989         1.29861 
        3.11026         11.6319         1.28234 
        3.12596         11.6186         1.26635 
        3.14163         11.5037         1.25066 
        3.15734         11.3944         1.23521 
        3.17308         11.3226         1.21998 
        3.18879         11.2707         1.20505 
        3.20447          11.121         1.19039 
         3.2202         11.0385         1.17593 
         3.2359         11.0007         1.16173 
        3.25157            10.9          1.1478 
        3.26729         10.7885         1.13406 
        3.28304         10.6937         1.12052 
        3.29877         10.5981         1.10721 
        3.31446         10.5473         1.09415 
        3.33014         10.4397         1.08132 
        3.34585          10.406         1.06866 
        3.36158         10.3222          1.0562 
        3.37727         10.2159         1.04397 
        3.39294         10.1389         1.03194 
        3.40867         10.0169         1.02006 
        3.42439          9.9689         1.00838 
        3.44008         9.89678        0.996899 
        3.45578         9.82235        0.985589 
        3.47153         9.78098        0.974431 
        3.48724         9.69572        0.963464 
        3.50292         9.59702        0.952692 
        3.51859         9.54761        0.942089 
        3.53431         9.45849        0.931615 
        3.55007          9.3943        0.921275 
        3.56577         9.33443        0.911132 
        3.58146         9.26124        0.901146 
        3.59719          9.1747        0.891287 
        3.61292         9.10581        0.881579 
        3.62859         9.02145        0.872051 
        3.64429         8.97951        0.862647 
        3.66003         8.88831        0.853352 
        3.67578         8.80318        0.844197 
        3.69146         8.77561        0.835212 
        3.70712         8.71299        0.826373 
        3.72284         8.63007        0.817629 
        3.73853         8.56955        0.809028 
        3.75422         8.51022        0.800546 
        3.76993         8.44344        0.792179 
        3.78564         8.36681        0.783935 
        3.80137         8.32255        0.775795 
        3.81707         8.23753        0.767787 
        3.83279         8.21599        0.759886 
        3.84853         8.13581        0.752083 
        3.86424         8.05163        0.744405 
        3.87992         7.98796        0.736845 
        3.89561         7.95938         0.72939 
        3.91134         7.89048        0.722023 
        3.92704         7.83456        0.714766 
        3.94273         7.77165        0.707616 
        3.95845         7.73009        0.700551 
        3.97418         7.64365        0.693581 
        3.98988         7.60559        0.686715 
        4.00554         7.53569         0.67996 
        4.02125         7.48821        0.673277 
        4.03698         7.44187        0.666673 
        4.05268         7.38877        0.660173 
        4.06839         7.31846        0.653755 
         4.0841         7.27276        0.647424 
        4.09983         7.24288        0.641168 
        4.11555         7.18673        0.634997 
        4.13124         7.13237        0.628924 
        4.14693         7.05923        0.622926 
        4.16266         7.01146        0.616992 
        4.17839         6.96035        0.611138 
        4.19408         6.89908        0.605374 
        4.20977         6.85037        0.599682 
        4.22551         6.79837        0.594049 
        4.24123         6.74935        0.588494 
        4.25691         6.69825        0.583025 
        4.27259         6.65874        0.577624 
        4.28831         6.60757        0.572281 
        4.30404         6.55057           0.567 
        4.31974         6.50792        0.561797 
        4.33543         6.46035        0.556663 
        4.35116         6.41827         0.55158 
        4.36688         6.36271        0.546562 
        4.38255         6.31233        0.541626 
        4.39825         6.26484         0.53674 
        4.41398         6.23279        0.531904 
         4.4297          6.2076        0.527133 
        4.44541         6.13839        0.522422 
        4.46111         6.12844        0.517771 
        4.47683         6.04505        0.513174 
        4.49251         6.03519        0.508642 
        4.50819         5.97177        0.504166 
         4.5239         5.92483        0.499737 
        4.53962         5.90285        0.495356 
        4.55535         5.84038        0.491025 
        4.57106         5.80745        0.486753 
        4.58678         5.77225         0.48253 
         4.6025         5.72095        0.478356 
        4.61821         5.68597        0.474232 
        4.63391         5.65338        0.470162 
         4.6496          5.6044        0.466142 
        4.66532         5.58649        0.462162 
        4.68103         5.51973        0.458231 
        4.69673         5.50458        0.454349 
        4.71241         5.45739        0.450516 
        4.72811         5.41524         0.44672 
        4.74384         5.38244        0.442964 
        4.75955         5.33914        0.439256 
        4.77525         5.30863        0.435593 
        4.79096         5.27174        0.431967 
        4.80669         5.24015        0.428381 
         4.8224         5.20879        0.424839 
        4.83809         5.16014        0.421341 
        4.85379          5.1157        0.417881 
         4.8695         5.09824        0.414456 
        4.88521         5.06618        0.411071 
        4.90093         5.01485        0.407724 
        4.91663         4.99433        0.404417 
        4.93234         4.96838        0.401142 
        4.94807         4.91782        0.397902 
        4.96377         4.88879        0.394704 
        4.97943          4.8511        0.391548 
        4.99514         4.81788        0.388418 
        5.01086         4.78645         0.38532 
        5.02654         4.76923        0.382263 
        5.04227         4.73046        0.379231 
          5.058         4.69325         0.37623 
        5.07371         4.67137        0.373267 
        5.08942         4.63807        0.370336 
        5.10513         4.61115        0.367436 
        5.12084         4.58295        0.364566 
        5.13656          4.5524        0.361727 
        5.15225         4.52026        0.358922 
        5.16796          4.4904        0.356144 
        5.18369         4.45424        0.353391 
         5.1994         4.43173        0.350673 
        5.21509         4.40204        0.347986 
        5.23079         4.37769        0.345324 
        5.24649         4.34203        0.342692 
        5.26217         4.32079        0.340089 
        5.27788         4.28845         0.33751 
        5.29359         4.25708        0.334957 
        5.30933         4.23306        0.332426 
        5.32504         4.21147        0.329926 
        5.34073         4.17525        0.327454 
        5.35646         4.15225        0.325003 
        5.37218         4.12414        0.322576 
        5.38789         4.10412        0.320178 
        5.40357         4.07693        0.317807 
        5.41929         4.04556        0.315455 
        5.43502         4.03094        0.313126 
         5.4507         3.99198        0.310826 
        5.46639         3.97332        0.308549 
        5.48212         3.95741         0.30629 
        5.49786         3.93196         0.30405 
        5.51353         3.89771        0.301844 
        5.52921         3.87541        0.299658 
        5.54495         3.84305        0.297487 
        5.56066          3.8316        0.295339 
        5.57637         3.80302        0.293213 
        5.59207         3.78192         0.29111 
        5.60778         3.75847        0.289027 
        5.62346         3.72443        0.286967 
        5.63916         3.70774        0.284925 
        5.65487         3.68701        0.282902 
         5.6706         3.66875        0.280896 
        5.68633         3.64282        0.278909 
        5.70203         3.61405        0.276945 
        5.71773         3.60378        0.275001 
        5.73344         3.58019        0.273074 
        5.74916          3.5584        0.271163 
        5.76486         3.53515        0.269274 
        5.78054         3.51117        0.267406 
        5.79626         3.49659        0.265549 
          5.812         3.47756        0.263709 
         5.8277         3.46013        0.261892 
        5.84339         3.43263        0.260091 
        5.85911         3.41485        0.258304 
        5.87484         3.39556        0.256535 
        5.89053          3.3691        0.254785 
        5.90623         3.34939        0.253051 
        5.92195         3.33234        0.251329 
        5.93767         3.31784        0.249625 
        5.95336         3.29944         0.24794 
        5.96905         3.27876         0.24627 
        5.98476         3.25721        0.244614 
        6.00048         3.23386        0.242972 
        6.01617         3.22102        0.241348 
        6.03185         3.19674         0.23974 
        6.04756         3.18307        0.238143 
        6.06331         3.15691        0.236558 
        6.07903         3.14587         0.23499 
        6.09473         3.12782        0.233437 
        6.11044         3.10576        0.231898 
        6.12616         3.09042        0.230372 
        6.14186         3.07775        0.228862 
        6.15755         3.05251        0.227365 
        6.17326         3.04488         0.22588 
        6.18898         3.02244        0.224408 
        6.20467         3.00164        0.222952 
        6.22036         2.98184        0.221509 
         6.2361         2.97217        0.220075 
         6.2518         2.95317        0.218655 
        6.26748         2.93514        0.217252 
        6.28319         2.91937        0.215857 
        6.29893         2.90451        0.214472 
        6.31463         2.88996        0.213103 
        6.33033          2.8792        0.211745 
        6.34604         2.85643        0.210399 
        6.36177         2.83979        0.209063 
        6.37747         2.82506        0.207741 
