# k  (h/Mpc)    Pcb(k)  (Mpc/h)^3    Pcb_linear(k) (Mpc/h)^3   ShotnoiseSubtracted = true
      0.0200456         91.0915         92.2736 
      0.0350414         67.5093         67.0798 
      0.0492313         48.9535         48.7389 
      0.0637834         40.3963         40.5162 
      0.0800726         32.0044         32.1567 
       0.096163         23.5344         23.3325 
       0.111083         18.7989         18.6106 
       0.126058          16.448         16.4928 
       0.142273         13.9064          13.973 
       0.158546         11.0692         11.0358 
        0.17375         9.35959         9.29761 
       0.188953         8.41614         8.41878 
       0.204907         7.37877          7.4489 
       0.220756         6.30578         6.30222 
        0.23588         5.48748         5.48239 
         0.2514         4.97974         4.98069 
       0.267535         4.50424         4.50667 
       0.283568         3.97593         3.97428 
       0.299022         3.54428         3.54088 
       0.314451         3.25735         3.23612 
       0.330372         2.97298         2.96878 
       0.346141         2.69957         2.69462 
       0.361624         2.45056         2.44904 
       0.377134         2.25015          2.2535 
       0.392932         2.10554         2.08512 
       0.408854         1.92057         1.92208 
       0.424564         1.78495         1.77161 
       0.440253         1.64709         1.64249 
       0.455999         1.52637         1.53021 
       0.471626         1.42288         1.42703 
        0.48727         1.33729         1.33051 
       0.502856         1.25151          1.2438 
       0.518488         1.16264         1.16643 
       0.534347         1.08733         1.09451 
       0.550082         1.03061         1.02819 
       0.565732        0.976125        0.967519 
       0.581496        0.913874        0.911952 
       0.597222        0.862035         0.86099 
       0.612804        0.814591         0.81413 
       0.628434        0.769982        0.770452 
       0.644267         0.73188        0.729617 
       0.660051         0.69453        0.691981 
       0.675724         0.65644        0.657229 
       0.691403        0.624014        0.624834 
       0.707174        0.593836         0.59444 
       0.722871        0.571371        0.566189 
        0.73838        0.538645        0.540076 
       0.754018        0.513609        0.515413 
       0.769845        0.488069        0.492022 
        0.78569        0.469317        0.470063 
       0.801365         0.44983        0.449662 
       0.817031        0.430801        0.430492 
       0.832809        0.410849        0.412322 
       0.848511        0.394401        0.395288 
       0.864097        0.379773        0.379337 
       0.879701        0.365777        0.364256 
       0.895507        0.347744        0.349821 
       0.911279        0.336052        0.336202 
        0.92691        0.324759        0.323423 
       0.942635        0.309851        0.311242 
       0.958396        0.299107        0.299665 
       0.974128        0.288219          0.2887 
       0.989692        0.277867        0.278395 
        1.00528        0.266557        0.268579 
        1.02113        0.259303        0.259085 
        1.03692        0.250395        0.250087 
        1.05264         0.24057        0.241559 
        1.06832        0.232764        0.233444 
        1.08405        0.224392        0.225682 
        1.09979        0.217565        0.218269 
        1.11537        0.209289        0.211264 
        1.13105        0.202249        0.204526 
        1.14679        0.196585        0.198057 
        1.16256        0.191051        0.191856 
        1.17828        0.185146        0.185942 
        1.19395        0.179542        0.180298 
         1.2097        0.173542        0.174861 
        1.22537        0.167834        0.169674 
          1.241        0.163077        0.164715 
        1.25666        0.158908        0.159942 
        1.27241        0.153758        0.155337 
        1.28819        0.149136        0.150905 
        1.30392        0.145499        0.146661 
        1.31957        0.140975        0.142598 
        1.33529        0.137634        0.138675 
        1.35108        0.133066        0.134885 
        1.36674        0.129981        0.131264 
         1.3824        0.126181         0.12778 
        1.39811        0.122399        0.124411 
        1.41389        0.119873         0.12115 
        1.42964         0.11641        0.118013 
        1.44531         0.11326        0.115002 
        1.46101        0.110133         0.11209 
        1.47667        0.107586        0.109288 
        1.49229         0.10491        0.106589 
        1.50793        0.102295        0.103979 
        1.52367       0.0996623         0.10144 
        1.53953       0.0968876       0.0989683 
        1.55526       0.0946139       0.0965992 
        1.57092       0.0928508       0.0943175 
        1.58662       0.0904202       0.0921044 
        1.60235        0.088167       0.0899581 
        1.61809       0.0860096       0.0878793 
        1.63369       0.0839828       0.0858848 
        1.64941       0.0820276        0.083938 
        1.66519       0.0802581       0.0820448 
        1.68085       0.0782921       0.0802235 
        1.69652        0.076704       0.0784571 
        1.71228       0.0746679       0.0767339 
        1.72806       0.0733058       0.0750612 
        1.74368       0.0715437       0.0734553 
        1.75933       0.0700771       0.0718933 
        1.77505       0.0686752       0.0703694 
        1.79081       0.0669674       0.0688872 
         1.8065        0.065705        0.067454 
        1.82218        0.064011       0.0660629 
        1.83797       0.0627636       0.0647016 
        1.85367       0.0613893       0.0633863 
        1.86928       0.0598839       0.0621155 
        1.88497       0.0588238       0.0608726 
        1.90073       0.0574389       0.0596593 
        1.91647       0.0566664       0.0584801 
        1.93218       0.0557182       0.0573354 
        1.94787        0.054139        0.056223 
        1.96363       0.0531225       0.0551358 
        1.97935       0.0520251       0.0540796 
        1.99499       0.0510882       0.0530571 
        2.01064       0.0500259       0.0520596 
         2.0264       0.0492103       0.0510815 
        2.04216       0.0482253        0.050129 
        2.05781       0.0471252       0.0492069 
        2.07353       0.0463189       0.0483047 
        2.08928       0.0455148       0.0474232 
        2.10499       0.0446534       0.0465661 
        2.12065       0.0438074       0.0457327 
        2.13633       0.0429781       0.0449191 
        2.15211       0.0422566         0.04412 
        2.16785       0.0412007       0.0433426 
        2.18349       0.0405904       0.0425889 
        2.19916       0.0397811       0.0418515 
        2.21489       0.0390597       0.0411291 
        2.23063       0.0385165       0.0404234 
         2.2463       0.0377863       0.0397373 
        2.26194       0.0371213       0.0390689 
        2.27765       0.0365429       0.0384125 
        2.29341       0.0357301       0.0377695 
        2.30914       0.0351491       0.0371425 
        2.32486       0.0344794       0.0365301 
        2.34061       0.0338804       0.0359306 
        2.35635       0.0333812        0.035345 
        2.37203        0.033008       0.0347745 
        2.38768       0.0324658       0.0342178 
        2.40339       0.0318082       0.0336713 
        2.41914       0.0312157       0.0331354 
        2.43483       0.0308203       0.0326131 
         2.4505       0.0302043        0.032103 
        2.46622       0.0296886        0.031602 
        2.48195        0.029192       0.0311117 
        2.49759       0.0287461       0.0306344 
        2.51328       0.0281895       0.0301659 
        2.52906       0.0278029       0.0297042 
        2.54479       0.0274095        0.029254 
        2.56049       0.0268946       0.0288139 
        2.57618        0.026519       0.0283833 
        2.59189       0.0260063       0.0279608 
        2.60758       0.0257539       0.0275476 
        2.62325       0.0252014       0.0271432 
        2.63898       0.0249146       0.0267456 
        2.65468       0.0244382       0.0263568 
        2.67044       0.0240775        0.025974 
        2.68618       0.0236955       0.0255997 
        2.70184       0.0234781       0.0252343 
        2.71755       0.0230613       0.0248751 
        2.73329        0.022756       0.0245224 
        2.74897       0.0223707       0.0241777 
        2.76462       0.0220112       0.0238403 
        2.78034       0.0217398        0.023508 
        2.79607       0.0213928       0.0231817 
        2.81179       0.0210796       0.0228619 
        2.82749       0.0208371       0.0225486 
        2.84321       0.0204782       0.0222407 
        2.85893       0.0201918       0.0219387 
        2.87462       0.0198903       0.0216429 
        2.89033       0.0196112       0.0213522 
        2.90605       0.0193008       0.0210666 
        2.92176       0.0191146       0.0207864 
        2.93747       0.0187698       0.0205114 
        2.95318       0.0185549       0.0202413 
        2.96891       0.0182533        0.019976 
        2.98456       0.0179776       0.0197166 
        3.00023       0.0178449       0.0194615 
        3.01596       0.0174945         0.01921 
        3.03164       0.0172857       0.0189637 
        3.04738        0.017065       0.0187211 
         3.0631       0.0167479       0.0184827 
        3.07883       0.0166228       0.0182485 
        3.09456       0.0163806       0.0180184 
        3.11026       0.0161078       0.0177926 
        3.12596       0.0159837       0.0175707 
        3.14163       0.0157602       0.0173531 
        3.15734       0.0155757       0.0171386 
        3.17308       0.0153711       0.0169273 
        3.18879       0.0151254       0.0167201 
        3.20447       0.0149533       0.0165167 
         3.2202       0.0147451       0.0163161 
         3.2359        0.014582       0.0161191 
        3.25157        0.014379       0.0159259 
        3.26729       0.0142148       0.0157352 
        3.28304       0.0140641       0.0155473 
        3.29877       0.0138824       0.0153627 
        3.31446       0.0136643       0.0151815 
        3.33014       0.0135362       0.0150034 
        3.34585       0.0133944       0.0148278 
        3.36158       0.0131999       0.0146548 
        3.37727       0.0130194       0.0144851 
        3.39294       0.0128706       0.0143183 
        3.40867       0.0127647       0.0141535 
        3.42439       0.0125915       0.0139913 
        3.44008       0.0124546       0.0138321 
        3.45578       0.0122952       0.0136751 
        3.47153       0.0121692       0.0135203 
        3.48724       0.0120102       0.0133682 
        3.50292        0.011917       0.0132187 
        3.51859       0.0117986       0.0130716 
        3.53431       0.0116216       0.0129262 
        3.55007       0.0115037       0.0127828 
        3.56577       0.0113764        0.012642 
        3.58146       0.0112413       0.0125035 
        3.59719       0.0111715       0.0123667 
        3.61292       0.0110183        0.012232 
        3.62859        0.010871       0.0120998 
        3.64429       0.0107817       0.0119693 
        3.66003       0.0106968       0.0118403 
        3.67578       0.0105666       0.0117133 
        3.69146       0.0104694       0.0115886 
        3.70712       0.0103456        0.011466 
        3.72284        0.010243       0.0113447 
        3.73853       0.0101329       0.0112253 
        3.75422       0.0100393       0.0111077 
        3.76993      0.00995049       0.0109916 
        3.78564      0.00985067       0.0108772 
        3.80137      0.00975614       0.0107642 
        3.81707      0.00963869       0.0106531 
        3.83279      0.00954264       0.0105435 
        3.84853      0.00947447       0.0104352 
        3.86424      0.00937059       0.0103287 
        3.87992      0.00930742       0.0102238 
        3.89561      0.00921626       0.0101204 
        3.91134      0.00912507       0.0100181 
        3.92704      0.00904643      0.00991745 
        3.94273       0.0089706      0.00981824 
        3.95845       0.0088802      0.00972021 
        3.97418      0.00880665       0.0096235 
        3.98988      0.00868731      0.00952823 
        4.00554      0.00861908      0.00943451 
        4.02125      0.00852175      0.00934178 
        4.03698      0.00839421      0.00925016 
        4.05268      0.00830306      0.00915997 
        4.06839      0.00820801      0.00907091 
         4.0841      0.00809004      0.00898307 
        4.09983      0.00800589      0.00889627 
        4.11555       0.0079064      0.00881065 
        4.13124      0.00781232      0.00872639 
        4.14693       0.0077342      0.00864315 
        4.16266      0.00764399      0.00856082 
        4.17839      0.00755955       0.0084796 
        4.19408      0.00745827      0.00839962 
        4.20977      0.00737602      0.00832064 
        4.22551       0.0073177      0.00824248 
        4.24123      0.00725194      0.00816541 
        4.25691      0.00720202      0.00808953 
        4.27259      0.00710313      0.00801459 
        4.28831      0.00705319      0.00794045 
        4.30404      0.00698687      0.00786718 
        4.31974      0.00695109      0.00779499 
        4.33543       0.0068833      0.00772375 
        4.35116      0.00682101      0.00765322 
        4.36688      0.00678321      0.00758361 
        4.38255      0.00676186      0.00751511 
        4.39825      0.00673135      0.00744732 
        4.41398      0.00667091      0.00738022 
         4.4297      0.00664492      0.00731403 
        4.44541      0.00660924      0.00724865 
        4.46111      0.00656295      0.00718413 
        4.47683        0.006563      0.00712034 
        4.49251      0.00652453      0.00705746 
        4.50819      0.00650959      0.00699535 
         4.5239      0.00648596       0.0069339 
        4.53962      0.00648398      0.00687311 
        4.55535      0.00645839      0.00681302 
        4.57106      0.00647501      0.00675374 
        4.58678        0.006458      0.00669515 
         4.6025      0.00645693      0.00663723 
        4.61821      0.00645067      0.00658002 
        4.63391      0.00646016      0.00652355 
         4.6496      0.00644537      0.00646776 
        4.66532      0.00646854      0.00641255 
        4.68103       0.0064684        0.006358 
        4.69673      0.00647306      0.00630413 
        4.71241       0.0065337      0.00625095 
        4.72811      0.00654025      0.00619828 
        4.74384      0.00656505      0.00614616 
        4.75955      0.00657534      0.00609472 
        4.77525      0.00660063      0.00604389 
        4.79096      0.00665183      0.00599358 
        4.80669      0.00667937      0.00594382 
         4.8224      0.00673606      0.00589468 
        4.83809      0.00677246      0.00584615 
        4.85379      0.00682724      0.00579813 
         4.8695       0.0068368      0.00575062 
        4.88521      0.00690249      0.00570365 
        4.90093      0.00694476      0.00565721 
        4.91663      0.00702106      0.00561132 
        4.93234      0.00707755      0.00556589 
        4.94807       0.0071265      0.00552093 
        4.96377      0.00721772      0.00547656 
        4.97943       0.0073295      0.00543276 
        4.99514      0.00734897      0.00538933 
        5.01086       0.0074418      0.00534635 
        5.02654      0.00750591      0.00530394 
        5.04227      0.00759517      0.00526186 
          5.058      0.00770805      0.00522022 
        5.07371      0.00777507      0.00517912 
        5.08942       0.0079212      0.00513845 
        5.10513      0.00796834      0.00509821 
        5.12084      0.00806267      0.00505838 
        5.13656      0.00817167      0.00501899 
        5.15225      0.00830338      0.00498008 
        5.16796      0.00847145      0.00494152 
        5.18369       0.0085518      0.00490334 
         5.1994      0.00869182      0.00486563 
        5.21509      0.00880229      0.00482834 
        5.23079      0.00893811      0.00479141 
        5.24649      0.00907221      0.00475489 
        5.26217      0.00921759      0.00471877 
        5.27788      0.00935993      0.00468298 
        5.29359      0.00950533      0.00464756 
        5.30933      0.00969234      0.00461244 
        5.32504      0.00984923      0.00457775 
        5.34073      0.00998364      0.00454346 
        5.35646       0.0102172      0.00450944 
        5.37218       0.0103989      0.00447577 
        5.38789       0.0105241       0.0044425 
        5.40357       0.0107176       0.0044096 
        5.41929       0.0109199      0.00437696 
        5.43502       0.0111714      0.00434465 
         5.4507       0.0113403      0.00431274 
        5.46639       0.0115411      0.00428115 
        5.48212       0.0117411       0.0042498 
        5.49786       0.0120827      0.00421872 
        5.51353       0.0122912      0.00418812 
        5.52921       0.0124792      0.00415778 
        5.54495       0.0127286      0.00412765 
        5.56066       0.0130357      0.00409786 
        5.57637       0.0132852      0.00406836 
        5.59207       0.0135754      0.00403918 
        5.60778       0.0138857      0.00401028 
        5.62346       0.0141305      0.00398169 
        5.63916       0.0143395      0.00395336 
        5.65487        0.014709      0.00392529 
         5.6706       0.0149999      0.00389746 
        5.68633       0.0153803      0.00386989 
        5.70203       0.0157062      0.00384264 
        5.71773        0.016077      0.00381566 
        5.73344       0.0162951      0.00378892 
        5.74916       0.0166839      0.00376242 
        5.76486       0.0171805       0.0037362 
        5.78054       0.0174732      0.00371028 
        5.79626       0.0178507      0.00368452 
          5.812       0.0183194      0.00365899 
         5.8277        0.018647      0.00363377 
        5.84339       0.0191227      0.00360879 
        5.85911        0.019691        0.003584 
        5.87484       0.0201035      0.00355944 
        5.89053       0.0205302      0.00353516 
        5.90623       0.0211465       0.0035111 
        5.92195       0.0214444      0.00348722 
        5.93767       0.0220257      0.00346357 
        5.95336       0.0226274      0.00344019 
        5.96905       0.0231469      0.00341702 
        5.98476       0.0235447      0.00339404 
        6.00048       0.0243273      0.00337126 
        6.01617       0.0247699      0.00334872 
        6.03185        0.025365      0.00332642 
        6.04756       0.0261916      0.00330426 
        6.06331        0.026738      0.00328226 
        6.07903       0.0274181       0.0032605 
        6.09473       0.0281022      0.00323896 
        6.11044       0.0290079       0.0032176 
        6.12616        0.029529      0.00319643 
        6.14186        0.030429      0.00317548 
        6.15755       0.0311818      0.00315471 
        6.17326         0.03188      0.00313411 
        6.18898       0.0327268      0.00311369 
        6.20467       0.0336409      0.00309348 
        6.22036       0.0347081      0.00307346 
         6.2361       0.0353791      0.00305356 
         6.2518       0.0364035      0.00303386 
        6.26748       0.0370932      0.00301439 
        6.28319       0.0385761      0.00299503 
        6.29893       0.0394365      0.00297582 
        6.31463       0.0407602      0.00295682 
        6.33033       0.0413209      0.00293799 
        6.34604       0.0425001       0.0029193 
        6.36177        0.043576      0.00290077 
        6.37747       0.0452549      0.00288242 
