# k  (h/Mpc)    Pcb(k)  (Mpc/h)^3    Pcb_linear(k) (Mpc/h)^3   ShotnoiseSubtracted = true
      0.0200456         17802.2         18195.9 
      0.0350414         12691.7         13227.8 
      0.0492313         9449.45          9611.1 
      0.0637834         8148.11         7989.62 
      0.0800726         6435.52         6341.16 
       0.096163         4470.56         4601.06 
       0.111083         3578.66         3669.93 
       0.126058         3299.61          3252.3 
       0.142273         2855.65         2755.42 
       0.158546         2462.79          2176.2 
        0.17375          1968.7         1833.45 
       0.188953         1919.43         1660.15 
       0.204907         1804.61         1468.89 
       0.220756         1555.65         1242.77 
        0.23588         1382.86          1081.1 
         0.2514         1202.78          982.17 
       0.267535         1195.74         888.696 
       0.283568          1084.2          783.71 
       0.299022          1021.8         698.245 
       0.314451         972.753         638.149 
       0.330372         894.822          585.43 
       0.346141         838.952         531.367 
       0.361624         806.678          482.94 
       0.377134         749.472         444.381 
       0.392932         721.184         411.177 
       0.408854         701.084         379.026 
       0.424564         653.886         349.353 
       0.440253         642.716         323.891 
       0.455999         611.218          301.75 
       0.471626         584.344         281.404 
        0.48727         562.073          262.37 
       0.502856         546.981         245.272 
       0.518488         540.942         230.015 
       0.534347         505.592         215.832 
       0.550082         487.658         202.755 
       0.565732         487.233          190.79 
       0.581496         458.225         179.833 
       0.597222         451.415         169.783 
       0.612804         440.096         160.543 
       0.628434         425.306          151.93 
       0.644267         414.132         143.877 
       0.660051         401.875         136.456 
       0.675724         397.895         129.603 
       0.691403         385.197         123.215 
       0.707174         372.089         117.221 
       0.722871         367.795          111.65 
        0.73838         362.502         106.501 
       0.754018          352.28         101.637 
       0.769845         343.252         97.0245 
        0.78569         341.021         92.6943 
       0.801365         330.495         88.6714 
       0.817031         320.051          84.891 
       0.832809         318.356         81.3081 
       0.848511         309.907          77.949 
       0.864097          303.92         74.8037 
       0.879701         299.938         71.8297 
       0.895507         294.641         68.9831 
       0.911279         285.022         66.2975 
        0.92691         283.362         63.7777 
       0.942635         276.728         61.3755 
       0.958396          271.78         59.0925 
       0.974128         267.052         56.9304 
       0.989692         263.153         54.8982 
        1.00528         258.705         52.9626 
        1.02113         256.411         51.0904 
        1.03692         250.121          49.316 
        1.05264         246.726         47.6344 
        1.06832         241.528         46.0341 
        1.08405         237.351         44.5034 
        1.09979         233.503         43.0417 
        1.11537         229.907         41.6603 
        1.13105         224.559         40.3316 
        1.14679         223.867         39.0559 
        1.16256          219.59         37.8331 
        1.17828         216.054         36.6669 
        1.19395         212.116          35.554 
         1.2097         211.929         34.4817 
        1.22537           206.8         33.4591 
          1.241         205.472         32.4811 
        1.25666         201.026         31.5399 
        1.27241         198.299         30.6317 
        1.28819         195.911         29.7579 
        1.30392         191.573         28.9208 
        1.31957         191.889         28.1197 
        1.33529         187.208         27.3462 
        1.35108         183.724         26.5988 
        1.36674         182.989         25.8847 
         1.3824         180.528         25.1976 
        1.39811         179.261         24.5332 
        1.41389           175.4         23.8903 
        1.42964         173.018         23.2716 
        1.44531         170.593         22.6779 
        1.46101         168.915         22.1037 
        1.47667         165.538         21.5511 
        1.49229         163.679          21.019 
        1.50793         161.443         20.5042 
        1.52367         160.257         20.0035 
        1.53953         157.094         19.5161 
        1.55526         154.667         19.0489 
        1.57092         153.382          18.599 
        1.58662          151.15         18.1626 
        1.60235         149.088         17.7393 
        1.61809         147.864         17.3294 
        1.63369         145.123         16.9361 
        1.64941         142.805         16.5522 
        1.66519         141.471         16.1789 
        1.68085         140.227         15.8197 
        1.69652         137.863         15.4714 
        1.71228         135.868         15.1316 
        1.72806         134.322         14.8017 
        1.74368         133.381         14.4851 
        1.75933         131.095          14.177 
        1.77505         129.486         13.8765 
        1.79081         128.608         13.5842 
         1.8065         126.887         13.3016 
        1.82218         124.386         13.0273 
        1.83797         123.043         12.7589 
        1.85367         121.875         12.4995 
        1.86928         119.982         12.2489 
        1.88497         117.874         12.0038 
        1.90073         116.928         11.7645 
        1.91647         115.506          11.532 
        1.93218         114.123         11.3063 
        1.94787         112.686         11.0869 
        1.96363         111.343         10.8725 
        1.97935         109.405         10.6643 
        1.99499         108.401         10.4626 
        2.01064         107.165         10.2659 
         2.0264         105.635          10.073 
        2.04216         104.815         9.88522 
        2.05781         103.579         9.70338 
        2.07353         102.459         9.52547 
        2.08928         100.609         9.35164 
        2.10499         99.1172         9.18262 
        2.12065         98.5116         9.01829 
        2.13633         97.6499         8.85785 
        2.15211         96.1433         8.70027 
        2.16785         94.6322         8.54698 
        2.18349         93.6136         8.39834 
        2.19916         92.7062         8.25293 
        2.21489         91.5997         8.11048 
        2.23063         90.2194         7.97131 
         2.2463         89.2483         7.83602 
        2.26194         88.9691         7.70422 
        2.27765         87.2333         7.57478 
        2.29341         86.4451         7.44798 
        2.30914         85.3046         7.32434 
        2.32486         84.6176         7.20358 
        2.34061         83.4759         7.08535 
        2.35635          81.919         6.96988 
        2.37203         81.0646         6.85738 
        2.38768         80.3501          6.7476 
        2.40339         79.4644         6.63983 
        2.41914         78.2702         6.53416 
        2.43483         77.7371         6.43117 
         2.4505         76.7502         6.33057 
        2.46622         75.8304         6.23178 
        2.48195          75.005         6.13509 
        2.49759         74.2217         6.04097 
        2.51328         73.4741         5.94858 
        2.52906         72.5658         5.85754 
        2.54479         71.9283         5.76875 
        2.56049         70.9118         5.68197 
        2.57618         70.2603         5.59705 
        2.59189         69.2295         5.51374 
        2.60758         68.4579         5.43226 
        2.62325         67.7743         5.35252 
        2.63898         67.0309         5.27411 
        2.65468         66.2614         5.19744 
        2.67044         65.4479         5.12196 
        2.68618         64.9208         5.04815 
        2.70184         64.5963         4.97609 
        2.71755         63.7301         4.90527 
        2.73329          62.849         4.83571 
        2.74897         62.3226         4.76773 
        2.76462         61.5208          4.7012 
        2.78034         60.6744         4.63567 
        2.79607         60.0243         4.57132 
        2.81179         59.5874         4.50827 
        2.82749         58.8741         4.44648 
        2.84321         58.3548         4.38577 
        2.85893         57.5877         4.32622 
        2.87462          57.051         4.26788 
        2.89033          56.398         4.21056 
        2.90605         55.6428         4.15424 
        2.92176         55.3721         4.09898 
        2.93747         54.8105         4.04476 
        2.95318         54.0669          3.9915 
        2.96891         53.3081         3.93918 
        2.98456         52.9532         3.88803 
        3.00023         52.1082         3.83771 
        3.01596          51.742         3.78813 
        3.03164         51.1704         3.73956 
        3.04738         50.6345         3.69171 
         3.0631         50.1731         3.64471 
        3.07883         49.6085         3.59852 
        3.09456         49.2907         3.55314 
        3.11026         48.5678         3.50862 
        3.12596         48.1677         3.46486 
        3.14163         47.5762         3.42195 
        3.15734         47.2668         3.37966 
        3.17308         46.7749         3.33799 
        3.18879         46.3531         3.29714 
        3.20447         45.4937         3.25703 
         3.2202         45.4268         3.21746 
         3.2359         44.8894         3.17862 
        3.25157         44.5318         3.14051 
        3.26729         44.0042         3.10291 
        3.28304         43.4389         3.06585 
        3.29877         43.0571         3.02945 
        3.31446         42.5479         2.99372 
        3.33014         42.2439          2.9586 
        3.34585         42.0348         2.92398 
        3.36158         41.5451         2.88987 
        3.37727         40.9899         2.85641 
        3.39294          40.659          2.8235 
        3.40867         40.1402           2.791 
        3.42439         39.8208         2.75903 
        3.44008         39.4015         2.72762 
        3.45578         38.9769         2.69668 
        3.47153         38.6903         2.66615 
        3.48724         38.3512         2.63614 
        3.50292         38.0101         2.60667 
        3.51859         37.4173         2.57766 
        3.53431         37.1321           2.549 
        3.55007         36.8091         2.52071 
        3.56577         36.5026         2.49295 
        3.58146         36.1082         2.46563 
        3.59719          35.748         2.43866 
        3.61292         35.5173         2.41209 
        3.62859         35.1518         2.38603 
        3.64429           34.81         2.36029 
        3.66003         34.4345         2.33486 
        3.67578         34.1136         2.30981 
        3.69146         33.9194         2.28523 
        3.70712         33.4997         2.26104 
        3.72284         33.2298         2.23712 
        3.73853         32.9787         2.21359 
        3.75422          32.671         2.19038 
        3.76993         32.3557         2.16749 
        3.78564         32.0741         2.14493 
        3.80137         31.6994         2.12266 
        3.81707         31.3995         2.10075 
        3.83279         31.1924         2.07913 
        3.84853         30.9773         2.05778 
        3.86424         30.5876         2.03677 
        3.87992         30.3968         2.01609 
        3.89561         30.0827         1.99569 
        3.91134         29.7963         1.97553 
        3.92704         29.5763         1.95568 
        3.94273         29.2699         1.93611 
        3.95845         28.9064         1.91678 
        3.97418         28.7851         1.89771 
        3.98988         28.4932         1.87892 
        4.00554         28.2081         1.86044 
        4.02125         28.0848         1.84216 
        4.03698         27.6648         1.82409 
        4.05268         27.6098          1.8063 
        4.06839           27.29         1.78874 
         4.0841         27.0412         1.77142 
        4.09983         26.7653          1.7543 
        4.11555         26.6057         1.73742 
        4.13124         26.3004          1.7208 
        4.14693          26.153         1.70439 
        4.16266         25.8704         1.68815 
        4.17839         25.5714         1.67214 
        4.19408         25.4184         1.65637 
        4.20977         25.1993         1.64079 
        4.22551         25.0213         1.62538 
        4.24123         24.7595         1.61018 
        4.25691         24.6208         1.59522 
        4.27259          24.377         1.58044 
        4.28831         24.1306         1.56582 
        4.30404         23.9205         1.55137 
        4.31974         23.7841         1.53714 
        4.33543         23.5034         1.52309 
        4.35116         23.3591         1.50918 
        4.36688         23.1498         1.49545 
        4.38255         22.9701         1.48195 
        4.39825         22.7414         1.46858 
        4.41398         22.5354         1.45535 
         4.4297         22.3964         1.44229 
        4.44541         22.2196          1.4294 
        4.46111           22.03         1.41668 
        4.47683         21.8028          1.4041 
        4.49251         21.6738          1.3917 
        4.50819         21.4336         1.37945 
         4.5239         21.2882         1.36733 
        4.53962         21.1588         1.35535 
        4.55535         20.9839          1.3435 
        4.57106         20.7908         1.33181 
        4.58678         20.6242         1.32025 
         4.6025         20.4685         1.30883 
        4.61821         20.3111         1.29755 
        4.63391         20.1156         1.28641 
         4.6496         19.9682         1.27541 
        4.66532         19.8097         1.26453 
        4.68103         19.6337         1.25377 
        4.69673         19.4698         1.24315 
        4.71241         19.2894         1.23266 
        4.72811         19.1558         1.22227 
        4.74384         18.9916           1.212 
        4.75955         18.8774         1.20185 
        4.77525         18.7142         1.19183 
        4.79096         18.5778         1.18191 
        4.80669         18.4244          1.1721 
         4.8224           18.24         1.16241 
        4.83809         18.1498         1.15283 
        4.85379         17.9989         1.14337 
         4.8695         17.8663           1.134 
        4.88521         17.7301         1.12474 
        4.90093         17.5814         1.11558 
        4.91663         17.4348         1.10653 
        4.93234         17.2819         1.09757 
        4.94807         17.1369          1.0887 
        4.96377         17.0544         1.07995 
        4.97943         16.9126         1.07132 
        4.99514         16.7704         1.06275 
        5.01086         16.6325         1.05428 
        5.02654         16.5226         1.04591 
        5.04227         16.3606         1.03762 
          5.058         16.2785          1.0294 
        5.07371         16.1545          1.0213 
        5.08942         16.0603         1.01328 
        5.10513         15.9037         1.00534 
        5.12084         15.7941        0.997491 
        5.13656         15.6391        0.989723 
        5.15225         15.5476         0.98205 
        5.16796         15.4046        0.974447 
        5.18369         15.3171        0.966917 
         5.1994         15.1657         0.95948 
        5.21509         15.0514        0.952128 
        5.23079         14.9576        0.944845 
        5.24649         14.8417        0.937643 
        5.26217         14.7721        0.930521 
        5.27788         14.6179        0.923463 
        5.29359         14.4869        0.916477 
        5.30933         14.4179        0.909553 
        5.32504         14.3068        0.902712 
        5.34073         14.2046         0.89595 
        5.35646         14.1042        0.889242 
        5.37218         13.9697        0.882602 
        5.38789         13.8647        0.876041 
        5.40357         13.7733        0.869553 
        5.41929         13.6729        0.863117 
        5.43502          13.564        0.856746 
         5.4507         13.4733        0.850453 
        5.46639         13.3922        0.844224 
        5.48212          13.286        0.838041 
        5.49786         13.2116        0.831914 
        5.51353         13.0765        0.825878 
        5.52921         13.0097        0.819895 
        5.54495         12.9176        0.813955 
        5.56066         12.7906        0.808079 
        5.57637         12.7009        0.802263 
        5.59207         12.6171        0.796509 
        5.60778         12.5467        0.790809 
        5.62346         12.4505        0.785172 
        5.63916         12.3594        0.779586 
        5.65487         12.2808         0.77405 
         5.6706         12.1973        0.768562 
        5.68633         12.0951        0.763125 
        5.70203         12.0189        0.757752 
        5.71773         11.9178        0.752431 
        5.73344         11.8456        0.747159 
        5.74916         11.7752        0.741932 
        5.76486         11.6838        0.736762 
        5.78054         11.6097         0.73165 
        5.79626         11.4913        0.726572 
          5.812         11.4402        0.721537 
         5.8277         11.3705        0.716564 
        5.84339         11.2649        0.711638 
        5.85911         11.2008        0.706748 
        5.87484         11.1252        0.701906 
        5.89053         11.0472        0.697118 
        5.90623         10.9679        0.692373 
        5.92195         10.8952        0.687664 
        5.93767         10.8185        0.683001 
        5.95336         10.7429         0.67839 
        5.96905         10.6775        0.673822 
        5.98476         10.6154         0.66929 
        6.00048         10.5273        0.664798 
        6.01617         10.4501        0.660353 
        6.03185         10.3602        0.655955 
        6.04756         10.2928        0.651585 
        6.06331          10.231        0.647247 
        6.07903         10.1736        0.642957 
        6.09473         10.0945        0.638709 
        6.11044         10.0442        0.634497 
        6.12616         9.96949        0.630322 
        6.14186         9.90871         0.62619 
        6.15755         9.84773        0.622095 
        6.17326         9.78237        0.618033 
        6.18898         9.70705        0.614006 
        6.20467         9.62956        0.610021 
        6.22036         9.58505        0.606072 
         6.2361         9.51065        0.602148 
         6.2518         9.44479        0.598265 
        6.26748         9.38956        0.594424 
        6.28319         9.31693        0.590606 
        6.29893         9.26191        0.586819 
        6.31463          9.2026        0.583071 
        6.33033         9.14498        0.579358 
        6.34604         9.07178        0.575674 
        6.36177         9.03047        0.572018 
        6.37747         8.97996        0.568401 
