# k  (h/Mpc)    Pcb(k)  (Mpc/h)^3    Pcb_linear(k) (Mpc/h)^3   ShotnoiseSubtracted = true
      0.0200456         1424.72         1443.02 
      0.0350414         1062.93         1049.03 
      0.0492313         764.397         762.204 
      0.0637834         626.367         633.614 
      0.0800726         495.767         502.883 
       0.096163         371.152         364.886 
       0.111083         298.046         291.042 
       0.126058          256.55         257.923 
       0.142273         216.966         218.517 
       0.158546         174.426         172.583 
        0.17375         148.932         145.401 
       0.188953         133.868         131.657 
       0.204907         115.104          116.49 
       0.220756         100.404         98.5574 
        0.23588         87.6074         85.7364 
         0.2514         79.4145         77.8906 
       0.267535           72.86         70.4777 
       0.283568         64.0816         62.1518 
       0.299022         57.9465         55.3741 
       0.314451         54.2218         50.6081 
       0.330372         48.7778         46.4273 
       0.346141         44.4625         42.1398 
       0.361624         40.5796         38.2993 
       0.377134          37.148         35.2414 
       0.392932            35.7         32.6082 
       0.408854         32.3524         30.0585 
       0.424564          30.765         27.7053 
       0.440253         28.0766          25.686 
       0.455999         25.6847         23.9302 
       0.471626         24.1685         22.3166 
        0.48727         23.3196         20.8072 
       0.502856         21.8198         19.4512 
       0.518488         20.1874         18.2413 
       0.534347         18.9206         17.1165 
       0.550082         18.1487         16.0794 
       0.565732         17.3715         15.1306 
       0.581496          16.341         14.2616 
       0.597222         15.3852         13.4646 
       0.612804         14.5424         12.7318 
       0.628434         14.1338         12.0487 
       0.644267         13.3962         11.4101 
       0.660051         12.6806         10.8216 
       0.675724         12.0098         10.2781 
       0.691403         11.6496         9.77148 
       0.707174         11.1001         9.29616 
       0.722871          10.788         8.85436 
        0.73838         10.1205         8.44599 
       0.754018         9.64389         8.06029 
       0.769845         9.24539         7.69449 
        0.78569         8.99846         7.35108 
       0.801365         8.60013         7.03205 
       0.817031         8.30873         6.73225 
       0.832809         7.92552          6.4481 
       0.848511          7.7011         6.18171 
       0.864097         7.41734         5.93228 
       0.879701         7.24082         5.69643 
       0.895507         6.94887         5.47068 
       0.911279         6.67471         5.25769 
        0.92691         6.48927         5.05786 
       0.942635         6.25159         4.86736 
       0.958396         6.04205         4.68631 
       0.974128         5.89126         4.51484 
       0.989692         5.61396         4.35368 
        1.00528         5.52839         4.20018 
        1.02113         5.34871          4.0517 
        1.03692          5.2108         3.91099 
        1.05264         5.02058         3.77763 
        1.06832         4.89436         3.65072 
        1.08405         4.76105         3.52932 
        1.09979         4.63983          3.4134 
        1.11537         4.50825         3.30385 
        1.13105         4.37284         3.19848 
        1.14679         4.26522         3.09731 
        1.16256         4.13298         3.00034 
        1.17828         4.07379         2.90786 
        1.19395         3.92877         2.81959 
         1.2097         3.81699         2.73456 
        1.22537         3.70541         2.65346 
          1.241         3.62729          2.5759 
        1.25666         3.58591         2.50126 
        1.27241         3.50257         2.42924 
        1.28819         3.36178         2.35994 
        1.30392         3.28794         2.29355 
        1.31957          3.2389         2.23003 
        1.33529         3.12955         2.16868 
        1.35108         3.06944          2.1094 
        1.36674          2.9909         2.05278 
         1.3824         2.95556         1.99828 
        1.39811         2.87529          1.9456 
        1.41389         2.80403         1.89461 
        1.42964         2.75266         1.84554 
        1.44531         2.70315         1.79846 
        1.46101         2.64785         1.75292 
        1.47667         2.59284          1.7091 
        1.49229         2.50837          1.6669 
        1.50793         2.45087         1.62608 
        1.52367         2.41011         1.58637 
        1.53953         2.35348         1.54772 
        1.55526         2.35411         1.51067 
        1.57092         2.28835         1.47499 
        1.58662         2.26319         1.44038 
        1.60235         2.19188         1.40681 
        1.61809         2.15698          1.3743 
        1.63369         2.11348         1.34311 
        1.64941         2.07756         1.31267 
        1.66519         2.04867         1.28306 
        1.68085         1.99958         1.25458 
        1.69652         1.96608         1.22695 
        1.71228         1.92822             1.2 
        1.72806         1.90167         1.17385 
        1.74368         1.86686         1.14873 
        1.75933         1.83923          1.1243 
        1.77505         1.80471         1.10047 
        1.79081          1.7672         1.07729 
         1.8065         1.74514         1.05488 
        1.82218         1.70615         1.03313 
        1.83797         1.67837         1.01184 
        1.85367         1.65278        0.991268 
        1.86928         1.62781        0.971394 
        1.88497         1.59532        0.951958 
        1.90073         1.58288        0.932982 
        1.91647         1.54605        0.914542 
        1.93218         1.52648         0.89664 
        1.94787         1.50332        0.879244 
        1.96363         1.48257        0.862242 
        1.97935         1.45569        0.845725 
        1.99499         1.43412        0.829734 
        2.01064         1.41459        0.814135 
         2.0264         1.38834        0.798839 
        2.04216         1.37342        0.783943 
        2.05781         1.34653        0.769523 
        2.07353         1.33723        0.755414 
        2.08928         1.31248        0.741629 
        2.10499         1.29139        0.728224 
        2.12065         1.27496        0.715192 
        2.13633          1.2576        0.702468 
        2.15211         1.23398        0.689972 
        2.16785         1.22234        0.677815 
        2.18349         1.20129        0.666027 
        2.19916         1.19134        0.654495 
        2.21489         1.17525        0.643199 
        2.23063         1.15107        0.632161 
         2.2463         1.13511        0.621433 
        2.26194          1.1255         0.61098 
        2.27765         1.10472        0.600715 
        2.29341         1.09361        0.590659 
        2.30914         1.07435        0.580854 
        2.32486         1.06732        0.571277 
        2.34061         1.05238        0.561901 
        2.35635         1.03797        0.552743 
        2.37203         1.02355        0.543822 
        2.38768         1.01165        0.535116 
        2.40339          1.0025        0.526569 
        2.41914        0.989893        0.518189 
        2.43483        0.977214        0.510021 
         2.4505        0.962673        0.502043 
        2.46622          0.9504        0.494209 
        2.48195        0.940857        0.486541 
        2.49759        0.927398        0.479077 
        2.51328        0.915905         0.47175 
        2.52906         0.90878         0.46453 
        2.54479         0.89452        0.457489 
        2.56049        0.886179        0.450606 
        2.57618        0.875041        0.443872 
        2.59189        0.866406        0.437265 
        2.60758        0.855074        0.430803 
        2.62325        0.844581         0.42448 
        2.63898        0.837048        0.418261 
        2.65468        0.822836        0.412181 
        2.67044        0.818984        0.406195 
        2.68618        0.811825        0.400342 
        2.70184        0.799188        0.394627 
        2.71755        0.793414         0.38901 
        2.73329         0.78252        0.383494 
        2.74897        0.773551        0.378103 
        2.76462        0.764717        0.372827 
        2.78034        0.760011         0.36763 
        2.79607        0.750907        0.362527 
        2.81179        0.741036        0.357527 
        2.82749        0.733757        0.352626 
        2.84321        0.726147        0.347812 
        2.85893        0.717209        0.343089 
        2.87462        0.710663        0.338462 
        2.89033        0.706423        0.333917 
        2.90605        0.699851         0.32945 
        2.92176        0.691381        0.325068 
        2.93747        0.685317        0.320768 
        2.95318        0.676989        0.316545 
        2.96891        0.674355        0.312395 
        2.98456        0.661671        0.308339 
        3.00023        0.657794        0.304348 
        3.01596        0.651813        0.300416 
        3.03164        0.646437        0.296565 
        3.04738        0.639701         0.29277 
         3.0631        0.631298        0.289042 
        3.07883        0.627549        0.285379 
        3.09456        0.622497        0.281781 
        3.11026        0.616364        0.278249 
        3.12596        0.610099        0.274779 
        3.14163           0.608        0.271376 
        3.15734        0.600661        0.268023 
        3.17308         0.59452        0.264718 
        3.18879        0.591793        0.261478 
        3.20447        0.585637        0.258297 
         3.2202        0.576868        0.255159 
         3.2359        0.573753        0.252079 
        3.25157        0.567458        0.249057 
        3.26729        0.564958        0.246075 
        3.28304        0.560671        0.243136 
        3.29877        0.554957         0.24025 
        3.31446         0.55278        0.237416 
        3.33014        0.544274         0.23463 
        3.34585        0.541129        0.231885 
        3.36158        0.536912         0.22918 
        3.37727        0.534114        0.226526 
        3.39294        0.530064        0.223917 
        3.40867        0.524579        0.221339 
        3.42439        0.521011        0.218804 
        3.44008        0.516106        0.216313 
        3.45578        0.512273        0.213859 
        3.47153        0.509805        0.211438 
        3.48724        0.504751        0.209058 
        3.50292        0.500426        0.206721 
        3.51859        0.498803         0.20442 
        3.53431        0.493195        0.202147 
        3.55007        0.490349        0.199904 
        3.56577         0.48689        0.197703 
        3.58146        0.483366        0.195536 
        3.59719         0.47941        0.193397 
        3.61292        0.475114         0.19129 
        3.62859         0.47248        0.189223 
        3.64429        0.468318        0.187182 
        3.66003        0.464911        0.185165 
        3.67578        0.462329        0.183179 
        3.69146        0.459039        0.181229 
        3.70712        0.456894        0.179311 
        3.72284        0.453333        0.177414 
        3.73853        0.449683        0.175548 
        3.75422        0.446703        0.173707 
        3.76993        0.442873        0.171892 
        3.78564        0.439619        0.170103 
        3.80137        0.437418        0.168336 
        3.81707        0.433687        0.166599 
        3.83279        0.431216        0.164884 
        3.84853         0.42732        0.163191 
        3.86424        0.425272        0.161525 
        3.87992        0.423198        0.159885 
        3.89561         0.41983        0.158267 
        3.91134        0.415783        0.156669 
        3.92704         0.41309        0.155094 
        3.94273        0.410884        0.153543 
        3.95845        0.408872         0.15201 
        3.97418         0.40671        0.150497 
        3.98988        0.403121        0.149007 
        4.00554        0.398776        0.147542 
        4.02125        0.397033        0.146092 
        4.03698        0.392897        0.144659 
        4.05268        0.388222        0.143248 
        4.06839        0.386266        0.141856 
         4.0841        0.381565        0.140482 
        4.09983        0.379668        0.139124 
        4.11555        0.375777        0.137785 
        4.13124        0.373079        0.136468 
        4.14693        0.370507        0.135166 
        4.16266        0.365284        0.133878 
        4.17839        0.362759        0.132608 
        4.19408        0.361272        0.131358 
        4.20977        0.357884        0.130122 
        4.22551         0.35555          0.1289 
        4.24123        0.352533        0.127695 
        4.25691        0.350309        0.126508 
        4.27259        0.347219        0.125336 
        4.28831        0.345276        0.124177 
        4.30404        0.342905        0.123031 
        4.31974        0.340677        0.121902 
        4.33543        0.337642        0.120788 
        4.35116        0.336235        0.119685 
        4.36688        0.333849        0.118596 
        4.38255        0.331409        0.117525 
        4.39825        0.329534        0.116465 
        4.41398        0.327609        0.115416 
         4.4297        0.325918        0.114381 
        4.44541        0.323783        0.113358 
        4.46111        0.322221        0.112349 
        4.47683         0.32107        0.111352 
        4.49251        0.319002        0.110368 
        4.50819        0.318297        0.109397 
         4.5239         0.31626        0.108436 
        4.53962        0.314181        0.107485 
        4.55535        0.313469        0.106546 
        4.57106        0.312315        0.105618 
        4.58678        0.310162        0.104702 
         4.6025        0.309694        0.103796 
        4.61821        0.308249        0.102902 
        4.63391        0.308104        0.102019 
         4.6496        0.306135        0.101146 
        4.66532        0.305319        0.100283 
        4.68103        0.303684       0.0994296 
        4.69673        0.302754       0.0985873 
        4.71241        0.302358       0.0977555 
        4.72811        0.302316        0.096932 
        4.74384        0.300758       0.0961169 
        4.75955          0.3001       0.0953124 
        4.77525        0.299225       0.0945175 
        4.79096        0.298995       0.0937308 
        4.80669        0.298365       0.0929526 
         4.8224        0.297487       0.0921841 
        4.83809        0.296845       0.0914251 
        4.85379        0.296792       0.0906742 
         4.8695        0.297139       0.0899311 
        4.88521        0.296631       0.0891967 
        4.90093        0.296216       0.0884703 
        4.91663        0.295842       0.0877527 
        4.93234        0.294879       0.0870423 
        4.94807        0.295312       0.0863392 
        4.96377        0.295516       0.0856452 
        4.97943         0.29523       0.0849604 
        4.99514        0.294773       0.0842812 
        5.01086        0.295878       0.0836089 
        5.02654        0.295624       0.0829457 
        5.04227        0.295303       0.0822877 
          5.058        0.296228       0.0816366 
        5.07371        0.295798       0.0809937 
        5.08942        0.297341       0.0803577 
        5.10513         0.29718       0.0797285 
        5.12084        0.297176       0.0791056 
        5.13656        0.297544       0.0784896 
        5.15225        0.298232       0.0778811 
        5.16796        0.298729       0.0772781 
        5.18369        0.298356        0.076681 
         5.1994        0.300415       0.0760912 
        5.21509        0.300436       0.0755081 
        5.23079        0.300537       0.0749305 
        5.24649        0.302039       0.0743594 
        5.26217        0.301883       0.0737946 
        5.27788        0.303679       0.0732349 
        5.29359        0.304318       0.0726809 
        5.30933        0.304897       0.0721318 
        5.32504        0.306237       0.0715893 
        5.34073        0.307858       0.0710529 
        5.35646          0.3082        0.070521 
        5.37218        0.309169       0.0699944 
        5.38789         0.30886       0.0694741 
        5.40357        0.311636       0.0689596 
        5.41929        0.312616       0.0684492 
        5.43502        0.313744       0.0679439 
         5.4507        0.315277       0.0674449 
        5.46639        0.315819       0.0669508 
        5.48212        0.317023       0.0664606 
        5.49786        0.318152       0.0659746 
        5.51353        0.320374       0.0654959 
        5.52921        0.320674       0.0650215 
        5.54495        0.323228       0.0645504 
        5.56066        0.324005       0.0640844 
        5.57637        0.325158       0.0636232 
        5.59207        0.327358       0.0631668 
        5.60778         0.32848       0.0627148 
        5.62346        0.330338       0.0622678 
        5.63916        0.331443       0.0618247 
        5.65487        0.332795       0.0613858 
         5.6706        0.334354       0.0609505 
        5.68633        0.336532       0.0605193 
        5.70203        0.339321       0.0600932 
        5.71773        0.339173       0.0596713 
        5.73344        0.341954       0.0592532 
        5.74916        0.344559       0.0588386 
        5.76486         0.34535       0.0584287 
        5.78054        0.346851       0.0580232 
        5.79626        0.348476       0.0576205 
          5.812        0.351361       0.0572212 
         5.8277        0.352831       0.0568268 
        5.84339        0.353819       0.0564361 
        5.85911         0.35752       0.0560484 
        5.87484         0.35805       0.0556644 
        5.89053        0.361111       0.0552847 
        5.90623        0.362676       0.0549084 
        5.92195        0.363636       0.0545349 
        5.93767        0.365973       0.0541652 
        5.95336        0.367606       0.0537994 
        5.96905         0.36942       0.0534372 
        5.98476         0.37099       0.0530778 
        6.00048        0.372656       0.0527215 
        6.01617         0.37614       0.0523691 
        6.03185        0.377085       0.0520202 
        6.04756        0.378706       0.0516737 
        6.06331        0.381737       0.0513297 
        6.07903        0.383175       0.0509894 
        6.09473        0.384662       0.0506526 
        6.11044        0.386047       0.0503185 
        6.12616        0.389113       0.0499875 
        6.14186        0.389458       0.0496597 
        6.15755        0.394355        0.049335 
        6.17326        0.394875       0.0490129 
        6.18898        0.396322       0.0486935 
        6.20467        0.398973       0.0483775 
        6.22036        0.399696       0.0480643 
         6.2361        0.401921       0.0477531 
         6.2518        0.404608       0.0474451 
        6.26748        0.405853       0.0471406 
        6.28319        0.409254       0.0468378 
        6.29893        0.410964       0.0465375 
        6.31463        0.412153       0.0462403 
        6.33033        0.414778       0.0459457 
        6.34604        0.416456       0.0456536 
        6.36177        0.417989       0.0453637 
        6.37747        0.419144       0.0450768 
