# k  (h/Mpc)    Pcb(k)  (Mpc/h)^3    Pcb_linear(k) (Mpc/h)^3   ShotnoiseSubtracted = true
      0.0200456         20393.8         20867.4 
      0.0350414         14498.5         15169.9 
      0.0492313         10803.3         11022.1 
      0.0637834         9341.94         9162.61 
      0.0800726         7373.34         7272.14 
       0.096163         5114.09         5276.57 
       0.111083         4105.86         4208.73 
       0.126058         3782.85         3729.79 
       0.142273         3275.51         3159.95 
       0.158546         2854.78          2495.7 
        0.17375          2283.1         2102.62 
       0.188953         2231.23         1903.88 
       0.204907         2097.34         1684.54 
       0.220756         1815.41         1425.23 
        0.23588         1620.07         1239.82 
         0.2514         1410.02         1126.37 
       0.267535         1408.37         1019.17 
       0.283568         1277.18          898.77 
       0.299022         1207.14         800.758 
       0.314451         1150.87         731.838 
       0.330372         1057.18         671.379 
       0.346141          1005.5         609.379 
       0.361624         966.679         553.842 
       0.377134         899.571         509.622 
       0.392932         864.804         471.543 
       0.408854         846.299         434.672 
       0.424564         784.876         400.643 
       0.440253         771.799         371.443 
       0.455999         740.657         346.052 
       0.471626         712.443         322.718 
        0.48727         683.654          300.89 
       0.502856         665.303         281.281 
       0.518488         658.231         263.785 
       0.534347         616.491         247.519 
       0.550082         599.193         232.522 
       0.565732         597.714         218.801 
       0.581496         563.639         206.235 
       0.597222         553.914          194.71 
       0.612804         542.461         184.113 
       0.628434         526.478         174.235 
       0.644267         512.978             165 
       0.660051         497.059         156.489 
       0.675724         492.772          148.63 
       0.691403         476.391         141.304 
       0.707174         460.819         134.431 
       0.722871         455.844         128.042 
        0.73838         448.079         122.136 
       0.754018         437.006         116.559 
       0.769845         428.382         111.269 
        0.78569         422.097         106.303 
       0.801365         411.046          101.69 
       0.817031         398.828         97.3543 
       0.832809         396.292         93.2453 
       0.848511         387.147          89.393 
       0.864097         376.837         85.7859 
       0.879701         372.017         82.3754 
       0.895507         368.492         79.1109 
       0.911279         357.085         76.0309 
        0.92691         352.862         73.1411 
       0.942635         344.753         70.3863 
       0.958396         336.779         67.7682 
       0.974128         331.487         65.2886 
       0.989692         328.627          62.958 
        1.00528         320.865         60.7383 
        1.02113         319.131         58.5912 
        1.03692         310.097         56.5563 
        1.05264         308.148         54.6278 
        1.06832         300.149         52.7926 
        1.08405         295.783         51.0371 
        1.09979         290.354         49.3608 
        1.11537         285.762         47.7766 
        1.13105         280.203         46.2528 
        1.14679         275.345         44.7899 
        1.16256         270.412         43.3876 
        1.17828         268.473         42.0502 
        1.19395         261.987         40.7738 
         1.2097         260.167         39.5442 
        1.22537          254.27         38.3713 
          1.241         252.979         37.2498 
        1.25666         247.577         36.1704 
        1.27241         244.426         35.1289 
        1.28819         241.014         34.1268 
        1.30392          235.21         33.1668 
        1.31957         235.593         32.2481 
        1.33529         230.502          31.361 
        1.35108         225.256         30.5038 
        1.36674         223.588          29.685 
         1.3824         221.957          28.897 
        1.39811          218.64          28.135 
        1.41389         215.166         27.3977 
        1.42964         212.896         26.6882 
        1.44531         209.747         26.0073 
        1.46101          206.75         25.3488 
        1.47667         203.394         24.7151 
        1.49229         201.709         24.1048 
        1.50793         197.194         23.5145 
        1.52367         195.809         22.9403 
        1.53953         192.971         22.3814 
        1.55526         188.519         21.8456 
        1.57092          187.64         21.3296 
        1.58662         185.355         20.8291 
        1.60235          181.99         20.3437 
        1.61809         180.898         19.8736 
        1.63369         177.302         19.4226 
        1.64941         173.791         18.9823 
        1.66519          173.21         18.5542 
        1.68085         170.887         18.1423 
        1.69652         168.288         17.7428 
        1.71228         165.105         17.3531 
        1.72806         163.508         16.9749 
        1.74368         161.681         16.6117 
        1.75933         158.747         16.2584 
        1.77505         157.611         15.9138 
        1.79081         156.231         15.5786 
         1.8065         153.982         15.2545 
        1.82218         151.583         14.9399 
        1.83797         150.523         14.6321 
        1.85367         148.248         14.3346 
        1.86928         145.709         14.0472 
        1.88497         143.942         13.7661 
        1.90073         142.743         13.4917 
        1.91647         140.903         13.2251 
        1.93218         139.282         12.9662 
        1.94787         137.213         12.7146 
        1.96363         135.136         12.4688 
        1.97935         133.862         12.2299 
        1.99499         131.658         11.9987 
        2.01064         130.523         11.7731 
         2.0264         128.656         11.5519 
        2.04216         127.119         11.3365 
        2.05781         126.084          11.128 
        2.07353         124.813          10.924 
        2.08928         122.212         10.7246 
        2.10499         121.047         10.5308 
        2.12065         119.205         10.3423 
        2.13633          118.65         10.1583 
        2.15211         116.121          9.9776 
        2.16785         114.573          9.8018 
        2.18349           113.8         9.63134 
        2.19916           112.5         9.46458 
        2.21489         111.068         9.30122 
        2.23063         109.275         9.14161 
         2.2463         108.167         8.98647 
        2.26194         106.739         8.83531 
        2.27765          105.75         8.68687 
        2.29341         104.698         8.54145 
        2.30914         103.441         8.39966 
        2.32486         102.312         8.26117 
        2.34061         101.027         8.12558 
        2.35635         99.6671         7.99316 
        2.37203         98.3576         7.86414 
        2.38768          97.371         7.73824 
        2.40339         96.4106         7.61465 
        2.41914         95.1318         7.49347 
        2.43483         94.1807         7.37536 
         2.4505         92.9751         7.25999 
        2.46622         91.8062         7.14669 
        2.48195         90.6817         7.03581 
        2.49759         89.4289         6.92787 
        2.51328         89.1455         6.82192 
        2.52906         87.4619         6.71752 
        2.54479         86.6232         6.61569 
        2.56049         85.7132         6.51617 
        2.57618         84.7833         6.41878 
        2.59189         83.8028         6.32324 
        2.60758         83.1022          6.2298 
        2.62325         81.9153         6.13835 
        2.63898         80.7422         6.04843 
        2.65468         80.0167         5.96049 
        2.67044         79.1479         5.87393 
        2.68618         78.3146         5.78929 
        2.70184         77.8521         5.70666 
        2.71755         76.7626         5.62543 
        2.73329         75.9502         5.54566 
        2.74897         75.0321          5.4677 
        2.76462         74.1289         5.39141 
        2.78034         73.5268         5.31626 
        2.79607         72.2574         5.24246 
        2.81179         71.6704         5.17015 
        2.82749         70.8306         5.09929 
        2.84321          70.349         5.02967 
        2.85893         69.5312         4.96138 
        2.87462         68.5421         4.89447 
        2.89033          67.841         4.82873 
        2.90605         67.1546         4.76414 
        2.92176         66.4947         4.70077 
        2.93747         66.0709         4.63859 
        2.95318         65.1523         4.57751 
        2.96891         64.7068         4.51751 
        2.98456         63.9973         4.45885 
        3.00023         63.0411         4.40114 
        3.01596         62.5767         4.34428 
        3.03164         61.7192         4.28859 
        3.04738         61.2765         4.23371 
         3.0631         60.5803          4.1798 
        3.07883         59.9787         4.12684 
        3.09456         59.3219          4.0748 
        3.11026         58.6059         4.02373 
        3.12596         58.0322         3.97355 
        3.14163         57.4814         3.92434 
        3.15734         57.0399         3.87585 
        3.17308          56.189         3.82806 
        3.18879         55.9336         3.78121 
        3.20447         54.9659          3.7352 
         3.2202         54.7142         3.68983 
         3.2359         54.0558         3.64528 
        3.25157         53.4784         3.60158 
        3.26729         53.0544         3.55846 
        3.28304          52.508         3.51597 
        3.29877         52.0097         3.47422 
        3.31446         51.2666         3.43324 
        3.33014          50.948         3.39296 
        3.34585         50.6421         3.35326 
        3.36158          50.049         3.31414 
        3.37727         49.6201         3.27577 
        3.39294         49.1045         3.23804 
        3.40867         48.5877         3.20076 
        3.42439         47.9579          3.1641 
        3.44008         47.6481         3.12808 
        3.45578         47.0967         3.09259 
        3.47153         46.6606         3.05758 
        3.48724         46.2171         3.02316 
        3.50292          45.873         2.98936 
        3.51859         45.3614         2.95609 
        3.53431         44.9623         2.92323 
        3.55007         44.3766         2.89078 
        3.56577         44.1192         2.85896 
        3.58146          43.616         2.82762 
        3.59719         43.2615         2.79669 
        3.61292         42.6987         2.76622 
        3.62859         42.4556         2.73633 
        3.64429          42.134         2.70682 
        3.66003         41.6693         2.67765 
        3.67578         41.1439         2.64893 
        3.69146         40.8638         2.62073 
        3.70712         40.5037           2.593 
        3.72284          40.002         2.56556 
        3.73853         39.7029         2.53857 
        3.75422         39.2219         2.51196 
        3.76993         39.0742         2.48571 
        3.78564         38.7113         2.45984 
        3.80137         38.3048         2.43429 
        3.81707         37.9371         2.40917 
        3.83279          37.774         2.38437 
        3.84853         37.2963         2.35989 
        3.86424         36.8717          2.3358 
        3.87992         36.6951         2.31208 
        3.89561         36.3135         2.28869 
        3.91134         35.8199         2.26557 
        3.92704         35.7095          2.2428 
        3.94273         35.2308         2.22036 
        3.95845         35.0708         2.19819 
        3.97418         34.7118         2.17632 
        3.98988         34.4186         2.15478 
        4.00554         34.0578         2.13358 
        4.02125         33.7116         2.11261 
        4.03698         33.4794         2.09189 
        4.05268         33.2027          2.0715 
        4.06839         32.8761         2.05136 
         4.0841         32.6561         2.03149 
        4.09983         32.3338         2.01186 
        4.11555         32.0345          1.9925 
        4.13124         31.8185         1.97344 
        4.14693         31.4445         1.95462 
        4.16266         31.2033           1.936 
        4.17839          30.909         1.91763 
        4.19408         30.6441         1.89955 
        4.20977         30.3919         1.88169 
        4.22551         30.1167         1.86401 
        4.24123          29.969         1.84658 
        4.25691         29.6463         1.82942 
        4.27259         29.4147         1.81247 
        4.28831         29.1118         1.79571 
        4.30404         28.9265         1.77914 
        4.31974         28.6022         1.76281 
        4.33543         28.3672          1.7467 
        4.35116         28.2771         1.73075 
        4.36688         27.9327         1.71501 
        4.38255         27.6571         1.69952 
        4.39825         27.4422         1.68419 
        4.41398         27.2061         1.66901 
         4.4297         27.0157         1.65404 
        4.44541         26.7368         1.63926 
        4.46111         26.5628         1.62467 
        4.47683         26.3621         1.61024 
        4.49251         26.0955         1.59602 
        4.50819         25.8904         1.58198 
         4.5239         25.6823         1.56808 
        4.53962         25.4826         1.55433 
        4.55535         25.2702         1.54074 
        4.57106          25.069         1.52734 
        4.58678         24.8771         1.51409 
         4.6025         24.6888         1.50099 
        4.61821         24.5158         1.48805 
        4.63391          24.271         1.47528 
         4.6496         24.0655         1.46266 
        4.66532         23.8983         1.45018 
        4.68103         23.6721         1.43784 
        4.69673         23.5021         1.42566 
        4.71241         23.3594         1.41363 
        4.72811         23.1271         1.40172 
        4.74384         22.9694         1.38993 
        4.75955          22.803          1.3783 
        4.77525         22.5742         1.36681 
        4.79096         22.4373         1.35543 
        4.80669         22.2328         1.34418 
         4.8224         22.0646         1.33306 
        4.83809         21.9014         1.32209 
        4.85379         21.6305         1.31123 
         4.8695         21.5653         1.30048 
        4.88521         21.3817         1.28986 
        4.90093         21.1642         1.27936 
        4.91663          20.988         1.26898 
        4.93234         20.8925         1.25871 
        4.94807         20.6773         1.24854 
        4.96377         20.5827         1.23851 
        4.97943         20.4415          1.2286 
        4.99514         20.2373         1.21878 
        5.01086          20.094         1.20906 
        5.02654         19.9056         1.19947 
        5.04227         19.7967         1.18995 
          5.058          19.596         1.18054 
        5.07371         19.4783         1.17124 
        5.08942         19.3386         1.16204 
        5.10513         19.1889         1.15294 
        5.12084         19.0351         1.14394 
        5.13656         18.8355         1.13503 
        5.15225         18.7734         1.12623 
        5.16796         18.6508         1.11751 
        5.18369         18.4549         1.10887 
         5.1994         18.3749         1.10035 
        5.21509         18.1635         1.09191 
        5.23079         18.0592         1.08356 
        5.24649         17.9404          1.0753 
        5.26217          17.784         1.06714 
        5.27788         17.6447         1.05904 
        5.29359          17.551         1.05103 
        5.30933         17.3643         1.04309 
        5.32504           17.26         1.03524 
        5.34073         17.1426         1.02749 
        5.35646         17.0393          1.0198 
        5.37218         16.8747         1.01218 
        5.38789         16.7629         1.00466 
        5.40357         16.6438        0.997217 
        5.41929          16.563        0.989836 
        5.43502         16.4027        0.982528 
         5.4507         16.3042        0.975312 
        5.46639         16.1715        0.968168 
        5.48212         16.0341        0.961078 
        5.49786         15.9028        0.954051 
        5.51353         15.8147        0.947129 
        5.52921         15.7329        0.940268 
        5.54495         15.6262        0.933455 
        5.56066          15.508        0.926717 
        5.57637         15.3746        0.920047 
        5.59207         15.2471        0.913448 
        5.60778         15.1891        0.906911 
        5.62346         15.0711        0.900447 
        5.63916         14.9272         0.89404 
        5.65487         14.8416        0.887692 
         5.6706         14.7164        0.881398 
        5.68633         14.6303        0.875163 
        5.70203         14.5334        0.869001 
        5.71773         14.4346        0.862899 
        5.73344         14.3396        0.856853 
        5.74916         14.2296        0.850859 
        5.76486         14.1194         0.84493 
        5.78054         14.0294        0.839067 
        5.79626         13.9322        0.833243 
          5.812         13.8207        0.827469 
         5.8277         13.7182        0.821766 
        5.84339          13.645        0.816116 
        5.85911         13.5444        0.810509 
        5.87484         13.4494        0.804956 
        5.89053         13.3451        0.799466 
        5.90623         13.2663        0.794024 
        5.92195         13.1659        0.788623 
        5.93767         13.0757        0.783276 
        5.95336         12.9827        0.777987 
        5.96905         12.9079        0.772749 
        5.98476         12.8209        0.767551 
        6.00048         12.7032          0.7624 
        6.01617         12.6461        0.757303 
        6.03185         12.5566        0.752258 
        6.04756         12.4916        0.747248 
        6.06331         12.3794        0.742272 
        6.07903          12.296        0.737352 
        6.09473         12.2172        0.732481 
        6.11044         12.1405         0.72765 
        6.12616         12.0664        0.722863 
        6.14186         11.9882        0.718124 
        6.15755         11.9005        0.713427 
        6.17326         11.7881        0.708769 
        6.18898         11.7525         0.70415 
        6.20467         11.6582        0.699581 
        6.22036         11.5676        0.695053 
         6.2361         11.5045        0.690552 
         6.2518         11.4434        0.686099 
        6.26748         11.3577        0.681694 
        6.28319         11.2715        0.677316 
        6.29893         11.1956        0.672973 
        6.31463         11.1255        0.668675 
        6.33033         11.0405        0.664416 
        6.34604         10.9957        0.660191 
        6.36177         10.9007        0.655999 
        6.37747          10.849        0.651851 
