# k  (h/Mpc)    Pcb(k)  (Mpc/h)^3    Pcb_linear(k) (Mpc/h)^3   ShotnoiseSubtracted = true
      0.0200456         13557.2         13766.7 
      0.0350414         10284.4         10007.9 
      0.0492313         7185.79         7271.54 
      0.0637834         5808.81         6044.77 
      0.0800726         4572.62         4797.58 
       0.096163         3605.04         3481.06 
       0.111083          2931.6         2776.59 
       0.126058            2438         2460.62 
       0.142273         2109.44         2084.69 
       0.158546         1732.72         1646.47 
        0.17375         1521.82         1387.15 
       0.188953         1416.43         1256.03 
       0.204907         1211.71         1111.33 
       0.220756         1087.86         940.252 
        0.23588         968.024         817.938 
         0.2514         867.686         743.088 
       0.267535         841.983         672.367 
       0.283568         737.981         592.938 
       0.299022         704.439         528.277 
       0.314451         717.239         482.809 
       0.330372          617.47         442.923 
       0.346141         571.405          402.02 
       0.361624         546.746         365.381 
       0.377134         514.606         336.209 
       0.392932          497.71         311.087 
       0.408854         473.868         286.762 
       0.424564         459.108         264.313 
       0.440253         416.898         245.049 
       0.455999         399.411         228.298 
       0.471626         403.066         212.904 
        0.48727         381.603         198.504 
       0.502856         352.298         185.567 
       0.518488         352.831         174.024 
       0.534347         328.758         163.294 
       0.550082         317.915           153.4 
       0.565732         316.227         144.348 
       0.581496         302.782         136.058 
       0.597222         294.251         128.454 
       0.612804         286.688         121.463 
       0.628434         275.773         114.947 
       0.644267         264.237         108.854 
       0.660051         260.253         103.239 
       0.675724          256.97         98.0545 
       0.691403          250.23         93.2214 
       0.707174         241.208         88.6868 
       0.722871         237.605         84.4719 
        0.73838         235.351          80.576 
       0.754018         224.107         76.8964 
       0.769845         223.786         73.4066 
        0.78569         218.186         70.1304 
       0.801365         212.253         67.0869 
       0.817031         207.988         64.2267 
       0.832809         204.601         61.5159 
       0.848511         199.463         58.9745 
       0.864097         194.938         56.5948 
       0.879701         193.911         54.3448 
       0.895507         189.298         52.1911 
       0.911279         183.772         50.1592 
        0.92691         181.429         48.2528 
       0.942635         179.583         46.4354 
       0.958396         175.676         44.7081 
       0.974128         172.409         43.0723 
       0.989692         167.295         41.5347 
        1.00528         166.451         40.0703 
        1.02113         162.955         38.6539 
        1.03692         160.378         37.3114 
        1.05264         158.103         36.0391 
        1.06832         156.445         34.8284 
        1.08405         152.807         33.6703 
        1.09979          151.92         32.5644 
        1.11537          148.68         31.5193 
        1.13105         146.795          30.514 
        1.14679         144.703         29.5488 
        1.16256         142.328         28.6237 
        1.17828         140.729         27.7414 
        1.19395         137.323         26.8994 
         1.2097         136.494         26.0881 
        1.22537          134.59         25.3144 
          1.241         132.405         24.5745 
        1.25666         129.748         23.8624 
        1.27241         126.965         23.1753 
        1.28819         126.275         22.5142 
        1.30392         124.165         21.8808 
        1.31957         121.941         21.2748 
        1.33529         120.706         20.6895 
        1.35108         119.335          20.124 
        1.36674          117.16         19.5838 
         1.3824         116.829         19.0639 
        1.39811         113.842         18.5613 
        1.41389          112.94         18.0749 
        1.42964         110.645         17.6068 
        1.44531         109.761         17.1576 
        1.46101         107.796         16.7231 
        1.47667         107.521         16.3051 
        1.49229          106.22         15.9025 
        1.50793         104.126          15.513 
        1.52367         102.974         15.1342 
        1.53953         101.742         14.7655 
        1.55526          100.48          14.412 
        1.57092          99.686         14.0716 
        1.58662         98.2096         13.7414 
        1.60235         96.5555         13.4212 
        1.61809          95.954          13.111 
        1.63369         94.1461         12.8135 
        1.64941          94.107          12.523 
        1.66519         92.2434         12.2406 
        1.68085         90.9588         11.9688 
        1.69652         89.5846         11.7053 
        1.71228          88.726         11.4482 
        1.72806         87.9356         11.1987 
        1.74368         86.3794         10.9591 
        1.75933         85.7648          10.726 
        1.77505         84.8463         10.4987 
        1.79081         83.4128         10.2775 
         1.8065          82.821         10.0637 
        1.82218         81.4886         9.85618 
        1.83797         81.0954         9.65308 
        1.85367         79.4631         9.45684 
        1.86928         78.8834         9.26725 
        1.88497         78.1197         9.08182 
        1.90073         77.2122         8.90079 
        1.91647         75.9017         8.72487 
        1.93218         75.1097         8.55408 
        1.94787         74.2051         8.38812 
        1.96363          73.337         8.22592 
        1.97935         72.7117         8.06834 
        1.99499         71.8516         7.91579 
        2.01064         70.8808         7.76697 
         2.0264         69.9022         7.62104 
        2.04216         69.1192         7.47894 
        2.05781         68.4242         7.34136 
        2.07353         67.6328         7.20676 
        2.08928         66.7754         7.07525 
        2.10499         66.0046         6.94737 
        2.12065         65.5016         6.82304 
        2.13633         64.8717         6.70165 
        2.15211         63.8627         6.58244 
        2.16785         62.8186         6.46645 
        2.18349         62.3651           6.354 
        2.19916         61.6017         6.24398 
        2.21489         60.8804         6.13621 
        2.23063         60.1529         6.03092 
         2.2463         59.6257         5.92856 
        2.26194         59.1636         5.82885 
        2.27765         58.2794         5.73091 
        2.29341         57.5986         5.63498 
        2.30914         56.8731         5.54143 
        2.32486         56.1472         5.45007 
        2.34061          55.815         5.36062 
        2.35635         54.9497         5.27325 
        2.37203         54.4769         5.18814 
        2.38768         53.9554         5.10508 
        2.40339         53.3538         5.02355 
        2.41914         52.6712          4.9436 
        2.43483         52.1006         4.86568 
         2.4505         51.6949         4.78957 
        2.46622         51.1076         4.71483 
        2.48195         50.4611         4.64167 
        2.49759         49.8783         4.57047 
        2.51328         49.5534         4.50057 
        2.52906         48.8189         4.43169 
        2.54479         48.4179         4.36451 
        2.56049         47.5805         4.29885 
        2.57618         47.2593         4.23461 
        2.59189         46.8734         4.17158 
        2.60758         46.0889         4.10993 
        2.62325         45.7655          4.0496 
        2.63898         45.3467         3.99028 
        2.65468         44.9013         3.93227 
        2.67044         44.4257         3.87516 
        2.68618         44.0573         3.81932 
        2.70184         43.2889          3.7648 
        2.71755         43.0531         3.71122 
        2.73329         42.4742         3.65859 
        2.74897         42.2698         3.60716 
        2.76462         41.6534         3.55683 
        2.78034          41.274         3.50725 
        2.79607         40.7836         3.45856 
        2.81179         40.4474         3.41086 
        2.82749         39.9471         3.36411 
        2.84321          39.593         3.31818 
        2.85893         39.0789         3.27313 
        2.87462         38.6233         3.22898 
        2.89033         38.3721         3.18562 
        2.90605         37.8438         3.14301 
        2.92176          37.657          3.1012 
        2.93747         37.3149         3.06017 
        2.95318         36.9062         3.01988 
        2.96891         36.4028          2.9803 
        2.98456         36.2032          2.9416 
        3.00023         35.7707         2.90353 
        3.01596         35.4245         2.86602 
        3.03164         35.0543         2.82927 
        3.04738         34.6971         2.79307 
         3.0631         34.5056          2.7575 
        3.07883         34.0379         2.72256 
        3.09456         33.5704         2.68823 
        3.11026         33.2725         2.65454 
        3.12596         32.9988         2.62144 
        3.14163         32.6774         2.58897 
        3.15734         32.3694         2.55698 
        3.17308         32.0569         2.52545 
        3.18879         31.6759         2.49454 
        3.20447         31.3819         2.46419 
         3.2202         31.1312         2.43426 
         3.2359         30.8211         2.40487 
        3.25157         30.5978         2.37604 
        3.26729         30.1969         2.34759 
        3.28304         29.9066         2.31956 
        3.29877         29.5039         2.29202 
        3.31446         29.3031         2.26498 
        3.33014         29.0337         2.23841 
        3.34585         28.7541         2.21222 
        3.36158         28.5237         2.18641 
        3.37727         28.2268         2.16109 
        3.39294         27.9274          2.1362 
        3.40867          27.666         2.11161 
        3.42439         27.4825         2.08742 
        3.44008         27.1945         2.06366 
        3.45578         27.0184         2.04025 
        3.47153         26.6609         2.01715 
        3.48724         26.4221         1.99445 
        3.50292         26.2027         1.97215 
        3.51859         25.8736          1.9502 
        3.53431         25.6663         1.92852 
        3.55007         25.4156         1.90711 
        3.56577         25.1517         1.88611 
        3.58146         24.9854         1.86544 
        3.59719          24.749         1.84503 
        3.61292         24.5307         1.82494 
        3.62859         24.3293         1.80521 
        3.64429         24.0353         1.78575 
        3.66003          23.909          1.7665 
        3.67578         23.6467         1.74755 
        3.69146         23.4621         1.72895 
        3.70712         23.2587         1.71066 
        3.72284          23.078         1.69256 
        3.73853         22.8798         1.67475 
        3.75422         22.5369         1.65719 
        3.76993         22.3709         1.63987 
        3.78564         22.1704         1.62281 
        3.80137         21.9648         1.60596 
        3.81707         21.8194         1.58938 
        3.83279         21.6292         1.57302 
        3.84853         21.4126         1.55687 
        3.86424          21.215         1.54098 
        3.87992         21.0179         1.52533 
        3.89561          20.905         1.50989 
        3.91134         20.6009         1.49464 
        3.92704         20.5305         1.47962 
        3.94273         20.2551         1.46482 
        3.95845         20.1308          1.4502 
        3.97418         19.8962         1.43577 
        3.98988         19.7661         1.42155 
        4.00554         19.6526         1.40757 
        4.02125         19.3891         1.39374 
        4.03698         19.2227         1.38007 
        4.05268         19.0745         1.36661 
        4.06839         18.9429         1.35332 
         4.0841         18.7285         1.34022 
        4.09983         18.5357         1.32727 
        4.11555         18.3808         1.31449 
        4.13124         18.2955         1.30192 
        4.14693         18.0915         1.28951 
        4.16266         18.0102         1.27722 
        4.17839         17.8152          1.2651 
        4.19408         17.6269         1.25317 
        4.20977         17.5313         1.24139 
        4.22551         17.3557         1.22973 
        4.24123         17.2116         1.21823 
        4.25691         17.0124         1.20691 
        4.27259         16.9299         1.19573 
        4.28831         16.8035         1.18467 
        4.30404         16.6441         1.17373 
        4.31974         16.5499         1.16296 
        4.33543          16.388         1.15234 
        4.35116         16.2104         1.14181 
        4.36688          16.119         1.13143 
        4.38255         15.9842         1.12121 
        4.39825         15.7975         1.11109 
        4.41398         15.7357         1.10108 
         4.4297         15.5881         1.09121 
        4.44541         15.4102         1.08145 
        4.46111         15.3322         1.07183 
        4.47683         15.1581         1.06231 
        4.49251         15.0713         1.05293 
        4.50819         14.9394         1.04366 
         4.5239         14.7975          1.0345 
        4.53962         14.7091         1.02543 
        4.55535         14.5679         1.01646 
        4.57106         14.4947         1.00762 
        4.58678         14.3364        0.998874 
         4.6025         14.2334        0.990234 
        4.61821          14.133        0.981698 
        4.63391         13.9969        0.973273 
         4.6496          13.864         0.96495 
        4.66532         13.7591        0.956712 
        4.68103         13.6593        0.948574 
        4.69673         13.5518        0.940537 
        4.71241          13.451        0.932602 
        4.72811          13.324        0.924746 
        4.74384         13.2491        0.916969 
        4.75955         13.1341        0.909295 
        4.77525          13.022        0.901711 
        4.79096         12.9178        0.894206 
        4.80669          12.845        0.886782 
         4.8224         12.7303         0.87945 
        4.83809         12.6557        0.872209 
        4.85379         12.5353        0.865046 
         4.8695         12.4431        0.857957 
        4.88521         12.3584         0.85095 
        4.90093         12.2819         0.84402 
        4.91663         12.1965        0.837174 
        4.93234          12.091        0.830396 
        4.94807         12.0011        0.823689 
        4.96377         11.9008        0.817069 
        4.97943         11.8202        0.810535 
        4.99514         11.7015        0.804055 
        5.01086         11.6185        0.797642 
        5.02654         11.5292        0.791315 
        5.04227          11.401        0.785037 
          5.058         11.3571        0.778825 
        5.07371         11.2691        0.772692 
        5.08942         11.2039        0.766625 
        5.10513         11.1039        0.760622 
        5.12084         11.0303         0.75468 
        5.13656         10.9557        0.748802 
        5.15225         10.8577        0.742998 
        5.16796          10.791        0.737245 
        5.18369         10.7074        0.731548 
         5.1994         10.5985        0.725921 
        5.21509          10.555        0.720359 
        5.23079         10.4333        0.714849 
        5.24649         10.3764          0.7094 
        5.26217         10.2916        0.704012 
        5.27788         10.2332        0.698672 
        5.29359          10.138        0.693386 
        5.30933         10.0926        0.688148 
        5.32504         9.99935        0.682972 
        5.34073         9.95316        0.677856 
        5.35646          9.8621        0.672781 
        5.37218         9.78763        0.667758 
        5.38789         9.70561        0.662793 
        5.40357         9.64087        0.657885 
        5.41929         9.58588        0.653016 
        5.43502         9.51792        0.648195 
         5.4507         9.42677        0.643434 
        5.46639          9.3871        0.638721 
        5.48212         9.28912        0.634044 
        5.49786         9.22505        0.629408 
        5.51353         9.17322        0.624841 
        5.52921         9.11137        0.620315 
        5.54495         9.04683         0.61582 
        5.56066         8.96741        0.611375 
        5.57637         8.90465        0.606975 
        5.59207         8.85536        0.602621 
        5.60778         8.77402        0.598308 
        5.62346         8.72979        0.594044 
        5.63916         8.66936        0.589817 
        5.65487         8.61108        0.585629 
         5.6706           8.542        0.581477 
        5.68633         8.48199        0.577364 
        5.70203         8.40987        0.573298 
        5.71773         8.36849        0.569273 
        5.73344         8.32289        0.565284 
        5.74916         8.25265         0.56133 
        5.76486         8.20355        0.557418 
        5.78054         8.13699         0.55355 
        5.79626          8.0745        0.549708 
          5.812         8.03881        0.545899 
         5.8277         7.99263        0.542136 
        5.84339         7.92243        0.538409 
        5.85911         7.85973         0.53471 
        5.87484         7.82095        0.531047 
        5.89053         7.75039        0.527425 
        5.90623         7.69191        0.523835 
        5.92195         7.65879        0.520272 
        5.93767         7.60125        0.516744 
        5.95336          7.5705        0.513255 
        5.96905         7.48784        0.509799 
        5.98476         7.44661         0.50637 
        6.00048         7.40005        0.502972 
        6.01617          7.3447        0.499609 
        6.03185         7.30623        0.496281 
        6.04756         7.25588        0.492975 
        6.06331         7.20718        0.489693 
        6.07903         7.15529        0.486447 
        6.09473         7.10805        0.483233 
        6.11044         7.07915        0.480046 
        6.12616         7.01234        0.476888 
        6.14186         6.97601        0.473762 
        6.15755         6.91867        0.470663 
        6.17326         6.88814         0.46759 
        6.18898         6.83374        0.464543 
        6.20467         6.78431        0.461529 
        6.22036         6.75353        0.458541 
         6.2361         6.69594        0.455572 
         6.2518         6.65667        0.452634 
        6.26748         6.60517        0.449728 
        6.28319         6.57193         0.44684 
        6.29893         6.53297        0.443974 
        6.31463         6.48568        0.441139 
        6.33033         6.45479        0.438329 
        6.34604         6.40959        0.435542 
        6.36177         6.35057        0.432776 
        6.37747         6.33488         0.43004 
