# k  (h/Mpc)    Pcb(k)  (Mpc/h)^3    Pcb_linear(k) (Mpc/h)^3   ShotnoiseSubtracted = true
      0.0200456         518.372         525.191 
      0.0350414         363.425         363.595 
      0.0492313         261.039         259.952 
      0.0637834         216.143         215.113 
      0.0800726         167.101         166.172 
       0.096163         118.193         118.055 
       0.111083         94.7845         95.1536 
       0.126058         84.6082         84.5362 
       0.142273         70.1237         69.6428 
       0.158546         54.9401         54.3149 
        0.17375           46.43          46.534 
       0.188953         42.3361          42.208 
       0.204907         37.3968           36.52 
       0.220756         31.0464         30.5866 
        0.23588         27.2849         26.9425 
         0.2514         24.6731         24.5721 
       0.267535         22.1014         21.8985 
       0.283568         19.4205         19.1423 
       0.299022         17.5005         17.1737 
       0.314451         15.7836         15.7534 
       0.330372         14.4806         14.3278 
       0.346141         13.0716          12.913 
       0.361624         11.9681          11.765 
       0.377134         11.1141         10.8529 
       0.392932         9.96639         10.0011 
       0.408854         9.38577          9.1734 
       0.424564         8.61084         8.45339 
       0.440253         7.98417         7.84625 
       0.455999         7.47759         7.29636 
       0.471626         6.99036         6.78283 
        0.48727         6.47957         6.31656 
       0.502856         6.03027         5.90556 
       0.518488         5.73255         5.53237 
       0.534347         5.42608         5.18127 
       0.550082          4.9764         4.86075 
       0.565732         4.60333         4.57176 
       0.581496          4.4497         4.30572 
       0.597222         4.22409         4.06009 
       0.612804         3.94935          3.8347 
       0.628434         3.78614         3.62613 
       0.644267         3.57215         3.43148 
       0.660051         3.36562         3.25172 
       0.675724         3.20272         3.08579 
       0.691403         3.06956         2.93125 
       0.707174         2.89935         2.78639 
       0.722871         2.75579         2.65186 
        0.73838         2.64582         2.52762 
       0.754018         2.54915         2.41038 
       0.769845         2.41213          2.2993 
        0.78569         2.31136         2.19511 
       0.801365         2.20254          2.0984 
       0.817031          2.1192          2.0076 
       0.832809         2.02915         1.92162 
       0.848511         1.92783         1.84106 
       0.864097         1.84284         1.76569 
       0.879701         1.77284         1.69448 
       0.895507         1.70736         1.62636 
       0.911279         1.65925         1.56213 
        0.92691         1.58975         1.50191 
       0.942635         1.52422         1.44454 
       0.958396         1.46186         1.39005 
       0.974128         1.41184         1.33847 
       0.989692         1.37177         1.29002 
        1.00528         1.31505         1.24389 
        1.02113         1.25993         1.19931 
        1.03692         1.23134         1.15707 
        1.05264         1.18487         1.11707 
        1.06832         1.14995         1.07902 
        1.08405         1.09526         1.04265 
        1.09979         1.06564         1.00793 
        1.11537         1.03732        0.975138 
        1.13105         1.00644        0.943611 
        1.14679        0.978841        0.913358 
        1.16256        0.936914        0.884374 
        1.17828        0.911416        0.856744 
        1.19395        0.883035        0.830389 
         1.2097        0.846477        0.805009 
        1.22537        0.830534        0.780814 
          1.241        0.807069        0.757686 
        1.25666        0.793708        0.735439 
        1.27241        0.757453        0.713981 
        1.28819        0.736799        0.693344 
        1.30392        0.720804        0.673582 
        1.31957        0.701232         0.65468 
        1.33529        0.678888        0.636433 
        1.35108        0.659496         0.61881 
        1.36674        0.635715        0.601981 
         1.3824        0.626519        0.585793 
        1.39811        0.607347        0.570146 
        1.41389        0.593653        0.555012 
        1.42964        0.579371        0.540452 
        1.44531        0.559994        0.526486 
        1.46101        0.549665        0.512984 
        1.47667        0.527926        0.499995 
        1.49229        0.522258        0.487491 
        1.50793        0.505651          0.4754 
        1.52367         0.49554        0.463642 
        1.53953        0.480657        0.452202 
        1.55526        0.470437         0.44124 
        1.57092        0.457444        0.430686 
        1.58662        0.449089        0.420452 
        1.60235        0.438359        0.410531 
        1.61809        0.424145        0.400925 
        1.63369        0.421715        0.391711 
        1.64941        0.407743        0.382721 
        1.66519        0.398037         0.37398 
        1.68085         0.38707        0.365575 
        1.69652        0.379072        0.357425 
        1.71228          0.3728        0.349477 
        1.72806        0.361229        0.341765 
        1.74368        0.357213        0.334362 
        1.75933        0.347331        0.327164 
        1.77505        0.339786        0.320144 
        1.79081        0.333512        0.313317 
         1.8065        0.323098        0.306718 
        1.82218        0.318852        0.300315 
        1.83797         0.31123        0.294051 
        1.85367        0.307575           0.288 
        1.86928        0.299946        0.282156 
        1.88497        0.293259        0.276441 
        1.90073        0.286489        0.270864 
        1.91647        0.281998        0.265445 
        1.93218        0.275023        0.260186 
        1.94787        0.270031        0.255077 
        1.96363        0.264297        0.250084 
        1.97935        0.258411        0.245236 
        1.99499        0.254099        0.240543 
        2.01064        0.248973        0.235966 
         2.0264        0.242887        0.231479 
        2.04216        0.240693        0.227111 
        2.05781        0.235246        0.222883 
        2.07353        0.229078        0.218748 
        2.08928         0.22453        0.214708 
        2.10499          0.2217        0.210781 
        2.12065        0.218362        0.206964 
        2.13633        0.213689        0.203238 
        2.15211        0.210075        0.199579 
        2.16785        0.205515        0.196021 
        2.18349        0.201007        0.192571 
        2.19916        0.198699        0.189198 
        2.21489        0.194413        0.185893 
        2.23063        0.191702        0.182666 
         2.2463        0.187947        0.179529 
        2.26194        0.183338        0.176474 
        2.27765        0.180846        0.173474 
        2.29341        0.178032        0.170536 
        2.30914         0.17502        0.167671 
        2.32486        0.171698        0.164874 
        2.34061        0.168805        0.162137 
        2.35635        0.165334        0.159463 
        2.37203        0.162666        0.156859 
        2.38768        0.159962        0.154319 
        2.40339        0.157795        0.151825 
        2.41914        0.155309        0.149381 
        2.43483        0.152547        0.146999 
         2.4505        0.148991        0.144673 
        2.46622        0.146948        0.142389 
        2.48195        0.144734        0.140154 
        2.49759        0.142933        0.137979 
        2.51328        0.140201        0.135844 
        2.52906        0.138078        0.133741 
        2.54479        0.135352         0.13169 
        2.56049         0.13299        0.129687 
        2.57618         0.13101        0.127726 
        2.59189        0.129464        0.125803 
        2.60758        0.127843        0.123922 
        2.62325        0.125113        0.122083 
        2.63898        0.123453        0.120274 
        2.65468           0.121        0.118505 
        2.67044        0.119612        0.116764 
        2.68618        0.117685        0.115062 
        2.70184        0.115792        0.113401 
        2.71755        0.113565        0.111769 
        2.73329        0.112379        0.110166 
        2.74897        0.110933        0.108599 
        2.76462        0.108977        0.107067 
        2.78034        0.107468        0.105557 
        2.79607         0.10551        0.104075 
        2.81179        0.104719        0.102623 
        2.82749        0.102655        0.101201 
        2.84321         0.10122       0.0998036 
        2.85893        0.100061       0.0984331 
        2.87462       0.0985132       0.0970906 
        2.89033       0.0971642       0.0957718 
        2.90605       0.0953963       0.0944763 
        2.92176       0.0944314       0.0932055 
        2.93747       0.0928094       0.0919585 
        2.95318        0.091703       0.0907341 
        2.96891       0.0903513       0.0895313 
        2.98456        0.089116       0.0883557 
        3.00023       0.0880223       0.0871993 
        3.01596       0.0866737       0.0860601 
        3.03164       0.0859471       0.0849443 
        3.04738        0.084207       0.0838451 
         3.0631       0.0834023       0.0827656 
        3.07883       0.0821597        0.081705 
        3.09456       0.0810831       0.0806632 
        3.11026       0.0799351        0.079641 
        3.12596       0.0789897       0.0786367 
        3.14163       0.0779369       0.0776519 
        3.15734       0.0771853       0.0766817 
        3.17308       0.0762647       0.0757256 
        3.18879        0.075178       0.0747885 
        3.20447       0.0740065       0.0738685 
         3.2202        0.073575       0.0729611 
         3.2359       0.0724197       0.0720705 
        3.25157       0.0714578       0.0711969 
        3.26729       0.0703872        0.070335 
        3.28304       0.0700139       0.0694858 
        3.29877       0.0690022       0.0686516 
        3.31446       0.0681962       0.0678328 
        3.33014       0.0676354       0.0670282 
        3.34585       0.0668474       0.0662353 
        3.36158       0.0661114        0.065454 
        3.37727       0.0654074       0.0646877 
        3.39294       0.0644217       0.0639344 
        3.40867       0.0636584       0.0631903 
        3.42439       0.0630794       0.0624585 
        3.44008       0.0621324       0.0617396 
        3.45578       0.0616759       0.0610314 
        3.47153       0.0609205       0.0603328 
        3.48724       0.0604569       0.0596464 
        3.50292        0.059738       0.0589722 
        3.51859       0.0589758       0.0583086 
        3.53431       0.0583357       0.0576533 
        3.55007        0.057913       0.0570063 
        3.56577       0.0572626       0.0563718 
        3.58146       0.0568226       0.0557472 
        3.59719       0.0563057       0.0551306 
        3.61292       0.0557212       0.0545236 
        3.62859        0.055049       0.0539279 
        3.64429       0.0545203       0.0533399 
        3.66003       0.0541775       0.0527589 
        3.67578       0.0534361       0.0521868 
        3.69146       0.0528916       0.0516253 
        3.70712       0.0525958        0.051073 
        3.72284       0.0522687       0.0505267 
        3.73853       0.0516201       0.0499894 
        3.75422       0.0512671       0.0494596 
        3.76993       0.0505943        0.048937 
        3.78564       0.0502362       0.0484222 
        3.80137       0.0496887        0.047914 
        3.81707       0.0493232        0.047414 
        3.83279       0.0489984       0.0469208 
        3.84853       0.0485459       0.0464338 
        3.86424       0.0481117       0.0459546 
        3.87992       0.0475796       0.0454829 
        3.89561       0.0472045       0.0450177 
        3.91134       0.0468828       0.0445581 
        3.92704       0.0464095       0.0441054 
        3.94273       0.0459804       0.0436595 
        3.95845       0.0455586       0.0432188 
        3.97418       0.0453046       0.0427842 
        3.98988       0.0446523       0.0423561 
        4.00554       0.0444187        0.041935 
        4.02125       0.0438199       0.0415184 
        4.03698       0.0431898       0.0411068 
        4.05268       0.0425708       0.0407017 
        4.06839       0.0421127       0.0403017 
         4.0841       0.0414808       0.0399072 
        4.09983       0.0409086       0.0395175 
        4.11555         0.04026       0.0391331 
        4.13124       0.0397424       0.0387548 
        4.14693       0.0392578       0.0383812 
        4.16266       0.0387547       0.0380116 
        4.17839       0.0383173       0.0376472 
        4.19408       0.0378785       0.0372883 
        4.20977       0.0374006       0.0369339 
        4.22551       0.0369491       0.0365833 
        4.24123        0.036509       0.0362375 
        4.25691       0.0360651       0.0358972 
        4.27259       0.0357646       0.0355611 
        4.28831        0.035341       0.0352286 
        4.30404       0.0351141       0.0349001 
        4.31974       0.0347714       0.0345764 
        4.33543       0.0344318        0.034257 
        4.35116       0.0341667       0.0339409 
        4.36688       0.0337892       0.0336289 
        4.38255       0.0335419       0.0333219 
        4.39825       0.0333002       0.0330181 
        4.41398       0.0331937       0.0327175 
         4.4297       0.0329687       0.0324209 
        4.44541       0.0326955       0.0321281 
        4.46111       0.0325723        0.031839 
        4.47683       0.0323918       0.0315533 
        4.49251       0.0322016       0.0312717 
        4.50819       0.0320203       0.0309936 
         4.5239       0.0318679       0.0307185 
        4.53962       0.0317815       0.0304463 
        4.55535       0.0316858       0.0301773 
        4.57106       0.0316492       0.0299119 
        4.58678       0.0314432       0.0296497 
         4.6025       0.0314535       0.0293905 
        4.61821       0.0314874       0.0291345 
        4.63391       0.0314407       0.0288818 
         4.6496       0.0313276       0.0286322 
        4.66532        0.031391       0.0283852 
        4.68103        0.031348       0.0281412 
        4.69673       0.0313991       0.0279003 
        4.71241       0.0314073       0.0276624 
        4.72811       0.0314413       0.0274269 
        4.74384       0.0315354       0.0271938 
        4.75955       0.0316724       0.0269638 
        4.77525       0.0317854       0.0267366 
        4.79096       0.0318064       0.0265117 
        4.80669       0.0318769       0.0262893 
         4.8224       0.0321948       0.0260697 
        4.83809       0.0323229       0.0258528 
        4.85379       0.0323324       0.0256382 
         4.8695       0.0326382       0.0254259 
        4.88521       0.0327406       0.0252161 
        4.90093       0.0330374       0.0250086 
        4.91663       0.0331812       0.0248036 
        4.93234       0.0333338       0.0246007 
        4.94807        0.033636       0.0243999 
        4.96377       0.0339133       0.0242017 
        4.97943       0.0343322       0.0240061 
        4.99514       0.0344492       0.0238122 
        5.01086       0.0348623       0.0236203 
        5.02654       0.0351455        0.023431 
        5.04227         0.03543       0.0232432 
          5.058        0.035898       0.0230573 
        5.07371        0.036265       0.0228739 
        5.08942        0.036487       0.0226924 
        5.10513       0.0370283       0.0225128 
        5.12084       0.0374924       0.0223351 
        5.13656       0.0378646       0.0221594 
        5.15225       0.0384212       0.0219858 
        5.16796       0.0389526       0.0218138 
        5.18369       0.0394325       0.0216435 
         5.1994       0.0399536       0.0214753 
        5.21509       0.0403643        0.021309 
        5.23079       0.0408333       0.0211443 
        5.24649       0.0415415       0.0209815 
        5.26217       0.0422831       0.0208204 
        5.27788       0.0429234       0.0206609 
        5.29359       0.0434876        0.020503 
        5.30933       0.0441345       0.0203465 
        5.32504       0.0448262       0.0201918 
        5.34073       0.0455994        0.020039 
        5.35646       0.0463957       0.0198874 
        5.37218       0.0470818       0.0197374 
        5.38789        0.048098       0.0195891 
        5.40357       0.0485124       0.0194426 
        5.41929        0.049611       0.0192972 
        5.43502       0.0502795       0.0191532 
         5.4507       0.0511986       0.0190111 
        5.46639       0.0523915       0.0188704 
        5.48212       0.0531088       0.0187308 
        5.49786       0.0542098       0.0185924 
        5.51353       0.0555503       0.0184561 
        5.52921       0.0562206       0.0183211 
        5.54495       0.0572996       0.0181869 
        5.56066       0.0583972       0.0180543 
        5.57637        0.059601        0.017923 
        5.59207       0.0610912       0.0177931 
        5.60778       0.0621979       0.0176645 
        5.62346       0.0632678       0.0175373 
        5.63916       0.0647478       0.0174112 
        5.65487       0.0659556       0.0172863 
         5.6706       0.0670922       0.0171625 
        5.68633       0.0686588       0.0170398 
        5.70203       0.0696134       0.0169186 
        5.71773       0.0717737       0.0167986 
        5.73344       0.0731141       0.0166797 
        5.74916       0.0748212       0.0165618 
        5.76486       0.0763893       0.0164452 
        5.78054       0.0776108       0.0163299 
        5.79626       0.0791686       0.0162154 
          5.812       0.0813651       0.0161019 
         5.8277       0.0829734       0.0159898 
        5.84339       0.0846006       0.0158787 
        5.85911        0.086906       0.0157685 
        5.87484       0.0884548       0.0156594 
        5.89053       0.0910115       0.0155515 
        5.90623       0.0928625       0.0154445 
        5.92195       0.0953259       0.0153384 
        5.93767       0.0974756       0.0152333 
        5.95336       0.0992451       0.0151294 
        5.96905        0.101778       0.0150265 
        5.98476        0.104278       0.0149244 
        6.00048        0.106109       0.0148232 
        6.01617        0.108539       0.0147231 
        6.03185        0.111623        0.014624 
        6.04756        0.113999       0.0145256 
        6.06331         0.11618       0.0144279 
        6.07903        0.119356       0.0143313 
        6.09473        0.122732       0.0142357 
        6.11044        0.125182       0.0141408 
        6.12616        0.127867       0.0140468 
        6.14186         0.13113       0.0139538 
        6.15755        0.133915       0.0138616 
        6.17326        0.137922       0.0137702 
        6.18898         0.13961       0.0136795 
        6.20467        0.144514       0.0135899 
        6.22036        0.146798        0.013501 
         6.2361        0.150826       0.0134127 
         6.2518        0.154214       0.0133253 
        6.26748        0.157052       0.0132389 
        6.28319        0.161185        0.013153 
        6.29893        0.165481       0.0130678 
        6.31463        0.168694       0.0129835 
        6.33033        0.173489          0.0129 
        6.34604        0.177626       0.0128171 
        6.36177        0.180534       0.0127349 
        6.37747         0.18583       0.0126535 
