# k  (h/Mpc)    Pcb(k)  (Mpc/h)^3    Pcb_linear(k) (Mpc/h)^3   ShotnoiseSubtracted = true
      0.0200456         518.797         525.191 
      0.0350414         367.844         363.595 
      0.0492313         261.024         259.952 
      0.0637834          213.44         215.113 
      0.0800726         164.828         166.172 
       0.096163         119.737         118.055 
       0.111083         96.6312         95.1536 
       0.126058         84.0551         84.5362 
       0.142273         69.2645         69.6428 
       0.158546         54.6621         54.3149 
        0.17375         47.0827          46.534 
       0.188953         42.3432          42.208 
       0.204907         36.0317           36.52 
       0.220756         30.7756         30.5866 
        0.23588         27.0787         26.9425 
         0.2514         24.6577         24.5721 
       0.267535         22.0952         21.8985 
       0.283568         19.3208         19.1423 
       0.299022         17.3815         17.1737 
       0.314451          16.147         15.7534 
       0.330372         14.5435         14.3278 
       0.346141          13.131          12.913 
       0.361624         11.9375          11.765 
       0.377134         10.9668         10.8529 
       0.392932         10.3592         10.0011 
       0.408854         9.33095          9.1734 
       0.424564         8.76935         8.45339 
       0.440253          8.0441         7.84625 
       0.455999          7.3898         7.29636 
       0.471626         6.88769         6.78283 
        0.48727         6.54327         6.31656 
       0.502856         6.12831         5.90556 
       0.518488         5.64072         5.53237 
       0.534347         5.25789         5.18127 
       0.550082          5.0165         4.86075 
       0.565732         4.77407         4.57176 
       0.581496         4.46415         4.30572 
       0.597222         4.20129         4.06009 
       0.612804         3.95355          3.8347 
       0.628434         3.76758         3.62613 
       0.644267         3.57909         3.43148 
       0.660051         3.38858         3.25172 
       0.675724         3.19205         3.08579 
       0.691403         3.04891         2.93125 
       0.707174         2.89535         2.78639 
       0.722871         2.81431         2.65186 
        0.73838         2.62311         2.52762 
       0.754018         2.50272         2.41038 
       0.769845          2.3672          2.2993 
        0.78569         2.29551         2.19511 
       0.801365         2.19629          2.0984 
       0.817031         2.11007          2.0076 
       0.832809         1.99924         1.92162 
       0.848511         1.92944         1.84106 
       0.864097         1.85824         1.76569 
       0.879701         1.79717         1.69448 
       0.895507         1.70448         1.62636 
       0.911279         1.64926         1.56213 
        0.92691         1.59917         1.50191 
       0.942635         1.51527         1.44454 
       0.958396         1.46649         1.39005 
       0.974128         1.41691         1.33847 
       0.989692          1.3608         1.29002 
        1.00528         1.31103         1.24389 
        1.02113         1.27629         1.19931 
        1.03692         1.23897         1.15707 
        1.05264         1.18138         1.11707 
        1.06832         1.14773         1.07902 
        1.08405         1.10178         1.04265 
        1.09979         1.07428         1.00793 
        1.11537         1.03392        0.975138 
        1.13105        0.993712        0.943611 
        1.14679        0.970513        0.913358 
        1.16256          0.9399        0.884374 
        1.17828        0.916592        0.856744 
        1.19395        0.885026        0.830389 
         1.2097        0.856077        0.805009 
        1.22537        0.826674        0.780814 
          1.241        0.805894        0.757686 
        1.25666        0.789015        0.735439 
        1.27241        0.762839        0.713981 
        1.28819        0.735765        0.693344 
        1.30392        0.717986        0.673582 
        1.31957        0.699334         0.65468 
        1.33529        0.675618        0.636433 
        1.35108        0.658748         0.61881 
        1.36674         0.63941        0.601981 
         1.3824        0.628357        0.585793 
        1.39811        0.607526        0.570146 
        1.41389        0.592632        0.555012 
        1.42964        0.576739        0.540452 
        1.44531        0.561765        0.526486 
        1.46101        0.544579        0.512984 
        1.47667        0.533817        0.499995 
        1.49229        0.516854        0.487491 
        1.50793        0.506447          0.4754 
        1.52367        0.491556        0.463642 
        1.53953        0.478982        0.452202 
        1.55526        0.470001         0.44124 
        1.57092        0.462253        0.430686 
        1.58662        0.451581        0.420452 
        1.60235        0.438674        0.410531 
        1.61809        0.426694        0.400925 
        1.63369        0.414828        0.391711 
        1.64941        0.408075        0.382721 
        1.66519        0.400087         0.37398 
        1.68085        0.388307        0.365575 
        1.69652        0.380364        0.357425 
        1.71228        0.370906        0.349477 
        1.72806        0.363886        0.341765 
        1.74368        0.355567        0.334362 
        1.75933        0.348631        0.327164 
        1.77505        0.342043        0.320144 
        1.79081        0.331266        0.313317 
         1.8065        0.327431        0.306718 
        1.82218        0.318033        0.300315 
        1.83797        0.309171        0.294051 
        1.85367        0.306343           0.288 
        1.86928        0.298812        0.282156 
        1.88497        0.291291        0.276441 
        1.90073        0.287062        0.270864 
        1.91647        0.280683        0.265445 
        1.93218        0.275969        0.260186 
        1.94787        0.269394        0.255077 
        1.96363        0.264432        0.250084 
        1.97935        0.258623        0.245236 
        1.99499        0.253679        0.240543 
        2.01064        0.249209        0.235966 
         2.0264        0.243542        0.231479 
        2.04216        0.238178        0.227111 
        2.05781        0.234532        0.222883 
        2.07353        0.230001        0.218748 
        2.08928        0.226457        0.214708 
        2.10499        0.221004        0.210781 
        2.12065         0.21739        0.206964 
        2.13633        0.213491        0.203238 
        2.15211        0.209575        0.199579 
        2.16785        0.205724        0.196021 
        2.18349        0.202058        0.192571 
        2.19916        0.197535        0.189198 
        2.21489        0.193762        0.185893 
        2.23063        0.190736        0.182666 
         2.2463        0.187507        0.179529 
        2.26194        0.184466        0.176474 
        2.27765        0.180783        0.173474 
        2.29341         0.17767        0.170536 
        2.30914        0.173854        0.167671 
        2.32486        0.171196        0.164874 
        2.34061        0.168132        0.162137 
        2.35635        0.165504        0.159463 
        2.37203        0.163728        0.156859 
        2.38768        0.160322        0.154319 
        2.40339        0.157322        0.151825 
        2.41914        0.155043        0.149381 
        2.43483        0.152169        0.146999 
         2.4505         0.14944        0.144673 
        2.46622        0.147185        0.142389 
        2.48195        0.144571        0.140154 
        2.49759        0.143122        0.137979 
        2.51328        0.139407        0.135844 
        2.52906        0.137619        0.133741 
        2.54479         0.13556         0.13169 
        2.56049        0.132824        0.129687 
        2.57618        0.131607        0.127726 
        2.59189        0.128837        0.125803 
        2.60758        0.127544        0.123922 
        2.62325        0.125221        0.122083 
        2.63898        0.123774        0.120274 
        2.65468        0.120875        0.118505 
        2.67044        0.119443        0.116764 
        2.68618        0.117407        0.115062 
        2.70184        0.116033        0.113401 
        2.71755        0.113916        0.111769 
        2.73329        0.112707        0.110166 
        2.74897        0.110507        0.108599 
        2.76462        0.109014        0.107067 
        2.78034        0.107369        0.105557 
        2.79607        0.106018        0.104075 
        2.81179        0.103635        0.102623 
        2.82749        0.102729        0.101201 
        2.84321        0.101368       0.0998036 
        2.85893       0.0994279       0.0984331 
        2.87462       0.0985118       0.0970906 
        2.89033        0.096657       0.0957718 
        2.90605       0.0956627       0.0944763 
        2.92176        0.094421       0.0932055 
        2.93747       0.0927979       0.0919585 
        2.95318       0.0917857       0.0907341 
        2.96891       0.0906271       0.0895313 
        2.98456       0.0895174       0.0883557 
        3.00023       0.0880381       0.0871993 
        3.01596        0.086595       0.0860601 
        3.03164       0.0854432       0.0849443 
        3.04738       0.0845488       0.0838451 
         3.0631       0.0832783       0.0827656 
        3.07883       0.0821378        0.081705 
        3.09456       0.0812158       0.0806632 
        3.11026       0.0798359        0.079641 
        3.12596       0.0791291       0.0786367 
        3.14163       0.0780802       0.0776519 
        3.15734        0.077267       0.0766817 
        3.17308       0.0760929       0.0757256 
        3.18879       0.0751587       0.0747885 
        3.20447        0.074013       0.0738685 
         3.2202       0.0733561       0.0729611 
         3.2359       0.0723825       0.0720705 
        3.25157       0.0714057       0.0711969 
        3.26729       0.0705923        0.070335 
        3.28304       0.0699636       0.0694858 
        3.29877       0.0687537       0.0686516 
        3.31446       0.0681251       0.0678328 
        3.33014       0.0674234       0.0670282 
        3.34585       0.0663394       0.0662353 
        3.36158       0.0656733        0.065454 
        3.37727       0.0649347       0.0646877 
        3.39294       0.0643467       0.0639344 
        3.40867       0.0635268       0.0631903 
        3.42439       0.0628717       0.0624585 
        3.44008       0.0622957       0.0617396 
        3.45578       0.0617457       0.0610314 
        3.47153       0.0610393       0.0603328 
        3.48724       0.0602845       0.0596464 
        3.50292        0.059781       0.0589722 
        3.51859        0.059023       0.0583086 
        3.53431       0.0584616       0.0576533 
        3.55007       0.0579237       0.0570063 
        3.56577        0.057434       0.0563718 
        3.58146       0.0566902       0.0557472 
        3.59719       0.0560527       0.0551306 
        3.61292       0.0554763       0.0545236 
        3.62859       0.0550485       0.0539279 
        3.64429       0.0543593       0.0533399 
        3.66003       0.0541642       0.0527589 
        3.67578       0.0535458       0.0521868 
        3.69146       0.0530466       0.0516253 
        3.70712       0.0525699        0.051073 
        3.72284       0.0519531       0.0505267 
        3.73853       0.0517539       0.0499894 
        3.75422       0.0510661       0.0494596 
        3.76993       0.0506591        0.048937 
        3.78564       0.0503412       0.0484222 
        3.80137       0.0499587        0.047914 
        3.81707       0.0491624        0.047414 
        3.83279       0.0489041       0.0469208 
        3.84853        0.048512       0.0464338 
        3.86424       0.0481031       0.0459546 
        3.87992       0.0477608       0.0454829 
        3.89561       0.0471745       0.0450177 
        3.91134       0.0467989       0.0445581 
        3.92704       0.0463282       0.0441054 
        3.94273       0.0458701       0.0436595 
        3.95845       0.0455158       0.0432188 
        3.97418       0.0451746       0.0427842 
        3.98988       0.0444173       0.0423561 
        4.00554       0.0442164        0.041935 
        4.02125       0.0438435       0.0415184 
        4.03698       0.0431027       0.0411068 
        4.05268        0.042737       0.0407017 
        4.06839       0.0421021       0.0403017 
         4.0841       0.0414084       0.0399072 
        4.09983       0.0408781       0.0395175 
        4.11555       0.0403311       0.0391331 
        4.13124       0.0397882       0.0387548 
        4.14693       0.0392736       0.0383812 
        4.16266       0.0386683       0.0380116 
        4.17839       0.0382681       0.0376472 
        4.19408       0.0377979       0.0372883 
        4.20977       0.0373754       0.0369339 
        4.22551       0.0369179       0.0365833 
        4.24123       0.0364837       0.0362375 
        4.25691       0.0361544       0.0358972 
        4.27259        0.035754       0.0355611 
        4.28831        0.035504       0.0352286 
        4.30404       0.0350224       0.0349001 
        4.31974       0.0347249       0.0345764 
        4.33543       0.0344289        0.034257 
        4.35116       0.0342091       0.0339409 
        4.36688       0.0338226       0.0336289 
        4.38255        0.033549       0.0333219 
        4.39825       0.0334539       0.0330181 
        4.41398        0.033025       0.0327175 
         4.4297       0.0328826       0.0324209 
        4.44541       0.0327097       0.0321281 
        4.46111       0.0324722        0.031839 
        4.47683        0.032351       0.0315533 
        4.49251       0.0321968       0.0312717 
        4.50819       0.0320023       0.0309936 
         4.5239       0.0318612       0.0307185 
        4.53962       0.0318294       0.0304463 
        4.55535       0.0317955       0.0301773 
        4.57106       0.0315927       0.0299119 
        4.58678       0.0315798       0.0296497 
         4.6025       0.0314206       0.0293905 
        4.61821       0.0315083       0.0291345 
        4.63391         0.03141       0.0288818 
         4.6496         0.03131       0.0286322 
        4.66532       0.0313567       0.0283852 
        4.68103       0.0314847       0.0281412 
        4.69673       0.0313745       0.0279003 
        4.71241       0.0314709       0.0276624 
        4.72811       0.0313876       0.0274269 
        4.74384       0.0315136       0.0271938 
        4.75955       0.0316727       0.0269638 
        4.77525       0.0317181       0.0267366 
        4.79096       0.0318395       0.0265117 
        4.80669       0.0319642       0.0262893 
         4.8224        0.032046       0.0260697 
        4.83809       0.0321201       0.0258528 
        4.85379       0.0323852       0.0256382 
         4.8695       0.0325804       0.0254259 
        4.88521       0.0327651       0.0252161 
        4.90093       0.0329964       0.0250086 
        4.91663       0.0332654       0.0248036 
        4.93234       0.0332864       0.0246007 
        4.94807       0.0336566       0.0243999 
        4.96377       0.0338743       0.0242017 
        4.97943       0.0342328       0.0240061 
        4.99514       0.0344309       0.0238122 
        5.01086       0.0348103       0.0236203 
        5.02654        0.035129        0.023431 
        5.04227        0.035452       0.0232432 
          5.058       0.0358134       0.0230573 
        5.07371       0.0361601       0.0228739 
        5.08942       0.0366418       0.0226924 
        5.10513       0.0369077       0.0225128 
        5.12084       0.0374436       0.0223351 
        5.13656       0.0379162       0.0221594 
        5.15225       0.0383834       0.0219858 
        5.16796       0.0388286       0.0218138 
        5.18369        0.039408       0.0216435 
         5.1994       0.0397583       0.0214753 
        5.21509       0.0405146        0.021309 
        5.23079       0.0408968       0.0211443 
        5.24649       0.0415762       0.0209815 
        5.26217       0.0420836       0.0208204 
        5.27788       0.0429939       0.0206609 
        5.29359       0.0435853        0.020503 
        5.30933       0.0442024       0.0203465 
        5.32504       0.0449102       0.0201918 
        5.34073       0.0453361        0.020039 
        5.35646       0.0462108       0.0198874 
        5.37218       0.0470024       0.0197374 
        5.38789       0.0478537       0.0195891 
        5.40357       0.0487182       0.0194426 
        5.41929       0.0496853       0.0192972 
        5.43502        0.050583       0.0191532 
         5.4507       0.0511717       0.0190111 
        5.46639       0.0519868       0.0188704 
        5.48212       0.0530385       0.0187308 
        5.49786        0.054342       0.0185924 
        5.51353        0.055393       0.0184561 
        5.52921       0.0561411       0.0183211 
        5.54495       0.0572082       0.0181869 
        5.56066       0.0584337       0.0180543 
        5.57637       0.0596987        0.017923 
        5.59207       0.0605366       0.0177931 
        5.60778       0.0616387       0.0176645 
        5.62346       0.0629394       0.0175373 
        5.63916       0.0645145       0.0174112 
        5.65487       0.0659507       0.0172863 
         5.6706       0.0665109       0.0171625 
        5.68633       0.0682448       0.0170398 
        5.70203       0.0696073       0.0169186 
        5.71773       0.0715534       0.0167986 
        5.73344       0.0732051       0.0166797 
        5.74916       0.0746556       0.0165618 
        5.76486       0.0762705       0.0164452 
        5.78054        0.078159       0.0163299 
        5.79626       0.0793891       0.0162154 
          5.812       0.0814885       0.0161019 
         5.8277       0.0830453       0.0159898 
        5.84339        0.084823       0.0158787 
        5.85911       0.0866516       0.0157685 
        5.87484       0.0883579       0.0156594 
        5.89053       0.0909617       0.0155515 
        5.90623       0.0931901       0.0154445 
        5.92195       0.0950376       0.0153384 
        5.93767       0.0969903       0.0152333 
        5.95336       0.0989847       0.0151294 
        5.96905        0.102348       0.0150265 
        5.98476        0.103731       0.0149244 
        6.00048        0.106278       0.0148232 
        6.01617        0.109012       0.0147231 
        6.03185        0.111231        0.014624 
        6.04756        0.113183       0.0145256 
        6.06331        0.116842       0.0144279 
        6.07903        0.119003       0.0143313 
        6.09473        0.121276       0.0142357 
        6.11044        0.125087       0.0141408 
        6.12616        0.127835       0.0140468 
        6.14186         0.13059       0.0139538 
        6.15755        0.133518       0.0138616 
        6.17326        0.137133       0.0137702 
        6.18898        0.140662       0.0136795 
        6.20467        0.143293       0.0135899 
        6.22036        0.147375        0.013501 
         6.2361        0.149115       0.0134127 
         6.2518        0.155013       0.0133253 
        6.26748         0.15736       0.0132389 
        6.28319        0.160723        0.013153 
        6.29893        0.166177       0.0130678 
        6.31463        0.169528       0.0129835 
        6.33033        0.172426          0.0129 
        6.34604        0.177295       0.0128171 
        6.36177        0.180734       0.0127349 
        6.37747        0.185123       0.0126535 
