# k  (h/Mpc)    Pcb(k)  (Mpc/h)^3    Pcb_linear(k) (Mpc/h)^3   ShotnoiseSubtracted = true
      0.0200456         3208.17         3254.93 
      0.0350414         2229.69         2253.42 
      0.0492313          1613.8         1611.08 
      0.0637834         1350.61         1333.19 
      0.0800726         1044.88         1029.87 
       0.096163         727.662         731.656 
       0.111083         582.309         589.725 
       0.126058         528.676         523.922 
       0.142273         442.476         431.619 
       0.158546          350.69         336.622 
        0.17375         290.791         288.399 
       0.188953         271.284         261.588 
       0.204907         246.085         226.337 
       0.220756         203.475         189.564 
        0.23588         178.689         166.979 
         0.2514         159.549         152.288 
       0.267535         146.331         135.719 
       0.283568         130.327         118.636 
       0.299022         118.949         106.436 
       0.314451         106.909         97.6334 
       0.330372         98.9049         88.7982 
       0.346141         89.0247         80.0295 
       0.361624         82.9849         72.9147 
       0.377134         78.0029         67.2621 
       0.392932         69.2627         61.9827 
       0.408854         66.4614         56.8531 
       0.424564         62.7196         52.3907 
       0.440253          57.878          48.628 
       0.455999         54.3472         45.2199 
       0.471626          50.673         42.0373 
        0.48727         48.3404         39.1476 
       0.502856         45.4457         36.6003 
       0.518488         43.3822         34.2874 
       0.534347         41.6166         32.1114 
       0.550082         37.9824          30.125 
       0.565732         35.5421          28.334 
       0.581496         34.6473         26.6851 
       0.597222         33.4345         25.1628 
       0.612804         31.2141         23.7659 
       0.628434         30.1087         22.4733 
       0.644267         29.2603         21.2669 
       0.660051         27.7687         20.1529 
       0.675724         26.3072         19.1245 
       0.691403         25.4607         18.1667 
       0.707174         24.5566         17.2689 
       0.722871         23.5687         16.4352 
        0.73838         22.6847         15.6652 
       0.754018         21.7706         14.9386 
       0.769845         21.0682         14.2501 
        0.78569         20.3666         13.6044 
       0.801365         19.5835         13.0051 
       0.817031         19.0433         12.4423 
       0.832809         18.6278         11.9094 
       0.848511          17.486         11.4102 
       0.864097         17.1587         10.9431 
       0.879701         16.6791         10.5017 
       0.895507         16.1159         10.0795 
       0.911279         15.6789         9.68147 
        0.92691         15.2536         9.30825 
       0.942635         14.6075         8.95268 
       0.958396          14.288         8.61496 
       0.974128         13.8579         8.29529 
       0.989692         13.7007         7.99501 
        1.00528           13.32         7.70917 
        1.02113         12.7464         7.43284 
        1.03692         12.4499         7.17109 
        1.05264         12.2137         6.92316 
        1.06832          11.881         6.68735 
        1.08405         11.5155         6.46192 
        1.09979          11.264         6.24675 
        1.11537         11.0635         6.04352 
        1.13105         10.7966         5.84813 
        1.14679          10.616         5.66063 
        1.16256         10.2171           5.481 
        1.17828         10.1738         5.30976 
        1.19395         9.77245         5.14642 
         1.2097         9.64098         4.98913 
        1.22537         9.38091         4.83917 
          1.241          9.2283         4.69584 
        1.25666          9.0364         4.55796 
        1.27241         8.79538         4.42497 
        1.28819         8.61401         4.29707 
        1.30392         8.52247          4.1746 
        1.31957         8.34626         4.05744 
        1.33529         8.18624         3.94436 
        1.35108         7.97654         3.83514 
        1.36674         7.92414         3.73084 
         1.3824         7.67312         3.63051 
        1.39811         7.56098         3.53354 
        1.41389         7.43256         3.43974 
        1.42964         7.32451         3.34951 
        1.44531         7.19563         3.26295 
        1.46101         7.02153         3.17927 
        1.47667         6.92865         3.09877 
        1.49229         6.83881         3.02128 
        1.50793         6.68611         2.94634 
        1.52367         6.58391         2.87347 
        1.53953         6.46718         2.80257 
        1.55526         6.37355         2.73463 
        1.57092         6.28382         2.66922 
        1.58662         6.17737          2.6058 
        1.60235         6.08042         2.54431 
        1.61809         5.98036         2.48477 
        1.63369         5.88214         2.42767 
        1.64941         5.78649         2.37195 
        1.66519          5.7339         2.31778 
        1.68085          5.6208         2.26569 
        1.69652         5.52534         2.21518 
        1.71228         5.45087         2.16592 
        1.72806         5.38781         2.11812 
        1.74368         5.28628         2.07224 
        1.75933         5.23776         2.02763 
        1.77505         5.15936         1.98412 
        1.79081         5.05631         1.94182 
         1.8065         5.02138         1.90092 
        1.82218         4.94117         1.86124 
        1.83797         4.89793         1.82241 
        1.85367         4.79778         1.78491 
        1.86928         4.77744         1.74869 
        1.88497         4.67544         1.71327 
        1.90073         4.61055         1.67871 
        1.91647         4.57014         1.64512 
        1.93218         4.51198         1.61253 
        1.94787         4.45605         1.58086 
        1.96363         4.39868         1.54992 
        1.97935         4.33014         1.51987 
        1.99499         4.27349         1.49079 
        2.01064         4.22871         1.46242 
         2.0264         4.17249         1.43462 
        2.04216         4.13631         1.40755 
        2.05781         4.07518         1.38134 
        2.07353         4.04051         1.35571 
        2.08928         3.99681         1.33068 
        2.10499         3.94946         1.30634 
        2.12065         3.90154         1.28268 
        2.13633         3.85585         1.25959 
        2.15211         3.80601         1.23691 
        2.16785         3.76598         1.21486 
        2.18349          3.7199         1.19348 
        2.19916          3.6663         1.17257 
        2.21489         3.64724         1.15209 
        2.23063         3.59383         1.13209 
         2.2463         3.56138         1.11265 
        2.26194         3.51285         1.09371 
        2.27765         3.49648         1.07512 
        2.29341         3.44845         1.05691 
        2.30914         3.40913         1.03916 
        2.32486         3.37516         1.02183 
        2.34061         3.34935         1.00486 
        2.35635          3.3099         0.98829 
        2.37203         3.29039        0.972152 
        2.38768         3.24516        0.956407 
        2.40339         3.20647        0.940953 
        2.41914         3.16867        0.925804 
        2.43483          3.1616        0.911041 
         2.4505         3.11318        0.896624 
        2.46622         3.09269         0.88247 
        2.48195         3.04852        0.868619 
        2.49759         3.03139        0.855139 
        2.51328         2.99496        0.841909 
        2.52906         2.98652        0.828875 
        2.54479         2.93867        0.816165 
        2.56049         2.91952        0.803746 
        2.57618         2.88476        0.791595 
        2.59189         2.87301        0.779677 
        2.60758         2.84644        0.768022 
        2.62325         2.81258        0.756619 
        2.63898         2.77568        0.745408 
        2.65468         2.75979        0.734447 
        2.67044         2.73637        0.723658 
        2.68618         2.71328        0.713111 
        2.70184         2.68564        0.702816 
        2.71755         2.66634        0.692698 
        2.73329         2.64174        0.682763 
        2.74897         2.63111        0.673055 
        2.76462         2.60199        0.663557 
        2.78034          2.5675        0.654202 
        2.79607         2.55052        0.645018 
        2.81179         2.53832         0.63602 
        2.82749         2.49609        0.627203 
        2.84321         2.49644        0.618543 
        2.85893         2.47168        0.610049 
        2.87462         2.44983        0.601729 
        2.89033         2.43289        0.593556 
        2.90605         2.41156        0.585527 
        2.92176         2.38378        0.577651 
        2.93747          2.3643        0.569923 
        2.95318         2.34777        0.562334 
        2.96891         2.33882         0.55488 
        2.98456         2.31644        0.547593 
        3.00023         2.29329        0.540427 
        3.01596         2.27928        0.533366 
        3.03164         2.26548        0.526451 
        3.04738         2.24145        0.519639 
         3.0631         2.22382        0.512948 
        3.07883         2.21221        0.506375 
        3.09456         2.19319        0.499918 
        3.11026         2.17816        0.493584 
        3.12596          2.1549        0.487359 
        3.14163         2.14303        0.481256 
        3.15734         2.12788        0.475243 
        3.17308         2.11139        0.469318 
        3.18879         2.10101        0.463509 
        3.20447         2.09057        0.457808 
         3.2202         2.06353        0.452184 
         3.2359         2.05672        0.446665 
        3.25157         2.04316         0.44125 
        3.26729         2.02063        0.435909 
        3.28304         2.01634        0.430645 
        3.29877         1.99584        0.425475 
        3.31446         1.98191        0.420401 
        3.33014         1.97331        0.415414 
        3.34585         1.95958          0.4105 
        3.36158         1.94651        0.405658 
        3.37727         1.92063        0.400909 
        3.39294         1.91902         0.39624 
        3.40867         1.89803        0.391629 
        3.42439         1.89197        0.387093 
        3.44008         1.87807        0.382637 
        3.45578         1.86692        0.378249 
        3.47153          1.8511        0.373919 
        3.48724         1.84209        0.369665 
        3.50292         1.83456        0.365486 
        3.51859         1.81631        0.361374 
        3.53431         1.80487        0.357312 
        3.55007         1.79428        0.353303 
        3.56577         1.77998         0.34937 
        3.58146          1.7731        0.345499 
        3.59719         1.76384        0.341678 
        3.61292         1.75025        0.337916 
        3.62859         1.73745        0.334224 
        3.64429         1.72092         0.33058 
        3.66003         1.71902        0.326979 
        3.67578         1.70763        0.323433 
        3.69146         1.69531        0.319953 
        3.70712         1.68249         0.31653 
        3.72284         1.67178        0.313145 
        3.73853         1.66253        0.309814 
        3.75422         1.65442        0.306531 
        3.76993         1.63674        0.303292 
        3.78564         1.63361        0.300102 
        3.80137         1.62395        0.296952 
        3.81707         1.60845        0.293853 
        3.83279         1.59786        0.290797 
        3.84853         1.59491        0.287778 
        3.86424         1.58253        0.284808 
        3.87992         1.57421        0.281885 
        3.89561         1.56273        0.279002 
        3.91134         1.55742        0.276154 
        3.92704         1.54642        0.273348 
        3.94273         1.53629        0.270584 
        3.95845         1.52648        0.267853 
        3.97418         1.51697        0.265159 
        3.98988         1.50492        0.262506 
        4.00554          1.4951        0.259896 
        4.02125         1.48953        0.257315 
        4.03698            1.48        0.254764 
        4.05268         1.47044        0.252253 
        4.06839         1.46223        0.249774 
         4.0841         1.45057        0.247329 
        4.09983         1.44124        0.244914 
        4.11555         1.43215        0.242531 
        4.13124         1.42305        0.240187 
        4.14693         1.41224        0.237871 
        4.16266         1.40327        0.235581 
        4.17839         1.39249        0.233322 
        4.19408         1.38744        0.231098 
        4.20977         1.37283        0.228902 
        4.22551          1.3694        0.226729 
        4.24123         1.35924        0.224586 
        4.25691         1.34846        0.222477 
        4.27259         1.34321        0.220394 
        4.28831         1.33383        0.218333 
        4.30404         1.32605        0.216297 
        4.31974         1.32007        0.214291 
        4.33543         1.31041        0.212312 
        4.35116         1.30538        0.210352 
        4.36688         1.29453        0.208419 
        4.38255         1.28434        0.206516 
        4.39825         1.27966        0.204633 
        4.41398         1.27284         0.20277 
         4.4297          1.2663        0.200932 
        4.44541         1.26047        0.199117 
        4.46111         1.25379        0.197326 
        4.47683         1.24689        0.195555 
        4.49251         1.24074         0.19381 
        4.50819          1.2355        0.192086 
         4.5239         1.22965        0.190381 
        4.53962         1.22269        0.188694 
        4.55535         1.21638        0.187027 
        4.57106         1.20745        0.185382 
        4.58678         1.20419        0.183757 
         4.6025         1.19953        0.182151 
        4.61821         1.19076        0.180564 
        4.63391         1.18496        0.178998 
         4.6496         1.17888        0.177451 
        4.66532         1.17708         0.17592 
        4.68103         1.17094        0.174408 
        4.69673         1.16545        0.172915 
        4.71241         1.16052        0.171441 
        4.72811         1.15324        0.169981 
        4.74384         1.15059        0.168537 
        4.75955         1.14402        0.167111 
        4.77525         1.13944        0.165703 
        4.79096         1.13514        0.164309 
        4.80669         1.12791        0.162931 
         4.8224         1.12657        0.161569 
        4.83809         1.12103        0.160225 
        4.85379         1.11427        0.158895 
         4.8695          1.1114         0.15758 
        4.88521         1.10567        0.156279 
        4.90093         1.10242        0.154993 
        4.91663         1.09908        0.153723 
        4.93234         1.09353        0.152465 
        4.94807         1.08814        0.151221 
        4.96377         1.08448        0.149993 
        4.97943         1.08083        0.148781 
        4.99514         1.07508        0.147579 
        5.01086         1.07413        0.146389 
        5.02654         1.06892        0.145216 
        5.04227         1.06453        0.144052 
          5.058         1.06126          0.1429 
        5.07371         1.05764        0.141763 
        5.08942         1.05205        0.140638 
        5.10513         1.04868        0.139526 
        5.12084          1.0452        0.138424 
        5.13656         1.04305        0.137335 
        5.15225         1.03934        0.136259 
        5.16796         1.03658        0.135193 
        5.18369         1.03048        0.134138 
         5.1994         1.02889        0.133095 
        5.21509           1.026        0.132065 
        5.23079         1.02337        0.131044 
        5.24649         1.01991        0.130035 
        5.26217         1.01594        0.129037 
        5.27788          1.0126        0.128048 
        5.29359         1.00843        0.127069 
        5.30933         1.00703        0.126099 
        5.32504          1.0042        0.125141 
        5.34073         1.00082        0.124194 
        5.35646        0.999503        0.123254 
        5.37218        0.996004        0.122325 
        5.38789        0.993027        0.121406 
        5.40357        0.987998        0.120497 
        5.41929        0.984044        0.119596 
        5.43502        0.982286        0.118704 
         5.4507        0.978725        0.117823 
        5.46639        0.977788        0.116951 
        5.48212        0.975666        0.116086 
        5.49786        0.971493        0.115228 
        5.51353        0.968321        0.114384 
        5.52921        0.964205        0.113547 
        5.54495        0.963097        0.112715 
        5.56066        0.964373        0.111893 
        5.57637        0.959543         0.11108 
        5.59207        0.955732        0.110275 
        5.60778        0.954636        0.109478 
        5.62346        0.951391        0.108689 
        5.63916        0.950671        0.107908 
        5.65487        0.949157        0.107134 
         5.6706         0.94748        0.106366 
        5.68633        0.943753        0.105606 
        5.70203         0.94071        0.104855 
        5.71773        0.938432        0.104111 
        5.73344        0.938457        0.103374 
        5.74916        0.934697        0.102643 
        5.76486        0.931959        0.101921 
        5.78054        0.932154        0.101206 
        5.79626        0.928821        0.100497 
          5.812        0.925368       0.0997931 
         5.8277        0.923495       0.0990983 
        5.84339        0.922532         0.09841 
        5.85911        0.921229        0.097727 
        5.87484        0.919234       0.0970505 
        5.89053        0.915309       0.0963818 
        5.90623        0.913903        0.095719 
        5.92195        0.912473       0.0950613 
        5.93767        0.910647       0.0944101 
        5.95336           0.906       0.0937661 
        5.96905        0.906495       0.0931283 
        5.98476        0.903655       0.0924955 
        6.00048        0.901093       0.0918684 
        6.01617        0.900259       0.0912479 
        6.03185        0.896902       0.0906339 
        6.04756        0.897969        0.090024 
        6.06331        0.894295       0.0894185 
        6.07903        0.894283       0.0888197 
        6.09473        0.890859        0.088227 
        6.11044        0.891204       0.0876391 
        6.12616        0.887939       0.0870567 
        6.14186        0.885422       0.0864801 
        6.15755         0.88518       0.0859088 
        6.17326        0.881848       0.0853421 
        6.18898        0.881625       0.0847803 
        6.20467        0.879684       0.0842246 
        6.22036        0.876192       0.0836738 
         6.2361        0.876754       0.0831265 
         6.2518        0.872632       0.0825849 
        6.26748        0.872093       0.0820494 
        6.28319        0.870451       0.0815171 
        6.29893        0.868469        0.080989 
        6.31463        0.866389       0.0804665 
        6.33033        0.864936       0.0799488 
        6.34604        0.863708       0.0794353 
        6.36177        0.862758       0.0789257 
        6.37747        0.861359       0.0784216 
