# k  (h/Mpc)    Pcb(k)  (Mpc/h)^3    Pcb_linear(k) (Mpc/h)^3   ShotnoiseSubtracted = true
      0.0200456         9402.51         9531.61 
      0.0350414         6781.05         6598.83 
      0.0492313         4694.65         4717.83 
      0.0637834         3785.63         3904.06 
      0.0800726         2914.37         3015.84 
       0.096163         2227.86         2142.55 
       0.111083         1818.34         1726.93 
       0.126058         1525.18         1534.23 
       0.142273         1281.26         1263.94 
       0.158546         1039.29         985.752 
        0.17375         911.486         844.539 
       0.188953          838.85         766.026 
       0.204907         704.947         662.796 
       0.220756         626.228         555.111 
        0.23588         556.917         488.976 
         0.2514         498.506         445.955 
       0.267535         477.059         397.433 
       0.283568         413.777          347.41 
       0.299022         392.256         311.683 
       0.314451         388.682         285.906 
       0.330372         333.689         260.033 
       0.346141         308.176         234.356 
       0.361624         291.955         213.521 
       0.377134         269.541         196.968 
       0.392932         261.457         181.508 
       0.408854         247.401         166.487 
       0.424564         236.989         153.419 
       0.440253         213.694           142.4 
       0.455999         201.961          132.42 
       0.471626         199.095           123.1 
        0.48727         189.921         114.638 
       0.502856         173.077         107.179 
       0.518488         172.342         100.406 
       0.534347         160.218          94.034 
       0.550082         156.325          88.217 
       0.565732         153.984         82.9722 
       0.581496         142.346         78.1438 
       0.597222           139.1          73.686 
       0.612804         134.221         69.5953 
       0.628434         130.315         65.8101 
       0.644267         123.624         62.2774 
       0.660051         120.227          59.015 
       0.675724         118.386         56.0035 
       0.691403         115.385         53.1988 
       0.707174         111.085         50.5697 
       0.722871         109.141         48.1281 
        0.73838         106.929         45.8733 
       0.754018         100.254         43.7457 
       0.769845         99.8331         41.7296 
        0.78569         96.9728         39.8387 
       0.801365         93.6581         38.0836 
       0.817031         90.8434         36.4357 
       0.832809         89.1422         34.8751 
       0.848511         86.9987         33.4132 
       0.864097         85.3828         32.0453 
       0.879701         83.8469         30.7528 
       0.895507         80.7915         29.5165 
       0.911279         79.2187         28.3509 
        0.92691         77.2572          27.258 
       0.942635         75.3389         26.2167 
       0.958396         75.1217         25.2277 
       0.974128          73.294         24.2916 
       0.989692         71.4726         23.4123 
        1.00528         70.1694         22.5752 
        1.02113          68.448         21.7661 
        1.03692         68.2948         20.9996 
        1.05264         67.0908         20.2735 
        1.06832         64.8484          19.583 
        1.08405         64.1215         18.9228 
        1.09979         63.5028         18.2928 
        1.11537         61.7598         17.6976 
        1.13105         60.5816         17.1255 
        1.14679         59.8273         16.5764 
        1.16256         58.6569         16.0504 
        1.17828         58.1328         15.5489 
        1.19395         56.5293         15.0706 
         1.2097         56.5684           14.61 
        1.22537         55.0942         14.1709 
          1.241         54.8669         13.7511 
        1.25666         52.9166         13.3474 
        1.27241         52.8441         12.9579 
        1.28819          52.193         12.5834 
        1.30392         51.0837         12.2247 
        1.31957          50.821         11.8817 
        1.33529         49.9819         11.5505 
        1.35108         49.3155         11.2307 
        1.36674         48.4072         10.9253 
         1.3824         47.7729         10.6315 
        1.39811         46.8985         10.3475 
        1.41389         46.2431         10.0728 
        1.42964         45.8484         9.80858 
        1.44531         45.1109         9.55511 
        1.46101         44.6973         9.31006 
        1.47667         43.9854         9.07433 
        1.49229         43.3272          8.8474 
        1.50793         42.9198         8.62797 
        1.52367          42.449         8.41456 
        1.53953         41.9384         8.20695 
        1.55526         41.1563         8.00799 
        1.57092         40.9382         7.81645 
        1.58662         40.3468         7.63072 
        1.60235         39.7619         7.45066 
        1.61809         39.1907         7.27632 
        1.63369         38.6295          7.1091 
        1.64941         38.2898         6.94594 
        1.66519         37.6231         6.78731 
        1.68085         37.2519         6.63476 
        1.69652         36.6763         6.48685 
        1.71228         36.4413         6.34261 
        1.72806          35.977         6.20264 
        1.74368         35.3709         6.06829 
        1.75933         35.2365         5.93765 
        1.77505         34.8205         5.81024 
        1.79081         34.4079         5.68634 
         1.8065         33.9324         5.56659 
        1.82218         33.2349         5.45038 
        1.83797         33.0484         5.33669 
        1.85367         32.6674         5.22687 
        1.86928         32.5649          5.1208 
        1.88497         31.9202         5.01709 
        1.90073          31.648         4.91586 
        1.91647         31.4753         4.81752 
        1.93218         31.2385         4.72207 
        1.94787         30.7408         4.62935 
        1.96363         30.2376         4.53874 
        1.97935         30.0581         4.45075 
        1.99499         29.7192         4.36558 
        2.01064         29.2616         4.28251 
         2.0264         29.1066         4.20108 
        2.04216         28.8706         4.12181 
        2.05781         28.5135         4.04507 
        2.07353         28.0893         3.97002 
        2.08928         27.9725          3.8967 
        2.10499          27.634         3.82543 
        2.12065         27.2698         3.75616 
        2.13633         27.1278         3.68853 
        2.15211          26.641         3.62213 
        2.16785         26.3671         3.55755 
        2.18349         26.1507         3.49495 
        2.19916         25.8783         3.43372 
        2.21489         25.6582         3.37375 
        2.23063         25.4157         3.31517 
         2.2463         25.2123         3.25824 
        2.26194         24.8454         3.20279 
        2.27765         24.6171         3.14835 
        2.29341         24.3076         3.09502 
        2.30914         24.0683         3.04304 
        2.32486          23.859         2.99228 
        2.34061         23.6276         2.94259 
        2.35635         23.3636         2.89407 
        2.37203         23.1954         2.84681 
        2.38768         22.9476         2.80071 
        2.40339         22.7709         2.75545 
        2.41914         22.5402         2.71109 
        2.43483         22.4295         2.66786 
         2.4505         22.0355         2.62564 
        2.46622         21.7907         2.58419 
        2.48195         21.6473         2.54363 
        2.49759         21.3225         2.50416 
        2.51328         21.1504         2.46542 
        2.52906         20.9994         2.42725 
        2.54479         20.8061         2.39003 
        2.56049         20.7053         2.35366 
        2.57618          20.448         2.31808 
        2.59189         20.1773         2.28318 
        2.60758         20.0115         2.24905 
        2.62325         19.7706         2.21566 
        2.63898         19.7196         2.18283 
        2.65468         19.4916         2.15073 
        2.67044         19.2643         2.11914 
        2.68618         19.0254         2.08825 
        2.70184         18.8512          2.0581 
        2.71755         18.6665         2.02847 
        2.73329         18.4775         1.99938 
        2.74897         18.3862         1.97095 
        2.76462         18.2375         1.94314 
        2.78034         17.9376         1.91574 
        2.79607         17.8081         1.88885 
        2.81179         17.6581          1.8625 
        2.82749         17.4619         1.83668 
        2.84321         17.3425         1.81132 
        2.85893          17.182         1.78645 
        2.87462         17.0131         1.76208 
        2.89033         16.8792         1.73815 
        2.90605         16.6617         1.71464 
        2.92176         16.4587         1.69157 
        2.93747         16.3998         1.66894 
        2.95318         16.2635         1.64672 
        2.96891         16.0161         1.62489 
        2.98456         15.9727         1.60355 
        3.00023         15.7716         1.58257 
        3.01596         15.5707         1.56189 
        3.03164         15.4938         1.54164 
        3.04738         15.3828         1.52169 
         3.0631         15.2144          1.5021 
        3.07883         15.0882         1.48285 
        3.09456          14.948         1.46394 
        3.11026         14.8123         1.44539 
        3.12596         14.6399         1.42717 
        3.14163         14.5505         1.40929 
        3.15734         14.4338         1.39168 
        3.17308          14.285         1.37433 
        3.18879         14.1034         1.35732 
        3.20447         14.0607         1.34063 
         3.2202         13.8854         1.32416 
         3.2359         13.7598           1.308 
        3.25157         13.6744         1.29214 
        3.26729         13.5422          1.2765 
        3.28304         13.4563         1.26109 
        3.29877         13.3744         1.24595 
        3.31446         13.2269         1.23109 
        3.33014         13.0657         1.21648 
        3.34585         13.0039         1.20209 
        3.36158         12.8683         1.18791 
        3.37727         12.7596         1.17401 
        3.39294         12.6297         1.16034 
        3.40867         12.5245         1.14683 
        3.42439         12.4216         1.13355 
        3.44008         12.3166          1.1205 
        3.45578         12.1933         1.10765 
        3.47153         12.1073         1.09497 
        3.48724         12.0232         1.08251 
        3.50292         11.9235         1.07028 
        3.51859         11.7957         1.05823 
        3.53431         11.7038         1.04634 
        3.55007         11.6143          1.0346 
        3.56577         11.5034         1.02308 
        3.58146         11.3994         1.01175 
        3.59719         11.3066         1.00056 
        3.61292          11.213         0.98954 
        3.62859         11.1021        0.978729 
        3.64429         11.0215        0.968058 
        3.66003         10.9242        0.957514 
        3.67578          10.849         0.94713 
        3.69146         10.7523        0.936939 
        3.70712         10.6268        0.926916 
        3.72284         10.5583        0.917001 
        3.73853         10.4807        0.907249 
        3.75422         10.3673        0.897635 
        3.76993         10.2784        0.888151 
        3.78564         10.2242        0.878807 
        3.80137         10.1319        0.869583 
        3.81707         10.0275         0.86051 
        3.83279         9.98635        0.851558 
        3.84853         9.87955        0.842719 
        3.86424         9.77856        0.834023 
        3.87992          9.7123        0.825462 
        3.89561         9.63751         0.81702 
        3.91134         9.55386        0.808678 
        3.92704         9.49318        0.800463 
        3.94273         9.41831        0.792369 
        3.95845         9.30403        0.784372 
        3.97418         9.23833        0.776484 
        3.98988         9.19474        0.768714 
        4.00554         9.09148        0.761071 
        4.02125          9.0349        0.753511 
        4.03698         8.95965        0.746041 
        4.05268         8.89709        0.738688 
        4.06839         8.80378         0.73143 
         4.0841         8.73638         0.72427 
        4.09983         8.65926        0.717197 
        4.11555         8.58924         0.71022 
        4.13124         8.52422        0.703355 
        4.14693          8.4484        0.696574 
        4.16266         8.37851        0.689868 
        4.17839         8.30407        0.683253 
        4.19408         8.24806        0.676739 
        4.20977         8.16009        0.670308 
        4.22551         8.12637        0.663944 
        4.24123         8.05325        0.657669 
        4.25691         7.97726        0.651493 
        4.27259         7.91445        0.645393 
        4.28831         7.84552        0.639359 
        4.30404         7.79858        0.633396 
        4.31974         7.73656        0.627522 
        4.33543         7.66026        0.621726 
        4.35116         7.60452        0.615989 
        4.36688         7.54843        0.610326 
        4.38255         7.50232        0.604755 
        4.39825         7.41614        0.599241 
        4.41398         7.36549        0.593785 
         4.4297          7.3056        0.588402 
        4.44541         7.26194        0.583087 
        4.46111         7.18545        0.577842 
        4.47683         7.15103        0.572657 
        4.49251          7.0891        0.567546 
        4.50819         7.02316        0.562498 
         4.5239         6.98375        0.557505 
        4.53962          6.9138        0.552565 
        4.55535         6.87601        0.547683 
        4.57106         6.82362        0.542867 
        4.58678         6.77778        0.538108 
         4.6025         6.70808        0.533404 
        4.61821         6.65278        0.528757 
        4.63391          6.6162        0.524171 
         4.6496         6.57169        0.519642 
        4.66532         6.52718        0.515159 
        4.68103         6.46207         0.51073 
        4.69673         6.41871        0.506358 
        4.71241         6.35994        0.502041 
        4.72811         6.30598        0.497767 
        4.74384         6.28437        0.493537 
        4.75955         6.23765        0.489362 
        4.77525         6.19701        0.485238 
        4.79096         6.15698        0.481157 
        4.80669         6.09335         0.47712 
         4.8224         6.06191        0.473134 
        4.83809         6.00681        0.469198 
        4.85379         5.96692        0.465304 
         4.8695         5.93889         0.46145 
        4.88521          5.8834        0.457642 
        4.90093         5.84205        0.453876 
        4.91663         5.79276        0.450156 
        4.93234          5.7534        0.446474 
        4.94807         5.70192         0.44283 
        4.96377         5.66111        0.439233 
        4.97943         5.62377        0.435684 
        4.99514         5.58432        0.432165 
        5.01086         5.53449        0.428681 
        5.02654         5.50793        0.425245 
        5.04227         5.45869        0.421837 
          5.058         5.42214        0.418464 
        5.07371         5.40588        0.415134 
        5.08942         5.34165         0.41184 
        5.10513         5.31675        0.408582 
        5.12084         5.27074        0.405357 
        5.13656         5.22964        0.402167 
        5.15225         5.18679        0.399017 
        5.16796         5.15968        0.395895 
        5.18369         5.11973        0.392804 
         5.1994         5.08306        0.389751 
        5.21509         5.05506        0.386734 
        5.23079         5.01359        0.383745 
        5.24649         4.96858        0.380789 
        5.26217         4.94637        0.377867 
        5.27788         4.90576        0.374971 
        5.29359         4.87734        0.372105 
        5.30933         4.83737        0.369265 
        5.32504         4.82181        0.366459 
        5.34073         4.77351        0.363685 
        5.35646         4.73766        0.360934 
        5.37218         4.71113        0.358211 
        5.38789         4.68378         0.35552 
        5.40357         4.64582         0.35286 
        5.41929         4.60348        0.350221 
        5.43502         4.58121        0.347609 
         5.4507         4.54647         0.34503 
        5.46639         4.51384        0.342476 
        5.48212         4.49305        0.339942 
        5.49786         4.46397        0.337431 
        5.51353         4.43682        0.334957 
        5.52921         4.39887        0.332506 
        5.54495         4.36941        0.330072 
        5.56066         4.35025        0.327665 
        5.57637         4.31657        0.325282 
        5.59207         4.28491        0.322925 
        5.60778         4.25324         0.32059 
        5.62346         4.22408        0.318282 
        5.63916         4.19248        0.315994 
        5.65487         4.17301        0.313727 
         5.6706         4.14741        0.311479 
        5.68633         4.11603        0.309253 
        5.70203         4.08833        0.307053 
        5.71773         4.06327        0.304875 
        5.73344         4.03396        0.302717 
        5.74916          4.0118        0.300578 
        5.76486          3.9875        0.298462 
        5.78054         3.96038        0.296369 
        5.79626         3.93093        0.294291 
          5.812          3.9054        0.292231 
         5.8277         3.88805        0.290196 
        5.84339         3.85816         0.28818 
        5.85911          3.8375         0.28618 
        5.87484         3.79965        0.284199 
        5.89053         3.78281        0.282241 
        5.90623         3.76691          0.2803 
        5.92195         3.74168        0.278374 
        5.93767         3.71238        0.276467 
        5.95336         3.69807        0.274581 
        5.96905         3.67601        0.272714 
        5.98476         3.64832        0.270861 
        6.00048         3.62349        0.269024 
        6.01617         3.60136        0.267207 
        6.03185         3.57365        0.265409 
        6.04756         3.55138        0.263623 
        6.06331         3.53478         0.26185 
        6.07903         3.50914        0.260096 
        6.09473         3.49776        0.258361 
        6.11044          3.4668        0.256639 
        6.12616         3.45001        0.254934 
        6.14186         3.42018        0.253245 
        6.15755         3.40557        0.251572 
        6.17326         3.38743        0.249913 
        6.18898         3.36278        0.248268 
        6.20467         3.34004         0.24664 
        6.22036         3.32475        0.245027 
         6.2361         3.29491        0.243425 
         6.2518         3.28295        0.241839 
        6.26748         3.26216         0.24027 
        6.28319         3.24123        0.238712 
        6.29893         3.22482        0.237165 
        6.31463         3.20382        0.235635 
        6.33033         3.18885        0.234119 
        6.34604         3.16897        0.232615 
        6.36177         3.14649        0.231123 
        6.37747         3.13677        0.229647 
