# k  (h/Mpc)    Pcb(k)  (Mpc/h)^3    Pcb_linear(k) (Mpc/h)^3   ShotnoiseSubtracted = true
      0.0200456         26767.6         27244.1 
      0.0350414         19569.3         18861.4 
      0.0492313         13181.3         13484.9 
      0.0637834         10573.6         11158.9 
      0.0800726         8108.01         8620.13 
       0.096163         6477.84         6124.04 
       0.111083         5296.77         4936.06 
       0.126058         4378.63         4385.29 
       0.142273         3794.69          3612.7 
       0.158546         3086.01         2817.56 
        0.17375         2789.23         2413.94 
       0.188953         2661.87         2189.53 
       0.204907         2273.71         1894.46 
       0.220756         2058.43         1586.67 
        0.23588         1838.35         1397.64 
         0.2514         1668.42         1274.67 
       0.267535         1600.61         1135.98 
       0.283568         1432.03         992.998 
       0.299022         1358.51          890.88 
       0.314451         1419.47         817.203 
       0.330372         1264.35         743.251 
       0.346141         1159.38         669.856 
       0.361624         1110.23         610.305 
       0.377134         1068.84         562.991 
       0.392932          1008.2         518.802 
       0.408854         972.151         475.867 
       0.424564         950.786         438.516 
       0.440253         885.959         407.022 
       0.455999         844.914         378.496 
       0.471626         856.711         351.857 
        0.48727         807.277         327.669 
       0.502856         785.144         306.349 
       0.518488         752.885          286.99 
       0.534347         730.205         268.776 
       0.550082         696.261          252.15 
       0.565732         681.693         237.158 
       0.581496          666.37         223.357 
       0.597222         655.248         210.616 
       0.612804         636.887         198.924 
       0.628434         610.949         188.104 
       0.644267         594.855         178.007 
       0.660051         588.222         168.682 
       0.675724         576.196         160.074 
       0.691403         555.396         152.058 
       0.707174         541.059         144.543 
       0.722871         539.702         137.564 
        0.73838         521.617         131.119 
       0.754018         511.705         125.038 
       0.769845         504.332         119.275 
        0.78569         492.719          113.87 
       0.801365         477.332         108.854 
       0.817031         471.329         104.144 
       0.832809         463.906         99.6832 
       0.848511         456.107         95.5045 
       0.864097         445.764         91.5946 
       0.879701         447.465         87.9004 
       0.895507         429.863         84.3667 
       0.911279         424.705          81.035 
        0.92691         418.178         77.9111 
       0.942635         411.653          74.935 
       0.958396         400.528         72.1082 
       0.974128         393.528         69.4325 
       0.989692         385.166         66.9191 
        1.00528         378.087         64.5266 
        1.02113         372.773         62.2137 
        1.03692         367.264         60.0228 
        1.05264         362.677         57.9476 
        1.06832         353.701         55.9739 
        1.08405         352.583          54.087 
        1.09979         344.117          52.286 
        1.11537         335.986         50.5849 
        1.13105         331.981         48.9495 
        1.14679         326.118         47.3801 
        1.16256         323.952         45.8766 
        1.17828         319.315         44.4433 
        1.19395         311.318         43.0761 
         1.2097         307.036         41.7596 
        1.22537         303.636         40.5044 
          1.241         296.653         39.3047 
        1.25666         293.995         38.1506 
        1.27241         291.142         37.0375 
        1.28819         283.206          35.967 
        1.30392         282.532         34.9419 
        1.31957         276.031         33.9613 
        1.33529         271.217         33.0147 
        1.35108         270.778         32.1006 
        1.36674         264.512         31.2275 
         1.3824         259.463         30.3878 
        1.39811         255.891         29.5761 
        1.41389         252.066          28.791 
        1.42964         247.877         28.0358 
        1.44531             245         27.3113 
        1.46101         239.986         26.6109 
        1.47667         237.582         25.9371 
        1.49229         235.156         25.2884 
        1.50793         230.317         24.6612 
        1.52367         226.797         24.0513 
        1.53953          224.23         23.4578 
        1.55526         219.919         22.8892 
        1.57092         218.799         22.3417 
        1.58662         214.026         21.8108 
        1.60235         210.845         21.2961 
        1.61809         209.141         20.7978 
        1.63369         205.084         20.3199 
        1.64941         202.576         19.8535 
        1.66519         199.212         19.4001 
        1.68085         195.992         18.9641 
        1.69652         193.763         18.5413 
        1.71228         190.992          18.129 
        1.72806         188.683         17.7289 
        1.74368         185.822         17.3449 
        1.75933         184.264         16.9715 
        1.77505         181.452         16.6073 
        1.79081         178.547         16.2532 
         1.8065         177.797         15.9109 
        1.82218         172.902         15.5788 
        1.83797         171.629         15.2538 
        1.85367         169.277         14.9399 
        1.86928         166.507         14.6367 
        1.88497         165.314         14.3403 
        1.90073          163.24          14.051 
        1.91647         160.788         13.7699 
        1.93218         157.617          13.497 
        1.94787         155.569          13.232 
        1.96363         154.697          12.973 
        1.97935         152.671         12.7215 
        1.99499         150.465         12.4781 
        2.01064          147.78         12.2407 
         2.0264         146.823         12.0079 
        2.04216         144.262         11.7813 
        2.05781         142.079          11.562 
        2.07353         141.143         11.3475 
        2.08928         139.065         11.1379 
        2.10499         137.331         10.9342 
        2.12065         136.119         10.7362 
        2.13633         134.009         10.5429 
        2.15211         132.271         10.3531 
        2.16785         130.954         10.1685 
        2.18349         129.502         9.98958 
        2.19916         128.066         9.81456 
        2.21489         125.599         9.64316 
        2.23063         124.122         9.47572 
         2.2463         122.574         9.31301 
        2.26194         121.678         9.15451 
        2.27765         119.687         8.99889 
        2.29341         118.432         8.84647 
        2.30914         116.864         8.69789 
        2.32486         115.776          8.5528 
        2.34061          113.88         8.41078 
        2.35635         112.616          8.2721 
        2.37203          111.33         8.13702 
        2.38768         109.878         8.00523 
        2.40339         108.911         7.87588 
        2.41914         107.209         7.74908 
        2.43483         106.038         7.62552 
         2.4505         105.325         7.50485 
        2.46622         103.308         7.38637 
        2.48195         101.997         7.27044 
        2.49759         100.663         7.15761 
        2.51328         99.7277         7.04688 
        2.52906          98.608         6.93778 
        2.54479          97.455          6.8314 
        2.56049         96.0593         6.72744 
        2.57618         95.1013         6.62574 
        2.59189         94.2701         6.52598 
        2.60758         92.7632         6.42843 
        2.62325         91.8106         6.33299 
        2.63898         90.5197         6.23915 
        2.65468         89.9613          6.1474 
        2.67044         88.8936          6.0571 
        2.68618         87.6156         5.96882 
        2.70184         86.9546         5.88265 
        2.71755         85.8565         5.79796 
        2.73329         84.6021          5.7148 
        2.74897         83.8118         5.63355 
        2.76462         83.3139         5.55405 
        2.78034         82.2641         5.47575 
        2.79607         81.1574         5.39887 
        2.81179         80.2802         5.32356 
        2.82749         79.4652         5.24976 
        2.84321         78.4312         5.17728 
        2.85893         77.4182         5.10618 
        2.87462         76.6553         5.03654 
        2.89033         75.9606         4.96813 
        2.90605         74.9544         4.90093 
        2.92176         74.3954           4.835 
        2.93747         73.4743         4.77032 
        2.95318         72.4853          4.7068 
        2.96891         72.1818         4.64441 
        2.98456         70.9452         4.58342 
        3.00023         70.0911         4.52343 
        3.01596         69.7888         4.46434 
        3.03164         68.5875         4.40646 
        3.04738         68.2284         4.34943 
         3.0631         67.3973         4.29344 
        3.07883         66.6091         4.23842 
        3.09456         65.6851         4.18437 
        3.11026         65.4763         4.13135 
        3.12596         64.5071         4.07925 
        3.14163         63.9575         4.02817 
        3.15734         62.9619         3.97784 
        3.17308           62.61         3.92824 
        3.18879         61.8895         3.87963 
        3.20447         61.4149          3.8319 
         3.2202         60.4326         3.78483 
         3.2359         59.9837         3.73863 
        3.25157          59.289         3.69331 
        3.26729         58.5334         3.64861 
        3.28304         58.0982         3.60455 
        3.29877         57.5661         3.56128 
        3.31446         56.8069          3.5188 
        3.33014         56.3457         3.47706 
        3.34585         55.6183         3.43593 
        3.36158         55.1909          3.3954 
        3.37727         54.7102         3.35565 
        3.39294         54.0228         3.31657 
        3.40867         53.6095         3.27798 
        3.42439         52.8811         3.24001 
        3.44008         52.4917         3.20272 
        3.45578         51.8874         3.16599 
        3.47153         51.4263         3.12975 
        3.48724         50.8036         3.09413 
        3.50292         50.4885         3.05916 
        3.51859          49.939         3.02474 
        3.53431         49.3637         2.99074 
        3.55007         48.7732         2.95718 
        3.56577         48.3442         2.92427 
        3.58146         47.8335         2.89187 
        3.59719         47.4068         2.85988 
        3.61292           46.95         2.82839 
        3.62859         46.5476         2.79749 
        3.64429         46.1269         2.76699 
        3.66003         45.6542         2.73685 
        3.67578         45.1361         2.70717 
        3.69146          44.805         2.67804 
        3.70712         44.3796         2.64939 
        3.72284         43.8822         2.62106 
        3.73853         43.5789         2.59318 
        3.75422         43.0782          2.5657 
        3.76993         42.7747         2.53859 
        3.78564         42.3543         2.51189 
        3.80137         41.9441         2.48552 
        3.81707         41.4507         2.45959 
        3.83279          41.068           2.434 
        3.84853         40.7912         2.40874 
        3.86424         40.3835         2.38388 
        3.87992          39.891         2.35941 
        3.89561         39.6316         2.33528 
        3.91134         39.2327         2.31144 
        3.92704         38.8936         2.28795 
        3.94273         38.5836         2.26482 
        3.95845         38.1432         2.24196 
        3.97418         37.7774         2.21941 
        3.98988         37.4511         2.19721 
        4.00554         37.1786         2.17536 
        4.02125         36.8339         2.15375 
        4.03698         36.4905          2.1324 
        4.05268         36.0867         2.11139 
        4.06839         35.7608         2.09064 
         4.0841         35.5311         2.07017 
        4.09983         35.1894         2.04996 
        4.11555         34.9266         2.03001 
        4.13124         34.5476         2.01039 
        4.14693         34.2335         1.99101 
        4.16266         34.0015         1.97184 
        4.17839         33.5536         1.95293 
        4.19408         33.3007         1.93432 
        4.20977          33.034         1.91593 
        4.22551         32.7446         1.89774 
        4.24123         32.3955         1.87981 
        4.25691         32.1267         1.86215 
        4.27259         31.8876         1.84472 
        4.28831          31.615         1.82747 
        4.30404          31.346         1.81043 
        4.31974         31.1501         1.79364 
        4.33543         30.7688         1.77707 
        4.35116         30.5184         1.76067 
        4.36688         30.2113         1.74449 
        4.38255         30.0548         1.72856 
        4.39825         29.7971          1.7128 
        4.41398         29.5323         1.69721 
         4.4297         29.2469         1.68182 
        4.44541         28.9991         1.66663 
        4.46111          28.739         1.65164 
        4.47683         28.5524         1.63682 
        4.49251         28.2458         1.62221 
        4.50819         28.0861         1.60778 
         4.5239         27.7917         1.59351 
        4.53962         27.5969         1.57939 
        4.55535         27.3116         1.56544 
        4.57106          27.117         1.55167 
        4.58678         26.8934         1.53807 
         4.6025         26.6637         1.52462 
        4.61821           26.48         1.51134 
        4.63391         26.2438         1.49823 
         4.6496         26.0135         1.48529 
        4.66532         25.7648         1.47247 
        4.68103         25.5444         1.45981 
        4.69673         25.3735         1.44732 
        4.71241         25.1971         1.43498 
        4.72811         24.9572         1.42276 
        4.74384         24.7543         1.41067 
        4.75955         24.6072         1.39874 
        4.77525         24.4043         1.38695 
        4.79096          24.202         1.37529 
        4.80669         24.0046         1.36375 
         4.8224         23.7657         1.35235 
        4.83809         23.5987          1.3411 
        4.85379         23.3921         1.32997 
         4.8695         23.1909         1.31896 
        4.88521          23.083         1.30807 
        4.90093         22.8382         1.29731 
        4.91663         22.6654         1.28668 
        4.93234         22.4823         1.27615 
        4.94807         22.2906         1.26574 
        4.96377          22.132         1.25546 
        4.97943         21.9148         1.24531 
        4.99514         21.8404         1.23525 
        5.01086         21.6491          1.2253 
        5.02654         21.4404         1.21547 
        5.04227         21.2603         1.20573 
          5.058         21.0813         1.19609 
        5.07371         20.9521         1.18657 
        5.08942          20.762         1.17716 
        5.10513         20.6003         1.16784 
        5.12084         20.4469         1.15863 
        5.13656         20.3409         1.14951 
        5.15225         20.1527         1.14051 
        5.16796         19.9581         1.13158 
        5.18369         19.8575         1.12275 
         5.1994         19.6756         1.11402 
        5.21509         19.5441          1.1054 
        5.23079         19.4182         1.09685 
        5.24649         19.2659         1.08841 
        5.26217         19.0966         1.08005 
        5.27788         18.9934         1.07178 
        5.29359         18.7908         1.06358 
        5.30933         18.6632         1.05547 
        5.32504          18.542         1.04744 
        5.34073         18.3713         1.03952 
        5.35646         18.2371         1.03165 
        5.37218         18.1051         1.02387 
        5.38789          17.991         1.01618 
        5.40357         17.8502         1.00858 
        5.41929         17.7403         1.00103 
        5.43502         17.5559        0.993568 
         5.4507          17.445        0.986195 
        5.46639         17.3212        0.978896 
        5.48212         17.2456        0.971654 
        5.49786         17.0642        0.964475 
        5.51353         16.9223        0.957405 
        5.52921         16.7963        0.950399 
        5.54495         16.7167        0.943441 
        5.56066         16.5574        0.936561 
        5.57637         16.4506         0.92975 
        5.59207         16.3328        0.923013 
        5.60778         16.2486        0.916339 
        5.62346         16.0889        0.909741 
        5.63916         15.9902        0.903201 
        5.65487         15.8378        0.896722 
         5.6706         15.7373        0.890298 
        5.68633         15.6354        0.883935 
        5.70203         15.5452        0.877647 
        5.71773         15.4446        0.871422 
        5.73344         15.3026        0.865253 
        5.74916         15.2161        0.859137 
        5.76486         15.0536         0.85309 
        5.78054         14.9771        0.847109 
        5.79626         14.8955        0.841169 
          5.812         14.7596         0.83528 
         5.8277         14.6438        0.829464 
        5.84339         14.5666        0.823703 
        5.85911         14.4307        0.817986 
        5.87484         14.3408        0.812324 
        5.89053         14.2316        0.806726 
        5.90623         14.1566        0.801179 
        5.92195         14.0069        0.795674 
        5.93767         13.9379        0.790223 
        5.95336         13.8462        0.784833 
        5.96905         13.7393        0.779494 
        5.98476         13.6562        0.774198 
        6.00048         13.5576        0.768949 
        6.01617         13.4662        0.763755 
        6.03185         13.3487        0.758616 
        6.04756         13.2792        0.753511 
        6.06331         13.2019        0.748443 
        6.07903         13.0591        0.743431 
        6.09473         12.9809         0.73847 
        6.11044         12.9287        0.733549 
        6.12616         12.8298        0.728674 
        6.14186          12.738        0.723848 
        6.15755         12.6723        0.719066 
        6.17326         12.5727        0.714323 
        6.18898         12.4855        0.709621 
        6.20467         12.4028        0.704969 
        6.22036         12.3117        0.700359 
         6.2361         12.2207        0.695778 
         6.2518         12.1312        0.691245 
        6.26748         12.0466        0.686763 
        6.28319          11.988        0.682307 
        6.29893         11.9055        0.677887 
        6.31463         11.8201        0.673514 
        6.33033         11.7084        0.669181 
        6.34604         11.6637        0.664882 
        6.36177         11.6035        0.660617 
        6.37747         11.4995        0.656397 
