# k  (h/Mpc)    Pcb(k)  (Mpc/h)^3    Pcb_linear(k) (Mpc/h)^3   ShotnoiseSubtracted = true
      0.0200456         21585.4         21944.4 
      0.0350414         15728.1         15192.4 
      0.0492313         10670.6         10861.7 
      0.0637834         8563.97         8988.23 
      0.0800726         6573.07         6943.29 
       0.096163         5194.43         4932.76 
       0.111083         4249.28         3975.87 
       0.126058         3517.54         3532.24 
       0.142273         3025.55         2909.93 
       0.158546         2462.57         2269.48 
        0.17375         2204.28         1944.36 
       0.188953         2083.72         1763.61 
       0.204907          1774.6         1525.94 
       0.220756         1597.35         1278.02 
        0.23588         1426.42         1125.76 
         0.2514          1285.5         1026.71 
       0.267535         1238.87         915.002 
       0.283568         1096.78         799.834 
       0.299022          1043.8         717.581 
       0.314451          1084.7         658.236 
       0.330372          947.37         598.669 
       0.346141         869.149         539.552 
       0.361624         832.784         491.585 
       0.377134         795.889         453.475 
       0.392932         757.658         417.882 
       0.408854         725.358         383.299 
       0.424564         707.464         353.214 
       0.440253         651.365         327.846 
       0.455999         621.773         304.869 
       0.471626         633.107         283.412 
        0.48727         595.219         263.929 
       0.502856         567.122         246.756 
       0.518488         552.147         231.163 
       0.534347         527.275         216.492 
       0.550082         502.286           203.1 
       0.565732         495.316         191.025 
       0.581496         483.361         179.909 
       0.597222          471.53         169.646 
       0.612804         459.621         160.228 
       0.628434         440.332         151.513 
       0.644267         426.354          143.38 
       0.660051         421.138         135.869 
       0.675724         411.285         128.936 
       0.691403         401.353         122.478 
       0.707174         387.116         116.426 
       0.722871         382.077         110.804 
        0.73838         374.032         105.613 
       0.754018         362.432         100.715 
       0.769845         359.722         96.0731 
        0.78569         351.098         91.7197 
       0.801365         338.727          87.679 
       0.817031         336.777         83.8851 
       0.832809         330.375         80.2922 
       0.848511         324.255         76.9264 
       0.864097         314.922         73.7771 
       0.879701         313.706         70.8015 
       0.895507         302.433         67.9552 
       0.911279         296.982         65.2716 
        0.92691         294.238         62.7554 
       0.942635         290.489         60.3582 
       0.958396         281.054         58.0813 
       0.974128         278.322         55.9261 
       0.989692         268.617         53.9016 
        1.00528         267.162         51.9745 
        1.02113         263.603         50.1115 
        1.03692         258.411         48.3468 
        1.05264         253.912         46.6753 
        1.06832          250.31         45.0855 
        1.08405          246.59         43.5657 
        1.09979          242.35          42.115 
        1.11537         237.048         40.7449 
        1.13105         233.396         39.4276 
        1.14679         230.613         38.1635 
        1.16256         228.421         36.9524 
        1.17828         224.669          35.798 
        1.19395          218.65         34.6967 
         1.2097         218.431         33.6363 
        1.22537         215.114         32.6253 
          1.241         208.838         31.6589 
        1.25666         207.884         30.7294 
        1.27241         204.475         29.8328 
        1.28819          200.83         28.9705 
        1.30392         199.595         28.1448 
        1.31957         193.941         27.3549 
        1.33529         190.901         26.5925 
        1.35108         190.348         25.8562 
        1.36674         184.668          25.153 
         1.3824         183.728         24.4766 
        1.39811         182.185         23.8228 
        1.41389         177.158         23.1904 
        1.42964         174.647         22.5821 
        1.44531         173.661         21.9985 
        1.46101         170.317         21.4344 
        1.47667         168.522         20.8916 
        1.49229          166.14         20.3692 
        1.50793         163.117          19.864 
        1.52367         161.252         19.3727 
        1.53953         157.954         18.8947 
        1.55526          156.76         18.4366 
        1.57092         155.729         17.9957 
        1.58662         151.732          17.568 
        1.60235          150.49         17.1535 
        1.61809         147.955         16.7521 
        1.63369         145.285         16.3671 
        1.64941          143.83         15.9915 
        1.66519         141.934         15.6263 
        1.68085         139.633         15.2751 
        1.69652         138.285         14.9345 
        1.71228         135.753         14.6025 
        1.72806         134.702         14.2802 
        1.74368         132.708         13.9709 
        1.75933         131.667         13.6701 
        1.77505         129.749         13.3768 
        1.79081         127.021         13.0915 
         1.8065         125.433         12.8158 
        1.82218         123.285         12.5483 
        1.83797         122.457         12.2866 
        1.85367         120.996         12.0337 
        1.86928         119.547         11.7895 
        1.88497         118.096         11.5507 
        1.90073         116.939         11.3177 
        1.91647         114.721         11.0913 
        1.93218          113.39         10.8715 
        1.94787          111.51          10.658 
        1.96363         110.967         10.4495 
        1.97935          109.65         10.2469 
        1.99499         108.104         10.0508 
        2.01064         105.937         9.85953 
         2.0264         105.044         9.67206 
        2.04216          103.58         9.48955 
        2.05781         102.162         9.31289 
        2.07353         101.149         9.14009 
        2.08928         99.6588          8.9713 
        2.10499         98.9297         8.80721 
        2.12065         97.4389         8.64772 
        2.13633         96.6673         8.49203 
        2.15211         94.9962         8.33916 
        2.16785         93.9103         8.19048 
        2.18349         92.4161         8.04635 
        2.19916         91.9083         7.90538 
        2.21489         90.7126         7.76732 
        2.23063         89.0739         7.63245 
         2.2463         88.3113         7.50139 
        2.26194         87.5535         7.37372 
        2.27765         86.1196         7.24837 
        2.29341          85.305         7.12561 
        2.30914         84.0426         7.00593 
        2.32486         82.7061         6.88906 
        2.34061          81.934         6.77467 
        2.35635         81.1577         6.66296 
        2.37203         79.7633         6.55416 
        2.38768         78.9254         6.44801 
        2.40339         78.2139         6.34382 
        2.41914          77.078         6.24169 
        2.43483         76.4363         6.14216 
         2.4505         75.2852         6.04496 
        2.46622         74.4382         5.94953 
        2.48195         73.7707         5.85615 
        2.49759         72.6275         5.76527 
        2.51328         71.8046         5.67608 
        2.52906         70.7125          5.5882 
        2.54479         70.0995         5.50251 
        2.56049         68.9399         5.41878 
        2.57618         68.2784         5.33686 
        2.59189         67.5845         5.25651 
        2.60758         66.3537         5.17794 
        2.62325         65.9287         5.10106 
        2.63898         65.3775         5.02547 
        2.65468         64.5829         4.95157 
        2.67044         63.6842         4.87884 
        2.68618         63.0777         4.80773 
        2.70184          62.264         4.73832 
        2.71755         61.5449         4.67011 
        2.73329          60.687         4.60313 
        2.74897         60.2956         4.53768 
        2.76462         59.5273         4.47364 
        2.78034         58.6609         4.41057 
        2.79607         58.0977         4.34865 
        2.81179         57.6295         4.28799 
        2.82749         57.1174         4.22855 
        2.84321         56.3787         4.17016 
        2.85893         55.6415          4.1129 
        2.87462         55.1087          4.0568 
        2.89033         54.5524          4.0017 
        2.90605         53.9253         3.94757 
        2.92176          53.359         3.89447 
        2.93747          52.947         3.84237 
        2.95318         52.1468         3.79121 
        2.96891         51.6198         3.74095 
        2.98456         50.9495         3.69183 
        3.00023         50.5637         3.64351 
        3.01596         49.9595         3.59591 
        3.03164         49.3575         3.54929 
        3.04738         49.0676         3.50336 
         3.0631         48.2151         3.45825 
        3.07883         47.6841         3.41394 
        3.09456         47.1887         3.37041 
        3.11026         46.7664          3.3277 
        3.12596         46.2757         3.28573 
        3.14163         45.6728         3.24458 
        3.15734         45.1737         3.20404 
        3.17308         44.7573          3.1641 
        3.18879         44.4091         3.12494 
        3.20447         43.9663          3.0865 
         3.2202         43.3317         3.04858 
         3.2359         42.8904         3.01137 
        3.25157         42.5282         2.97487 
        3.26729         42.0361         2.93886 
        3.28304         41.6796         2.90337 
        3.29877         41.1605         2.86852 
        3.31446         40.8474         2.83431 
        3.33014         40.3468         2.80068 
        3.34585         39.8414         2.76755 
        3.36158         39.5001         2.73491 
        3.37727         39.0739         2.70289 
        3.39294         38.8341         2.67142 
        3.40867         38.3648         2.64033 
        3.42439          38.053         2.60975 
        3.44008         37.4824         2.57971 
        3.45578          37.259         2.55012 
        3.47153          36.705         2.52093 
        3.48724         36.4016         2.49225 
        3.50292         36.1047         2.46407 
        3.51859         35.6939         2.43635 
        3.53431         35.3422         2.40897 
        3.55007         35.0059         2.38194 
        3.56577         34.7404         2.35542 
        3.58146         34.3594         2.32933 
        3.59719         33.9953         2.30356 
        3.61292         33.6505          2.2782 
        3.62859         33.3663         2.25331 
        3.64429         33.0881         2.22874 
        3.66003         32.8333         2.20446 
        3.67578         32.4109         2.18056 
        3.69146          32.225         2.15709 
        3.70712         31.7907         2.13402 
        3.72284         31.5131         2.11119 
        3.73853         31.2882         2.08874 
        3.75422         30.9513          2.0666 
        3.76993         30.7028         2.04477 
        3.78564         30.4166         2.02326 
        3.80137         30.1173         2.00202 
        3.81707         29.8201         1.98113 
        3.83279         29.5963         1.96052 
        3.84853         29.2033         1.94017 
        3.86424         28.9253         1.92015 
        3.87992         28.7901         1.90044 
        3.89561         28.4912         1.88101 
        3.91134         28.2093          1.8618 
        3.92704         27.9715         1.84289 
        3.94273         27.6758         1.82425 
        3.95845         27.4889         1.80584 
        3.97418         27.1362         1.78768 
        3.98988         26.8889         1.76979 
        4.00554         26.6876          1.7522 
        4.02125         26.4584         1.73479 
        4.03698          26.133         1.71759 
        4.05268         25.9809         1.70067 
        4.06839         25.6853         1.68395 
         4.0841         25.5062         1.66747 
        4.09983         25.2151         1.65119 
        4.11555         24.9343         1.63512 
        4.13124         24.7991         1.61932 
        4.14693         24.5685         1.60371 
        4.16266         24.2873         1.58827 
        4.17839         24.1381         1.57304 
        4.19408         23.9588         1.55804 
        4.20977         23.7082         1.54324 
        4.22551         23.4764         1.52858 
        4.24123         23.2845         1.51414 
        4.25691         23.0683         1.49992 
        4.27259         22.9919         1.48587 
        4.28831         22.6629         1.47198 
        4.30404         22.5326         1.45825 
        4.31974         22.2823         1.44473 
        4.33543         22.1157         1.43139 
        4.35116         21.9025         1.41818 
        4.36688         21.7717         1.40514 
        4.38255         21.5846         1.39231 
        4.39825          21.327         1.37962 
        4.41398         21.1634         1.36706 
         4.4297         21.0298         1.35467 
        4.44541         20.8671         1.34243 
        4.46111         20.6772         1.33035 
        4.47683         20.4704         1.31842 
        4.49251         20.2751         1.30665 
        4.50819         20.1598         1.29503 
         4.5239         19.9642         1.28353 
        4.53962         19.8156         1.27216 
        4.55535         19.6128         1.26092 
        4.57106         19.5001         1.24983 
        4.58678         19.3008         1.23887 
         4.6025         19.1474         1.22804 
        4.61821         18.9631         1.21735 
        4.63391         18.8174         1.20679 
         4.6496         18.6664         1.19636 
        4.66532         18.5384         1.18604 
        4.68103         18.3455         1.17584 
        4.69673          18.223         1.16578 
        4.71241         18.0882         1.15584 
        4.72811         17.9075           1.146 
        4.74384         17.7657         1.13626 
        4.75955         17.6646         1.12665 
        4.77525         17.4652         1.11715 
        4.79096         17.3859         1.10776 
        4.80669         17.1871         1.09846 
         4.8224          17.066         1.08929 
        4.83809         16.9337         1.08022 
        4.85379         16.7929         1.07126 
         4.8695         16.6913         1.06239 
        4.88521         16.5205         1.05362 
        4.90093          16.369         1.04495 
        4.91663         16.2875         1.03639 
        4.93234         16.0871         1.02791 
        4.94807         15.9979         1.01952 
        4.96377         15.8942         1.01124 
        4.97943         15.7414         1.00307 
        4.99514         15.6264        0.994963 
        5.01086          15.458        0.986944 
        5.02654         15.4039        0.979033 
        5.04227         15.2507        0.971186 
          5.058         15.1023         0.96342 
        5.07371         15.0303        0.955755 
        5.08942         14.9198        0.948171 
        5.10513         14.7782        0.940669 
        5.12084         14.7286        0.933244 
        5.13656         14.5482          0.9259 
        5.15225         14.4737        0.918648 
        5.16796         14.3307        0.911461 
        5.18369         14.2391        0.904344 
         5.1994         14.1305        0.897317 
        5.21509         14.0303        0.890369 
        5.23079         13.9029        0.883487 
        5.24649         13.8042        0.876683 
        5.26217          13.694        0.869955 
        5.27788         13.6028        0.863288 
        5.29359         13.4816         0.85669 
        5.30933         13.4095         0.85015 
        5.32504         13.2881         0.84369 
        5.34073         13.1929        0.837304 
        5.35646         13.1119         0.83097 
        5.37218         12.9953        0.824701 
        5.38789         12.9051        0.818506 
        5.40357         12.8181        0.812382 
        5.41929         12.7271        0.806307 
        5.43502          12.611        0.800293 
         5.4507         12.5275        0.794355 
        5.46639         12.4584        0.788476 
        5.48212          12.351        0.782642 
        5.49786         12.2453         0.77686 
        5.51353         12.1632        0.771165 
        5.52921         12.0743        0.765522 
        5.54495         11.9807        0.759918 
        5.56066          11.883        0.754376 
        5.57637         11.8251         0.74889 
        5.59207         11.7291        0.743463 
        5.60778         11.6455        0.738088 
        5.62346         11.5627        0.732773 
        5.63916         11.4843        0.727505 
        5.65487         11.3768        0.722286 
         5.6706         11.3111        0.717113 
        5.68633         11.2417        0.711987 
        5.70203         11.1494        0.706923 
        5.71773         11.0668        0.701908 
        5.73344         10.9942        0.696939 
        5.74916         10.9323        0.692013 
        5.76486         10.8503        0.687142 
        5.78054         10.7886        0.682325 
        5.79626         10.6877         0.67754 
          5.812         10.6147        0.672796 
         5.8277         10.5406        0.668112 
        5.84339         10.4673        0.663472 
        5.85911         10.4032        0.658867 
        5.87484         10.3145        0.654306 
        5.89053         10.2438        0.649797 
        5.90623         10.1741        0.645329 
        5.92195         10.0971        0.640895 
        5.93767         10.0001        0.636505 
        5.95336         9.97029        0.632163 
        5.96905         9.88389        0.627863 
        5.98476         9.83564        0.623597 
        6.00048          9.7478        0.619369 
        6.01617         9.69087        0.615185 
        6.03185          9.6336        0.611046 
        6.04756         9.56358        0.606934 
        6.06331         9.49578        0.602851 
        6.07903         9.42128        0.598815 
        6.09473           9.365        0.594818 
        6.11044         9.30121        0.590855 
        6.12616         9.22766        0.586928 
        6.14186         9.18425        0.583041 
        6.15755         9.10249        0.579189 
        6.17326          9.0418        0.575369 
        6.18898         8.98987        0.571581 
        6.20467         8.92608        0.567835 
        6.22036         8.85611        0.564121 
         6.2361          8.8052        0.560431 
         6.2518         8.75315         0.55678 
        6.26748         8.68169         0.55317 
        6.28319         8.64581        0.549581 
        6.29893         8.57807        0.546021 
        6.31463         8.52033        0.542498 
        6.33033         8.46482        0.539008 
        6.34604         8.40233        0.535545 
        6.36177         8.34468         0.53211 
        6.37747         8.29956        0.528711 
