# k  (h/Mpc)    Pcb(k)  (Mpc/h)^3    Pcb_linear(k) (Mpc/h)^3   ShotnoiseSubtracted = true
      0.0200456         231.626         234.621 
      0.0350414         162.701          162.43 
      0.0492313         116.647         116.129 
      0.0637834         96.3698         96.0986 
      0.0800726         74.4916         74.2349 
       0.096163         52.9021         52.7391 
       0.111083         42.4605         42.5084 
       0.126058         37.7454         37.7653 
       0.142273         31.2309         31.1118 
       0.158546         24.4597         24.2643 
        0.17375          20.751         20.7884 
       0.188953         18.8478         18.8558 
       0.204907         16.5399         16.3148 
       0.220756         13.7789         13.6641 
        0.23588         12.1129         12.0362 
         0.2514         10.9773         10.9772 
       0.267535         9.80675         9.78284 
       0.283568         8.60275          8.5515 
       0.299022         7.73441         7.67209 
       0.314451         7.00827         7.03759 
       0.330372         6.41083         6.40073 
       0.346141         5.78532         5.76867 
       0.361624         5.28637         5.25583 
       0.377134         4.89318         4.84837 
       0.392932         4.42426         4.46783 
       0.408854         4.13144         4.09807 
       0.424564         3.78502         3.77642 
       0.440253         3.51629         3.50519 
       0.455999         3.28631         3.25953 
       0.471626          3.0649         3.03012 
        0.48727         2.83727         2.82183 
       0.502856         2.64328         2.63822 
       0.518488         2.50463          2.4715 
       0.534347          2.3615         2.31465 
       0.550082         2.17934         2.17146 
       0.565732         2.02479         2.04236 
       0.581496         1.93968         1.92351 
       0.597222         1.83475         1.81378 
       0.612804          1.7226         1.71309 
       0.628434         1.64413         1.61992 
       0.644267          1.5475         1.53296 
       0.660051         1.46042         1.45266 
       0.675724         1.39078         1.37853 
       0.691403         1.32737         1.30949 
       0.707174         1.25537         1.24477 
       0.722871          1.1895         1.18468 
        0.73838          1.1425         1.12917 
       0.754018         1.09632          1.0768 
       0.769845         1.04125         1.02718 
        0.78569        0.993252         0.98063 
       0.801365        0.946403        0.937428 
       0.817031        0.908528        0.896866 
       0.832809        0.868902        0.858452 
       0.848511        0.829001        0.822466 
       0.864097        0.791232        0.788795 
       0.879701         0.75905        0.756981 
       0.895507        0.734029         0.72655 
       0.911279         0.70686        0.697858 
        0.92691        0.677056        0.670956 
       0.942635        0.651373        0.645325 
       0.958396        0.624297        0.620982 
       0.974128        0.601279        0.597939 
       0.989692        0.581808        0.576295 
        1.00528        0.561004        0.555691 
        1.02113        0.536015        0.535772 
        1.03692        0.520955        0.516905 
        1.05264        0.502505        0.499034 
        1.06832        0.486228        0.482037 
        1.08405        0.465762        0.465787 
        1.09979        0.450596        0.450277 
        1.11537        0.439612        0.435628 
        1.13105         0.42466        0.421544 
        1.14679        0.413054        0.408029 
        1.16256        0.395252        0.395081 
        1.17828        0.383277        0.382737 
        1.19395        0.370728        0.370963 
         1.2097        0.357829        0.359625 
        1.22537        0.350515        0.348816 
          1.241        0.339136        0.338485 
        1.25666         0.33151        0.328546 
        1.27241        0.318939         0.31896 
        1.28819        0.309342        0.309741 
        1.30392        0.301082        0.300913 
        1.31957        0.292978        0.292468 
        1.33529        0.283692        0.284317 
        1.35108        0.275443        0.276444 
        1.36674        0.265818        0.268926 
         1.3824        0.262112        0.261694 
        1.39811        0.253435        0.254704 
        1.41389        0.247099        0.247943 
        1.42964        0.241379        0.241439 
        1.44531        0.232844        0.235199 
        1.46101        0.227998        0.229168 
        1.47667         0.22016        0.223365 
        1.49229         0.21633        0.217779 
        1.50793        0.209559        0.212378 
        1.52367        0.205103        0.207125 
        1.53953         0.20003        0.202014 
        1.55526        0.195139        0.197117 
        1.57092        0.188951        0.192402 
        1.58662        0.185592         0.18783 
        1.60235        0.181651        0.183398 
        1.61809        0.175207        0.179107 
        1.63369        0.173226        0.174991 
        1.64941        0.168653        0.170975 
        1.66519         0.16401         0.16707 
        1.68085        0.159792        0.163315 
        1.69652        0.156042        0.159674 
        1.71228        0.153428        0.156124 
        1.72806        0.148645        0.152678 
        1.74368        0.146537        0.149371 
        1.75933        0.142923        0.146155 
        1.77505        0.139418        0.143019 
        1.79081        0.137028         0.13997 
         1.8065        0.132818        0.137022 
        1.82218        0.130645        0.134161 
        1.83797        0.127519        0.131363 
        1.85367        0.125161         0.12866 
        1.86928        0.122656        0.126049 
        1.88497        0.120175        0.123496 
        1.90073         0.11718        0.121004 
        1.91647        0.114788        0.118583 
        1.93218        0.112176        0.116234 
        1.94787        0.109859        0.113952 
        1.96363        0.107818        0.111721 
        1.97935        0.105191        0.109555 
        1.99499        0.103488        0.107459 
        2.01064        0.101574        0.105414 
         2.0264       0.0992151         0.10341 
        2.04216       0.0976631        0.101458 
        2.05781       0.0956063       0.0995697 
        2.07353       0.0930704       0.0977222 
        2.08928       0.0915164       0.0959175 
        2.10499       0.0895883       0.0941632 
        2.12065       0.0884384       0.0924579 
        2.13633       0.0862719       0.0907933 
        2.15211       0.0852597        0.089159 
        2.16785       0.0832661       0.0875693 
        2.18349       0.0811854       0.0860283 
        2.19916       0.0805641       0.0845211 
        2.21489       0.0788825        0.083045 
        2.23063       0.0774702       0.0816031 
         2.2463       0.0757683       0.0802018 
        2.26194       0.0743075       0.0788369 
        2.27765       0.0729545       0.0774967 
        2.29341       0.0719499       0.0761841 
        2.30914       0.0703738       0.0749046 
        2.32486       0.0691068       0.0736551 
        2.34061       0.0679996        0.072432 
        2.35635       0.0667009       0.0712377 
        2.37203       0.0655845       0.0700745 
        2.38768       0.0643603       0.0689395 
        2.40339       0.0633019       0.0678256 
        2.41914       0.0624005       0.0667336 
        2.43483       0.0611239       0.0656695 
         2.4505       0.0598544       0.0646303 
        2.46622       0.0589975         0.06361 
        2.48195        0.057856       0.0626116 
        2.49759       0.0572929         0.06164 
        2.51328       0.0563462       0.0606863 
        2.52906       0.0552456       0.0597468 
        2.54479       0.0542527       0.0588307 
        2.56049       0.0533841       0.0579355 
        2.57618       0.0525731       0.0570596 
        2.59189       0.0517464       0.0562005 
        2.60758       0.0511333       0.0553604 
        2.62325       0.0501112       0.0545385 
        2.63898       0.0493235       0.0537303 
        2.65468       0.0482839       0.0529402 
        2.67044       0.0479076       0.0521626 
        2.68618       0.0470229       0.0514023 
        2.70184       0.0462186       0.0506602 
        2.71755       0.0452912       0.0499309 
        2.73329       0.0448416       0.0492148 
        2.74897       0.0442532        0.048515 
        2.76462       0.0434255       0.0478304 
        2.78034       0.0428774       0.0471561 
        2.79607       0.0420712       0.0464941 
        2.81179       0.0416037       0.0458455 
        2.82749       0.0408404       0.0452099 
        2.84321       0.0402568       0.0445857 
        2.85893       0.0397013       0.0439735 
        2.87462       0.0392673       0.0433737 
        2.89033       0.0385661       0.0427846 
        2.90605       0.0378598       0.0422058 
        2.92176       0.0374969       0.0416381 
        2.93747       0.0369183       0.0410811 
        2.95318       0.0362982       0.0405341 
        2.96891        0.035874       0.0399967 
        2.98456       0.0354537       0.0394715 
        3.00023       0.0347777        0.038955 
        3.01596       0.0343104        0.038446 
        3.03164       0.0340247       0.0379476 
        3.04738       0.0334294       0.0374565 
         3.0631       0.0328748       0.0369743 
        3.07883       0.0324722       0.0365005 
        3.09456        0.032136        0.036035 
        3.11026       0.0316149       0.0355784 
        3.12596       0.0313069       0.0351297 
        3.14163       0.0308319       0.0346898 
        3.15734       0.0304569       0.0342564 
        3.17308       0.0300365       0.0338293 
        3.18879       0.0295823       0.0334106 
        3.20447        0.029353       0.0329996 
         3.2202       0.0289248       0.0325942 
         3.2359       0.0285948       0.0321964 
        3.25157        0.028159       0.0318061 
        3.26729       0.0277945       0.0314211 
        3.28304       0.0275231       0.0310417 
        3.29877       0.0271807        0.030669 
        3.31446       0.0267844       0.0303033 
        3.33014        0.026504       0.0299438 
        3.34585       0.0261813       0.0295896 
        3.36158       0.0258011       0.0292406 
        3.37727       0.0255657       0.0288982 
        3.39294       0.0253002       0.0285617 
        3.40867       0.0249545       0.0282293 
        3.42439       0.0246756       0.0279023 
        3.44008       0.0244031       0.0275812 
        3.45578       0.0242115       0.0272649 
        3.47153       0.0238384       0.0269528 
        3.48724        0.023728       0.0266461 
        3.50292       0.0233115       0.0263449 
        3.51859       0.0230273       0.0260485 
        3.53431       0.0229055       0.0257557 
        3.55007       0.0226069       0.0254667 
        3.56577       0.0224248       0.0251832 
        3.58146       0.0220733       0.0249042 
        3.59719       0.0219293       0.0246288 
        3.61292       0.0216299       0.0243576 
        3.62859       0.0214106       0.0240914 
        3.64429       0.0212557       0.0238288 
        3.66003       0.0209916       0.0235692 
        3.67578        0.020823       0.0233136 
        3.69146       0.0206303       0.0230628 
        3.70712       0.0204629       0.0228161 
        3.72284       0.0202262        0.022572 
        3.73853       0.0199918        0.022332 
        3.75422        0.019911       0.0220953 
        3.76993       0.0196326       0.0218619 
        3.78564       0.0194908       0.0216319 
        3.80137       0.0192756       0.0214048 
        3.81707       0.0190561       0.0211815 
        3.83279       0.0189401       0.0209611 
        3.84853        0.018778       0.0207436 
        3.86424       0.0185865       0.0205295 
        3.87992         0.01843       0.0203188 
        3.89561       0.0182921        0.020111 
        3.91134       0.0181234       0.0199056 
        3.92704       0.0179223       0.0197034 
        3.94273       0.0177662       0.0195042 
        3.95845       0.0175996       0.0193073 
        3.97418       0.0174982       0.0191132 
        3.98988       0.0172822       0.0189219 
        4.00554       0.0170997       0.0187338 
        4.02125       0.0168555       0.0185477 
        4.03698       0.0166601       0.0183638 
        4.05268       0.0164286       0.0181828 
        4.06839       0.0161934       0.0180042 
         4.0841       0.0159445       0.0178279 
        4.09983       0.0156976       0.0176538 
        4.11555       0.0155275       0.0174821 
        4.13124        0.015325       0.0173131 
        4.14693        0.015044       0.0171462 
        4.16266         0.01485       0.0169811 
        4.17839       0.0147057       0.0168183 
        4.19408       0.0145359        0.016658 
        4.20977       0.0143455       0.0164997 
        4.22551       0.0141368        0.016343 
        4.24123       0.0139718       0.0161886 
        4.25691       0.0138252       0.0160365 
        4.27259        0.013679       0.0158864 
        4.28831       0.0135587       0.0157378 
        4.30404       0.0134099       0.0155911 
        4.31974       0.0132758       0.0154465 
        4.33543       0.0131598       0.0153038 
        4.35116       0.0130448       0.0151626 
        4.36688       0.0129337       0.0150232 
        4.38255       0.0128226       0.0148861 
        4.39825       0.0127532       0.0147503 
        4.41398       0.0126838        0.014616 
         4.4297       0.0126003       0.0144835 
        4.44541       0.0125143       0.0143527 
        4.46111       0.0124193       0.0142236 
        4.47683       0.0123928        0.014096 
        4.49251       0.0122939       0.0139702 
        4.50819       0.0122535       0.0138459 
         4.5239       0.0121863        0.013723 
        4.53962       0.0121916       0.0136014 
        4.55535       0.0121456       0.0134812 
        4.57106       0.0121716       0.0133627 
        4.58678       0.0120841       0.0132455 
         4.6025       0.0121144       0.0131298 
        4.61821       0.0121004       0.0130154 
        4.63391       0.0120782       0.0129025 
         4.6496        0.012081        0.012791 
        4.66532       0.0120882       0.0126806 
        4.68103       0.0121189       0.0125716 
        4.69673       0.0121228        0.012464 
        4.71241       0.0121998       0.0123577 
        4.72811       0.0121745       0.0122525 
        4.74384       0.0122176       0.0121484 
        4.75955       0.0123095       0.0120457 
        4.77525       0.0123426       0.0119442 
        4.79096        0.012418       0.0118437 
        4.80669       0.0124392       0.0117443 
         4.8224       0.0125639       0.0116462 
        4.83809       0.0125967       0.0115493 
        4.85379       0.0127194       0.0114535 
         4.8695        0.012771       0.0113586 
        4.88521        0.012879       0.0112649 
        4.90093       0.0130003       0.0111722 
        4.91663        0.013163       0.0110806 
        4.93234       0.0132054         0.01099 
        4.94807       0.0132772       0.0109003 
        4.96377       0.0134567       0.0108117 
        4.97943       0.0136019       0.0107244 
        4.99514       0.0137389       0.0106377 
        5.01086       0.0138358        0.010552 
        5.02654       0.0140546       0.0104674 
        5.04227        0.014217       0.0103835 
          5.058       0.0143695       0.0103005 
        5.07371       0.0144985       0.0102185 
        5.08942        0.014806       0.0101375 
        5.10513       0.0149474       0.0100573 
        5.12084       0.0150921      0.00997787 
        5.13656       0.0154102      0.00989935 
        5.15225       0.0155773      0.00982181 
        5.16796       0.0158784      0.00974497 
        5.18369       0.0159833      0.00966889 
         5.1994       0.0162928      0.00959375 
        5.21509       0.0165083      0.00951947 
        5.23079       0.0167398      0.00944589 
        5.24649       0.0170434      0.00937315 
        5.26217       0.0173547      0.00930121 
        5.27788       0.0175887      0.00922993 
        5.29359       0.0179232      0.00915938 
        5.30933       0.0181562      0.00908947 
        5.32504       0.0184699      0.00902039 
        5.34073       0.0189328      0.00895211 
        5.35646       0.0191975       0.0088844 
        5.37218       0.0195385      0.00881737 
        5.38789       0.0199855      0.00875114 
        5.40357       0.0203284      0.00868567 
        5.41929        0.020602      0.00862071 
        5.43502       0.0211099      0.00855641 
         5.4507       0.0214407      0.00849292 
        5.46639       0.0219026      0.00843006 
        5.48212       0.0221994      0.00836769 
        5.49786       0.0226974      0.00830588 
        5.51353        0.023318      0.00824499 
        5.52921       0.0237305      0.00818465 
        5.54495       0.0243073      0.00812473 
        5.56066       0.0247757      0.00806548 
        5.57637       0.0252382      0.00800683 
        5.59207        0.025755      0.00794881 
        5.60778       0.0263354      0.00789134 
        5.62346       0.0268921      0.00783451 
        5.63916       0.0274524      0.00777819 
        5.65487       0.0280709      0.00772239 
         5.6706       0.0285474      0.00766708 
        5.68633       0.0294153      0.00761228 
        5.70203       0.0300735      0.00755813 
        5.71773       0.0306754      0.00750452 
        5.73344       0.0313127      0.00745139 
        5.74916       0.0321977      0.00739873 
        5.76486       0.0328728      0.00734664 
        5.78054       0.0335677      0.00729514 
        5.79626       0.0343852      0.00724398 
          5.812       0.0351955      0.00719327 
         5.8277       0.0362038      0.00714318 
        5.84339       0.0367107      0.00709357 
        5.85911       0.0377085      0.00704434 
        5.87484       0.0387018      0.00699558 
        5.89053       0.0396978      0.00694737 
        5.90623       0.0406114       0.0068996 
        5.92195       0.0416984      0.00685219 
        5.93767       0.0427741      0.00680525 
        5.95336       0.0436665      0.00675883 
        5.96905       0.0448882      0.00671286 
        5.98476       0.0456247      0.00666724 
        6.00048       0.0468769      0.00662204 
        6.01617       0.0480187      0.00657731 
        6.03185       0.0492058      0.00653305 
        6.04756       0.0506851      0.00648909 
        6.06331       0.0521333      0.00644544 
        6.07903       0.0532626      0.00640228 
        6.09473       0.0546665      0.00635956 
        6.11044       0.0564519      0.00631719 
        6.12616       0.0578148       0.0062752 
        6.14186       0.0592299      0.00623364 
        6.15755       0.0607918      0.00619246 
        6.17326       0.0619837      0.00615162 
        6.18898       0.0640105      0.00611112 
        6.20467       0.0658268      0.00607106 
        6.22036       0.0675068      0.00603136 
         6.2361       0.0689546      0.00599191 
         6.2518       0.0716325      0.00595287 
        6.26748        0.072656      0.00591427 
        6.28319       0.0754605       0.0058759 
        6.29893       0.0775285      0.00583784 
        6.31463       0.0792957      0.00580017 
        6.33033       0.0816144      0.00576285 
        6.34604       0.0835484      0.00572584 
        6.36177       0.0860027      0.00568911 
        6.37747       0.0884929      0.00565277 
