# k  (h/Mpc)    Pcb(k)  (Mpc/h)^3    Pcb_linear(k) (Mpc/h)^3   ShotnoiseSubtracted = true
      0.0200456         10785.2         10936.7 
      0.0350414         7789.67         7571.59 
      0.0492313         5378.75          5413.3 
      0.0637834         4333.41         4479.57 
      0.0800726         3334.72         3460.41 
       0.096163         2561.25          2458.4 
       0.111083         2091.78          1981.5 
       0.126058         1750.17          1760.4 
       0.142273         1474.79         1450.26 
       0.158546         1197.92         1131.07 
        0.17375         1052.81         969.035 
       0.188953         972.338         878.949 
       0.204907         818.566         760.502 
       0.220756         728.446         636.942 
        0.23588         648.554         561.058 
         0.2514          580.11         511.695 
       0.267535          557.41          456.02 
       0.283568         484.037         398.623 
       0.299022         460.023         357.629 
       0.314451         459.798         328.053 
       0.330372         393.879         298.366 
       0.346141         364.009         268.903 
       0.361624           345.9         244.997 
       0.377134         320.929         226.004 
       0.392932         310.977         208.265 
       0.408854         294.889         191.029 
       0.424564          283.41         176.035 
       0.440253         255.523         163.392 
       0.455999         242.731         151.941 
       0.471626         241.026         141.247 
        0.48727         229.039         131.538 
       0.502856         209.111         122.979 
       0.518488         209.171         115.207 
       0.534347         194.136         107.896 
       0.550082         189.098         101.221 
       0.565732         187.096         95.2034 
       0.581496         174.337         89.6632 
       0.597222         170.074         84.5483 
       0.612804         164.434         79.8546 
       0.628434         159.247         75.5114 
       0.644267         151.404         71.4579 
       0.660051         147.828         67.7146 
       0.675724         145.805         64.2592 
       0.691403         142.008          61.041 
       0.707174         136.759         58.0244 
       0.722871         134.468         55.2228 
        0.73838         132.567         52.6357 
       0.754018         124.498         50.1944 
       0.769845         124.227         47.8811 
        0.78569         120.675         45.7114 
       0.801365         116.667         43.6976 
       0.817031         113.561         41.8068 
       0.832809         111.446         40.0162 
       0.848511         108.635         38.3387 
       0.864097         106.605         36.7692 
       0.879701         105.018         35.2862 
       0.895507         101.663         33.8676 
       0.911279         99.2226         32.5302 
        0.92691           97.05         31.2762 
       0.942635         94.7975         30.0814 
       0.958396         94.1099         28.9466 
       0.974128         91.9388         27.8725 
       0.989692         89.5899         26.8636 
        1.00528         88.3031         25.9031 
        1.02113         85.9804         24.9747 
        1.03692         85.6716         24.0952 
        1.05264         84.4539         23.2621 
        1.06832         81.6637         22.4698 
        1.08405          80.811         21.7123 
        1.09979         80.0814         20.9894 
        1.11537         77.8189         20.3065 
        1.13105         76.7077           19.65 
        1.14679         75.5306           19.02 
        1.16256         73.9193         18.4164 
        1.17828          73.271          17.841 
        1.19395         71.3577         17.2922 
         1.2097         71.1087         16.7637 
        1.22537         69.4366         16.2598 
          1.241         69.2543         15.7782 
        1.25666         66.6868          15.315 
        1.27241         66.3841         14.8681 
        1.28819          65.805         14.4383 
        1.30392         64.4381         14.0268 
        1.31957         63.8983         13.6332 
        1.33529         62.9001         13.2532 
        1.35108         62.3685         12.8862 
        1.36674         61.2132         12.5358 
         1.3824         60.5908         12.1987 
        1.39811         59.1573         11.8729 
        1.41389         58.3321         11.5577 
        1.42964         57.6558         11.2545 
        1.44531         57.1114         10.9637 
        1.46101         56.5034         10.6825 
        1.47667         55.5752          10.412 
        1.49229         54.8017         10.1516 
        1.50793         54.1318         9.89985 
        1.52367          53.785         9.65499 
        1.53953         52.8734         9.41676 
        1.55526         51.8738         9.18848 
        1.57092         51.8018          8.9687 
        1.58662         51.0321         8.75559 
        1.60235          50.322         8.54899 
        1.61809         49.3734         8.34895 
        1.63369         48.8145         8.15708 
        1.64941          48.502         7.96987 
        1.66519         47.3913         7.78785 
        1.68085          47.073         7.61282 
        1.69652         46.2027          7.4431 
        1.71228         45.8764          7.2776 
        1.72806         45.4415         7.11699 
        1.74368         44.7023         6.96284 
        1.75933         44.4226         6.81294 
        1.77505          43.864         6.66675 
        1.79081         43.3213         6.52459 
         1.8065         42.9288         6.38718 
        1.82218          41.777         6.25384 
        1.83797         41.4835         6.12339 
        1.85367         41.1637         5.99738 
        1.86928         40.8249         5.87567 
        1.88497         40.1291         5.75668 
        1.90073         39.5936         5.64053 
        1.91647         39.5071         5.52769 
        1.93218         39.1439         5.41817 
        1.94787         38.5164         5.31178 
        1.96363         37.9438         5.20782 
        1.97935         37.5659         5.10685 
        1.99499         37.1476         5.00912 
        2.01064         36.5771         4.91381 
         2.0264         36.5336         4.82038 
        2.04216         35.9649         4.72942 
        2.05781         35.5646         4.64137 
        2.07353         34.9547         4.55526 
        2.08928         34.9376         4.47113 
        2.10499         34.5361         4.38935 
        2.12065         34.0559         4.30986 
        2.13633         33.8781         4.23227 
        2.15211         33.3314         4.15609 
        2.16785         32.7953         4.08199 
        2.18349         32.5447         4.01015 
        2.19916         32.2168          3.9399 
        2.21489         32.0322         3.87109 
        2.23063         31.5795         3.80387 
         2.2463         31.3263         3.73855 
        2.26194         30.9177         3.67493 
        2.27765         30.5715         3.61246 
        2.29341         30.1806         3.55127 
        2.30914         29.8963         3.49163 
        2.32486         29.5143         3.43338 
        2.34061         29.2965         3.37637 
        2.35635         29.0082          3.3207 
        2.37203         28.7358         3.26647 
        2.38768         28.5064         3.21357 
        2.40339         28.2093         3.16164 
        2.41914         27.9668         3.11074 
        2.43483         27.6621         3.06114 
         2.4505         27.3901          3.0127 
        2.46622         27.0172         2.96514 
        2.48195         26.8645          2.9186 
        2.49759         26.4735         2.87331 
        2.51328         26.1996         2.82885 
        2.52906         26.0024         2.78506 
        2.54479         25.7861         2.74235 
        2.56049         25.5657         2.70062 
        2.57618         25.2661          2.6598 
        2.59189         25.0025         2.61975 
        2.60758         24.7275         2.58059 
        2.62325         24.5322         2.54228 
        2.63898         24.3525          2.5046 
        2.65468         23.9795         2.46777 
        2.67044         23.8185         2.43152 
        2.68618          23.574         2.39609 
        2.70184         23.3154         2.36149 
        2.71755          23.075          2.3275 
        2.73329         22.8752         2.29411 
        2.74897         22.6333          2.2615 
        2.76462         22.4479         2.22958 
        2.78034         22.1754         2.19815 
        2.79607         22.0126         2.16729 
        2.81179         21.7704         2.13706 
        2.82749         21.5498         2.10743 
        2.84321         21.3413         2.07833 
        2.85893         21.1699         2.04979 
        2.87462         20.9917         2.02184 
        2.89033         20.7502         1.99437 
        2.90605         20.5413          1.9674 
        2.92176         20.3341         1.94093 
        2.93747         20.1569         1.91497 
        2.95318         20.0636         1.88947 
        2.96891          19.761         1.86442 
        2.98456         19.6237         1.83994 
        3.00023         19.3508         1.81586 
        3.01596         19.0992         1.79213 
        3.03164         19.0073          1.7689 
        3.04738          18.866         1.74601 
         3.0631         18.6712         1.72353 
        3.07883         18.4681         1.70144 
        3.09456         18.2722         1.67975 
        3.11026         18.0977         1.65846 
        3.12596         17.8922         1.63755 
        3.14163          17.792         1.61704 
        3.15734         17.6741         1.59684 
        3.17308         17.4054         1.57693 
        3.18879         17.2661         1.55741 
        3.20447         17.1937         1.53825 
         3.2202          16.946         1.51936 
         3.2359          16.758         1.50081 
        3.25157         16.6188         1.48262 
        3.26729          16.518         1.46467 
        3.28304         16.3613         1.44699 
        3.29877          16.245         1.42962 
        3.31446         16.0823         1.41257 
        3.33014         15.8543         1.39581 
        3.34585         15.8129          1.3793 
        3.36158         15.5893         1.36303 
        3.37727         15.4845         1.34707 
        3.39294         15.3755         1.33138 
        3.40867         15.2211         1.31589 
        3.42439         15.0203         1.30065 
        3.44008         14.8992         1.28568 
        3.45578         14.7795         1.27093 
        3.47153         14.6686         1.25639 
        3.48724         14.5453         1.24209 
        3.50292         14.3829         1.22805 
        3.51859         14.2888         1.21423 
        3.53431         14.1467         1.20058 
        3.55007         14.0136         1.18711 
        3.56577         13.9148          1.1739 
        3.58146         13.7763         1.16089 
        3.59719         13.6578         1.14805 
        3.61292         13.5475         1.13541 
        3.62859         13.3562         1.12301 
        3.64429         13.2758         1.11076 
        3.66003         13.1719         1.09866 
        3.67578         13.1173         1.08675 
        3.69146         12.9603         1.07506 
        3.70712         12.8234         1.06356 
        3.72284         12.7161         1.05218 
        3.73853         12.6465         1.04099 
        3.75422         12.4556         1.02996 
        3.76993         12.3968         1.01908 
        3.78564         12.2957         1.00836 
        3.80137         12.1612        0.997771 
        3.81707         12.0395        0.987361 
        3.83279         12.0073         0.97709 
        3.84853         11.8654        0.966948 
        3.86424         11.7563        0.956969 
        3.87992         11.6786        0.947146 
        3.89561         11.5474        0.937459 
        3.91134         11.4802        0.927889 
        3.92704         11.3727        0.918462 
        3.94273         11.2785        0.909175 
        3.95845         11.1758        0.899999 
        3.97418         11.0684        0.890948 
        3.98988         10.9923        0.882033 
        4.00554         10.8806        0.873264 
        4.02125         10.8044        0.864588 
        4.03698          10.729        0.856017 
        4.05268          10.632        0.847581 
        4.06839         10.5164        0.839252 
         4.0841         10.4407        0.831038 
        4.09983         10.3351        0.822921 
        4.11555         10.2633        0.814916 
        4.13124         10.1803        0.807039 
        4.14693         10.1033        0.799259 
        4.16266         10.0145        0.791563 
        4.17839          9.9105        0.783973 
        4.19408         9.86254          0.7765 
        4.20977         9.76725         0.76912 
        4.22551         9.69611        0.761819 
        4.24123         9.61348        0.754619 
        4.25691         9.52167        0.747532 
        4.27259         9.43519        0.740533 
        4.28831         9.38599        0.733609 
        4.30404         9.28751        0.726768 
        4.31974         9.21895        0.720028 
        4.33543         9.12379        0.713377 
        4.35116         9.08712        0.706794 
        4.36688         8.99044        0.700296 
        4.38255         8.90498        0.693904 
        4.39825         8.85513        0.687577 
        4.41398         8.78276        0.681317 
         4.4297         8.69371        0.675141 
        4.44541         8.64292        0.669042 
        4.46111         8.55954        0.663024 
        4.47683         8.47812        0.657074 
        4.49251         8.43617         0.65121 
        4.50819         8.36099        0.645418 
         4.5239          8.3001        0.639689 
        4.53962          8.2247        0.634021 
        4.55535         8.16205        0.628419 
        4.57106         8.12743        0.622893 
        4.58678         8.03979        0.617432 
         4.6025         7.99056        0.612035 
        4.61821         7.92812        0.606703 
        4.63391         7.84232        0.601441 
         4.6496         7.77801        0.596244 
        4.66532         7.73776          0.5911 
        4.68103         7.66323        0.586019 
        4.69673         7.59942        0.581002 
        4.71241         7.55209        0.576048 
        4.72811         7.48136        0.571144 
        4.74384         7.44711        0.566291 
        4.75955         7.38672        0.561501 
        4.77525         7.32622        0.556769 
        4.79096         7.27091        0.552086 
        4.80669         7.19633        0.547454 
         4.8224         7.15974        0.542881 
        4.83809         7.09761        0.538364 
        4.85379         7.06656        0.533896 
         4.8695         6.99786        0.529474 
        4.88521         6.93322        0.525105 
        4.90093         6.91258        0.520784 
        4.91663         6.83563        0.516515 
        4.93234          6.7835         0.51229 
        4.94807         6.74203        0.508109 
        4.96377         6.68058        0.503982 
        4.97943          6.6223         0.49991 
        4.99514         6.58821        0.495871 
        5.01086         6.53837        0.491875 
        5.02654         6.48083        0.487932 
        5.04227         6.43441        0.484021 
          5.058         6.39927        0.480151 
        5.07371         6.35616        0.476331 
        5.08942         6.29178        0.472551 
        5.10513         6.24092        0.468812 
        5.12084         6.19771        0.465112 
        5.13656         6.15902        0.461452 
        5.15225         6.12083        0.457837 
        5.16796         6.06834        0.454255 
        5.18369          6.0288        0.450709 
         5.1994         5.99589        0.447206 
        5.21509         5.94285        0.443744 
        5.23079         5.88817        0.440314 
        5.24649          5.8582        0.436923 
        5.26217         5.82702         0.43357 
        5.27788         5.78022        0.430247 
        5.29359         5.73157        0.426958 
        5.30933          5.6819        0.423699 
        5.32504          5.6581         0.42048 
        5.34073         5.60707        0.417297 
        5.35646         5.57646         0.41414 
        5.37218         5.54493        0.411016 
        5.38789         5.50498        0.407929 
        5.40357          5.4659        0.404877 
        5.41929         5.43054        0.401849 
        5.43502         5.39001        0.398852 
         5.4507         5.34478        0.395892 
        5.46639         5.30633        0.392962 
        5.48212         5.26973        0.390054 
        5.49786         5.23282        0.387173 
        5.51353         5.20492        0.384335 
        5.52921         5.15736        0.381522 
        5.54495         5.13657        0.378729 
        5.56066         5.09914        0.375967 
        5.57637         5.06419        0.373233 
        5.59207         5.01809        0.370528 
        5.60778         4.99801        0.367849 
        5.62346         4.95518        0.365201 
        5.63916         4.92467        0.362575 
        5.65487         4.88986        0.359974 
         5.6706         4.85857        0.357396 
        5.68633         4.81907        0.354841 
        5.70203         4.78794        0.352317 
        5.71773         4.76331        0.349818 
        5.73344         4.73407        0.347342 
        5.74916         4.69658        0.344887 
        5.76486         4.66521        0.342459 
        5.78054         4.62983        0.340058 
        5.79626          4.6065        0.337674 
          5.812         4.58048        0.335309 
         5.8277         4.54022        0.332975 
        5.84339          4.5123        0.330662 
        5.85911         4.48199        0.328367 
        5.87484          4.4598        0.326094 
        5.89053           4.422        0.323847 
        5.90623         4.39546         0.32162 
        5.92195            4.37         0.31941 
        5.93767         4.33663        0.317222 
        5.95336         4.30603        0.315058 
        5.96905         4.27901        0.312915 
        5.98476         4.25714        0.310789 
        6.00048         4.23092        0.308682 
        6.01617          4.2047        0.306597 
        6.03185           4.184        0.304534 
        6.04756         4.15822        0.302485 
        6.06331         4.12281         0.30045 
        6.07903          4.1013        0.298438 
        6.09473         4.07225        0.296447 
        6.11044         4.03863        0.294471 
        6.12616         4.01846        0.292514 
        6.14186         3.98964        0.290577 
        6.15755         3.96385        0.288657 
        6.17326         3.94224        0.286753 
        6.18898         3.92013        0.284866 
        6.20467         3.89356        0.282998 
        6.22036         3.87502        0.281148 
         6.2361         3.83877        0.279309 
         6.2518         3.81811        0.277489 
        6.26748         3.79952         0.27569 
        6.28319          3.7781        0.273901 
        6.29893         3.74633        0.272127 
        6.31463         3.73235        0.270371 
        6.33033         3.70657        0.268632 
        6.34604         3.68355        0.266906 
        6.36177         3.66748        0.265194 
        6.37747         3.63871          0.2635 
