# k  (h/Mpc)    Pcb(k)  (Mpc/h)^3    Pcb_linear(k) (Mpc/h)^3   ShotnoiseSubtracted = true
      0.0200456         2192.35         2223.34 
      0.0350414         1678.63         1653.97 
      0.0492313         1246.96         1245.86 
      0.0637834         1045.39          1063.5 
      0.0800726         820.431         834.547 
       0.096163         621.423         609.338 
       0.111083         519.953         507.124 
       0.126058         450.506         455.159 
       0.142273         372.777         374.686 
       0.158546         302.844         298.082 
        0.17375         268.798         261.989 
       0.188953         243.516         238.652 
       0.204907         204.414           205.7 
       0.220756         180.081         174.647 
        0.23588         161.437         156.904 
         0.2514         147.242         143.734 
       0.267535         134.759         127.762 
       0.283568         118.417         112.728 
       0.299022         109.611         102.547 
       0.314451          104.04          94.535 
       0.330372         92.5638         85.9522 
       0.346141         84.7468         77.9339 
       0.361624         78.4632           71.69 
       0.377134         72.0825         66.4728 
       0.392932         69.7718         61.3514 
       0.408854         63.7773         56.5094 
       0.424564         61.0787         52.4314 
       0.440253         55.9449         48.8963 
       0.455999         51.2798         45.5854 
       0.471626         48.6078         42.5285 
        0.48727         47.3118         39.7931 
       0.502856          44.217         37.3589 
       0.518488         41.4794         35.1048 
       0.534347         39.1015         32.9796 
       0.550082         37.6536         31.0563 
       0.565732         36.2753          29.313 
       0.581496         34.1643         27.6915 
       0.597222         32.3252          26.188 
       0.612804         30.8972         24.8098 
       0.628434         30.2877         23.5342 
       0.644267         28.7035         22.3355 
       0.660051         27.3237         21.2237 
       0.675724         26.0822         20.1948 
       0.691403         25.5672         19.2341 
       0.707174         24.5583         18.3312 
       0.722871         23.7774         17.4907 
        0.73838         22.5203         16.7125 
       0.754018         21.4642         15.9764 
       0.769845         20.8799         15.2773 
        0.78569         20.2615         14.6199 
       0.801365         19.5223         14.0082 
       0.817031         18.8727         13.4325 
       0.832809         18.2666         12.8859 
       0.848511         17.7472         12.3727 
       0.864097         17.1621         11.8913 
       0.879701         16.8759         11.4355 
       0.895507         16.2659         10.9985 
       0.911279         15.6214         10.5855 
        0.92691         15.3033         10.1975 
       0.942635         14.9366         9.82709 
       0.958396         14.4115         9.47452 
       0.974128         14.0921         9.14013 
       0.989692         13.4848          8.8254 
        1.00528         13.4001         8.52524 
        1.02113         12.9596         8.23452 
        1.03692         12.6673         7.95864 
        1.05264         12.3615         7.69684 
        1.06832         12.0921         7.44739 
        1.08405         11.7978          7.2085 
        1.09979         11.5116         6.98009 
        1.11537         11.2403         6.76398 
        1.13105         11.0254         6.55586 
        1.14679         10.7912         6.35581 
        1.16256         10.5276         6.16384 
        1.17828          10.335         5.98054 
        1.19395          10.121         5.80542 
         1.2097         9.80634         5.63651 
        1.22537         9.63709         5.47523 
          1.241         9.40493         5.32084 
        1.25666          9.3795         5.17209 
        1.27241         9.17032          5.0284 
        1.28819         8.81347         4.89001 
        1.30392         8.73584         4.75729 
        1.31957         8.56899         4.63015 
        1.33529          8.4376         4.50726 
        1.35108           8.256         4.38839 
        1.36674         8.06947         4.27472 
         1.3824         7.98694         4.16523 
        1.39811         7.83018         4.05926 
        1.41389         7.64895         3.95662 
        1.42964         7.56457         3.85774 
        1.44531         7.42113         3.76277 
        1.46101         7.33517         3.67084 
        1.47667         7.17929         3.58228 
        1.49229         7.01249         3.49693 
        1.50793          6.9188         3.41429 
        1.52367         6.79492         3.33382 
        1.53953          6.6733         3.25544 
        1.55526         6.64082         3.18024 
        1.57092         6.49413         3.10775 
        1.58662         6.40947         3.03737 
        1.60235         6.31123         2.96907 
        1.61809         6.22101         2.90285 
        1.63369         6.10709         2.83927 
        1.64941         6.01554         2.77716 
        1.66519         5.94126         2.71671 
        1.68085          5.8448         2.65851 
        1.69652         5.78365         2.60201 
        1.71228         5.71113         2.54686 
        1.72806         5.61295         2.49328 
        1.74368           5.557          2.4418 
        1.75933         5.47361         2.39168 
        1.77505         5.36789         2.34276 
        1.79081         5.33974         2.29513 
         1.8065         5.26939         2.24904 
        1.82218         5.18459         2.20428 
        1.83797         5.09825         2.16044 
        1.85367         5.03077         2.11805 
        1.86928         5.00916         2.07707 
        1.88497          4.8955         2.03695 
        1.90073         4.85775         1.99777 
        1.91647          4.7931         1.95965 
        1.93218         4.73291         1.92263 
        1.94787         4.67975         1.88663 
        1.96363         4.63003         1.85141 
        1.97935         4.57293         1.81718 
        1.99499         4.52086         1.78402 
        2.01064         4.47946         1.75164 
         2.0264         4.40767         1.71987 
        2.04216         4.36293         1.68892 
        2.05781         4.30689         1.65893 
        2.07353         4.28441         1.62957 
        2.08928         4.20594         1.60087 
        2.10499         4.16432         1.57294 
        2.12065         4.16551         1.54577 
        2.13633         4.09364         1.51922 
        2.15211         4.02923         1.49313 
        2.16785          3.9905         1.46774 
        2.18349         3.95907          1.4431 
        2.19916         3.92473         1.41898 
        2.21489         3.87762         1.39533 
        2.23063         3.82277         1.37222 
         2.2463         3.78516         1.34974 
        2.26194         3.74434         1.32782 
        2.27765         3.67701         1.30629 
        2.29341         3.65672         1.28518 
        2.30914           3.619         1.26458 
        2.32486          3.6036         1.24445 
        2.34061         3.56399         1.22474 
        2.35635         3.53159         1.20547 
        2.37203         3.50738         1.18668 
        2.38768          3.4771         1.16834 
        2.40339         3.42055         1.15033 
        2.41914         3.38836         1.13266 
        2.43483         3.35695         1.11542 
         2.4505         3.33711         1.09858 
        2.46622         3.29536         1.08202 
        2.48195         3.27521         1.06582 
        2.49759         3.23897         1.05003 
        2.51328          3.2114         1.03453 
        2.52906         3.18412         1.01924 
        2.54479         3.15134         1.00433 
        2.56049          3.1237         0.98974 
        2.57618         3.09758        0.975459 
        2.59189         3.09045        0.961441 
        2.60758         3.05118        0.947724 
        2.62325         3.00963        0.934293 
        2.63898         2.97906        0.921078 
        2.65468         2.95644         0.90815 
        2.67044         2.95436        0.895417 
        2.68618         2.91987        0.882959 
        2.70184          2.8951        0.870791 
        2.71755         2.86578        0.858824 
        2.73329         2.83468        0.847066 
        2.74897         2.81816        0.835568 
        2.76462         2.78822        0.824311 
        2.78034         2.78455        0.813218 
        2.79607         2.74983        0.802319 
        2.81179         2.72955        0.791634 
        2.82749         2.70411        0.781157 
        2.84321         2.68785         0.77086 
        2.85893         2.65692        0.760754 
        2.87462         2.65113        0.750848 
        2.89033         2.62395        0.741111 
        2.90605         2.61203         0.73154 
        2.92176         2.58644        0.722144 
        2.93747         2.56125         0.71292 
        2.95318          2.5452        0.703857 
        2.96891         2.53681        0.694948 
        2.98456         2.51655        0.686235 
        3.00023         2.49413         0.67766 
        3.01596         2.46558        0.669206 
        3.03164         2.45027        0.660922 
        3.04738         2.43945        0.652755 
         3.0631         2.41909         0.64473 
        3.07883          2.4037        0.636841 
        3.09456         2.37739        0.629087 
        3.11026         2.37072        0.621474 
        3.12596         2.34716         0.61399 
        3.14163         2.33902        0.606648 
        3.15734         2.31792        0.599409 
        3.17308         2.30803        0.592273 
        3.18879         2.28986        0.585273 
        3.20447         2.26277        0.578397 
         3.2202         2.26726        0.571612 
         3.2359         2.24128        0.564949 
        3.25157         2.22276        0.558408 
        3.26729         2.20926        0.551953 
        3.28304         2.19329        0.545588 
        3.29877         2.17691        0.539332 
        3.31446         2.16782        0.533189 
        3.33014         2.14399        0.527148 
        3.34585         2.13917        0.521193 
        3.36158         2.12044        0.515321 
        3.37727         2.11268        0.509559 
        3.39294         2.09552        0.503891 
        3.40867         2.08793         0.49829 
        3.42439         2.07308        0.492778 
        3.44008         2.05723         0.48736 
        3.45578         2.04279        0.482021 
        3.47153         2.03026        0.476751 
        3.48724          2.0164        0.471569 
        3.50292          1.9991        0.466478 
        3.51859         1.99986        0.461465 
        3.53431         1.97671         0.45651 
        3.55007         1.97226        0.451617 
        3.56577         1.95673        0.446815 
        3.58146         1.95109        0.442086 
        3.59719         1.93228        0.437415 
        3.61292         1.92363        0.432814 
        3.62859         1.90793        0.428297 
        3.64429         1.89848        0.423836 
        3.66003         1.88755        0.419426 
        3.67578         1.87583        0.415081 
        3.69146         1.86198        0.410814 
        3.70712         1.85011        0.406616 
        3.72284         1.84089        0.402461 
        3.73853         1.83383        0.398372 
        3.75422          1.8189        0.394338 
        3.76993         1.80952        0.390358 
        3.78564          1.7966        0.386435 
        3.80137         1.78797         0.38256 
        3.81707          1.7768        0.378746 
        3.83279         1.77289        0.374982 
        3.84853         1.75988        0.371263 
        3.86424         1.74381        0.367603 
        3.87992         1.73871        0.363997 
        3.89561         1.72239        0.360441 
        3.91134         1.72034        0.356925 
        3.92704         1.70781         0.35346 
        3.94273         1.69998        0.350045 
        3.95845         1.68593         0.34667 
        3.97418          1.6829        0.343339 
        3.98988         1.67166        0.340056 
        4.00554         1.65799        0.336826 
        4.02125         1.65176        0.333628 
        4.03698         1.63859        0.330468 
        4.05268         1.62888        0.327356 
        4.06839         1.61547        0.324282 
         4.0841         1.60303         0.32125 
        4.09983         1.59423        0.318251 
        4.11555         1.58621        0.315293 
        4.13124         1.57304        0.312381 
        4.14693          1.5663        0.309503 
        4.16266         1.55768        0.306656 
        4.17839         1.54602        0.303846 
        4.19408         1.54026        0.301078 
        4.20977         1.53016        0.298344 
        4.22551         1.52361        0.295637 
        4.24123         1.50982        0.292967 
        4.25691         1.49843        0.290338 
        4.27259         1.49066         0.28774 
        4.28831         1.48764        0.285169 
        4.30404         1.47496        0.282628 
        4.31974         1.46422        0.280123 
        4.33543         1.46064         0.27765 
        4.35116         1.45054        0.275201 
        4.36688          1.4396        0.272784 
        4.38255         1.43276        0.270404 
        4.39825         1.42855        0.268048 
        4.41398           1.418        0.265716 
         4.4297         1.41039        0.263414 
        4.44541         1.40356         0.26114 
        4.46111         1.39149        0.258894 
        4.47683          1.3897        0.256674 
        4.49251         1.38247        0.254485 
        4.50819         1.37439        0.252322 
         4.5239         1.36752        0.250181 
        4.53962         1.35778        0.248062 
        4.55535         1.35451        0.245968 
        4.57106         1.34325          0.2439 
        4.58678         1.34281        0.241856 
         4.6025         1.33259        0.239836 
        4.61821         1.32965        0.237839 
        4.63391         1.32247        0.235867 
         4.6496          1.3147        0.233919 
        4.66532         1.30857         0.23199 
        4.68103         1.30387        0.230084 
        4.69673         1.29923        0.228201 
        4.71241         1.29112        0.226342 
        4.72811         1.28687          0.2245 
        4.74384         1.28292        0.222676 
        4.75955         1.27725        0.220876 
        4.77525         1.26705        0.219097 
        4.79096         1.26342        0.217335 
        4.80669         1.26126        0.215592 
         4.8224         1.25257        0.213871 
        4.83809         1.24834         0.21217 
        4.85379         1.24297        0.210487 
         4.8695         1.23692         0.20882 
        4.88521          1.2346        0.207173 
        4.90093         1.22759        0.205544 
        4.91663         1.22227        0.203933 
        4.93234         1.21948        0.202338 
        4.94807         1.21359         0.20076 
        4.96377         1.20979        0.199201 
        4.97943         1.20661        0.197662 
        4.99514         1.20172        0.196136 
        5.01086         1.19349        0.194625 
        5.02654         1.19026        0.193133 
        5.04227         1.18533        0.191654 
          5.058         1.18221        0.190189 
        5.07371         1.17581        0.188742 
        5.08942         1.17345         0.18731 
        5.10513         1.17324        0.185893 
        5.12084         1.16437        0.184491 
        5.13656         1.15871        0.183103 
        5.15225         1.15436        0.181732 
        5.16796         1.15123        0.180372 
        5.18369          1.1468        0.179026 
         5.1994         1.14676        0.177696 
        5.21509         1.13867        0.176381 
        5.23079         1.13818        0.175077 
        5.24649         1.13226        0.173788 
        5.26217         1.13016        0.172513 
        5.27788         1.12334        0.171249 
        5.29359         1.12172        0.169998 
        5.30933         1.11857        0.168757 
        5.32504         1.11224        0.167531 
        5.34073         1.11041        0.166319 
        5.35646         1.10801        0.165116 
        5.37218         1.10368        0.163925 
        5.38789         1.10219        0.162748 
        5.40357         1.09887        0.161583 
        5.41929         1.09542        0.160428 
        5.43502         1.09146        0.159284 
         5.4507         1.08449        0.158154 
        5.46639         1.08311        0.157035 
        5.48212         1.07933        0.155924 
        5.49786         1.07789        0.154823 
        5.51353         1.07666        0.153738 
        5.52921         1.07108        0.152662 
        5.54495         1.06746        0.151593 
        5.56066         1.06619        0.150536 
        5.57637         1.06479        0.149489 
        5.59207         1.06082        0.148454 
        5.60778         1.05792        0.147427 
        5.62346         1.05515        0.146412 
        5.63916         1.05266        0.145406 
        5.65487         1.04665        0.144409 
         5.6706         1.04581        0.143419 
        5.68633          1.0419        0.142439 
        5.70203         1.04144         0.14147 
        5.71773          1.0372        0.140511 
        5.73344          1.0331         0.13956 
        5.74916         1.03118        0.138617 
        5.76486         1.02819        0.137683 
        5.78054         1.02407        0.136761 
        5.79626         1.02449        0.135844 
          5.812         1.02036        0.134934 
         5.8277         1.01737        0.134036 
        5.84339         1.01723        0.133146 
        5.85911         1.01456        0.132262 
        5.87484         1.01276        0.131386 
        5.89053         1.00738        0.130521 
        5.90623         1.00689        0.129662 
        5.92195         1.00212         0.12881 
        5.93767         1.00005        0.127967 
        5.95336        0.997956        0.127132 
        5.96905        0.994442        0.126305 
        5.98476        0.993528        0.125484 
        6.00048        0.992193        0.124671 
        6.01617        0.990024        0.123865 
        6.03185         0.98552        0.123068 
        6.04756        0.985718        0.122276 
        6.06331         0.98066         0.12149 
        6.07903        0.981037        0.120712 
        6.09473        0.978819        0.119941 
        6.11044        0.973424        0.119177 
        6.12616        0.973017         0.11842 
        6.14186        0.969984         0.11767 
        6.15755        0.968916        0.116926 
        6.17326        0.965161        0.116189 
        6.18898        0.962263        0.115457 
        6.20467        0.962431        0.114733 
        6.22036        0.958045        0.114016 
         6.2361         0.95602        0.113303 
         6.2518        0.955097        0.112597 
        6.26748        0.952473        0.111898 
        6.28319        0.949791        0.111204 
        6.29893        0.949587        0.110515 
        6.31463        0.944655        0.109833 
        6.33033         0.94647        0.109158 
        6.34604        0.944236        0.108487 
        6.36177        0.939939        0.107821 
        6.37747        0.938519        0.107163 
