# k  (h/Mpc)    Pcb(k)  (Mpc/h)^3    Pcb_linear(k) (Mpc/h)^3   ShotnoiseSubtracted = true
      0.0200456         11776.6         11969.8 
      0.0350414         9129.38         8904.52 
      0.0492313         6622.32         6707.37 
      0.0637834         5485.86          5725.6 
      0.0800726          4287.3         4492.96 
       0.096163         3377.27          3280.5 
       0.111083         2843.87         2730.21 
       0.126058         2392.42         2450.44 
       0.142273         2027.22          2017.2 
       0.158546         1674.55         1604.79 
        0.17375         1504.35         1410.47 
       0.188953         1399.95         1284.83 
       0.204907         1186.09         1107.43 
       0.220756         1066.52         940.251 
        0.23588         960.301         844.724 
         0.2514         865.168          773.82 
       0.267535         836.355         687.835 
       0.283568         733.575         606.895 
       0.299022         703.058         552.081 
       0.314451          713.91         508.949 
       0.330372         615.524         462.742 
       0.346141         571.592         419.573 
       0.361624         547.914         385.958 
       0.377134         514.569          357.87 
       0.392932          499.94         330.298 
       0.408854         475.986          304.23 
       0.424564         460.955         282.276 
       0.440253         418.643         263.244 
       0.455999         401.833         245.418 
       0.471626         404.501         228.961 
        0.48727         384.244         214.235 
       0.502856         354.062          201.13 
       0.518488         355.406         188.994 
       0.534347         330.649         177.552 
       0.550082         321.708         167.198 
       0.565732         319.932         157.813 
       0.581496         305.277         149.083 
       0.597222         297.171         140.989 
       0.612804         289.861         133.569 
       0.628434         278.718         126.702 
       0.644267         267.356         120.248 
       0.660051         262.975         114.262 
       0.675724         260.783         108.723 
       0.691403         253.243         103.551 
       0.707174         244.651           98.69 
       0.722871         241.277         94.1647 
        0.73838         239.432         89.9754 
       0.754018         227.142         86.0126 
       0.769845         226.805         82.2483 
        0.78569         221.459         78.7092 
       0.801365         215.839         75.4162 
       0.817031         210.531         72.3167 
       0.832809           207.7         69.3742 
       0.848511         202.714          66.611 
       0.864097         198.325         64.0195 
       0.879701         197.044         61.5654 
       0.895507         192.204         59.2126 
       0.911279         186.885         56.9895 
        0.92691         184.672         54.9006 
       0.942635         182.418         52.9062 
       0.958396         178.716         51.0081 
       0.974128         175.023         49.2078 
       0.989692         170.553         47.5134 
        1.00528         169.199         45.8974 
        1.02113         165.487         44.3323 
        1.03692         163.567          42.847 
        1.05264          161.38         41.4376 
        1.06832         158.612         40.0946 
        1.08405         155.827         38.8085 
        1.09979         155.026         37.5788 
        1.11537         151.411         36.4153 
        1.13105         149.835         35.2949 
        1.14679         147.325         34.2179 
        1.16256         145.094         33.1844 
        1.17828         143.205         32.1975 
        1.19395         139.642         31.2547 
         1.2097         139.194         30.3454 
        1.22537         136.597         29.4771 
          1.241         135.355         28.6459 
        1.25666         131.778          27.845 
        1.27241         129.475         27.0715 
        1.28819         128.685         26.3264 
        1.30392         126.188         25.6119 
        1.31957         124.532         24.9274 
        1.33529         123.266         24.2658 
        1.35108         121.956         23.6258 
        1.36674         119.748         23.0139 
         1.3824         119.302         22.4244 
        1.39811         116.097         21.8539 
        1.41389         115.323         21.3013 
        1.42964          113.08          20.769 
        1.44531         112.081         20.2577 
        1.46101          110.51         19.7627 
        1.47667         109.726          19.286 
        1.49229         108.611         18.8265 
        1.50793         106.536         18.3816 
        1.52367         105.698         17.9483 
        1.53953         103.964         17.5264 
        1.55526         102.608         17.1215 
        1.57092         102.129         16.7312 
        1.58662         100.623         16.3523 
        1.60235         98.8549         15.9846 
        1.61809         98.1606         15.6281 
        1.63369          96.381         15.2858 
        1.64941         96.4151         14.9515 
        1.66519         94.2907          14.626 
        1.68085         93.3928         14.3126 
        1.69652          91.575         14.0085 
        1.71228         90.9263         13.7116 
        1.72806         90.0364         13.4231 
        1.74368         88.6192         13.1459 
        1.75933         87.9164         12.8761 
        1.77505          87.121         12.6127 
        1.79081         85.6477         12.3563 
         1.8065          85.261         12.1082 
        1.82218          83.354         11.8672 
        1.83797          83.027         11.6312 
        1.85367          81.698          11.403 
        1.86928         80.9529         11.1823 
        1.88497         80.0782         10.9664 
        1.90073         79.1099         10.7554 
        1.91647          77.955         10.5502 
        1.93218          77.288         10.3509 
        1.94787         76.3203         10.1571 
        1.96363         75.3148         9.96747 
        1.97935         74.6768         9.78317 
        1.99499         73.8428         9.60463 
        2.01064         73.0736         9.43033 
         2.0264         71.9242         9.25931 
        2.04216         71.2245         9.09266 
        2.05781         70.4205         8.93121 
        2.07353         69.5159         8.77315 
        2.08928         68.7621         8.61861 
        2.10499         68.0563         8.46824 
        2.12065         67.5514         8.32196 
        2.13633         66.8542         8.17904 
        2.15211         65.8278         8.03859 
        2.16785         64.8701         7.90187 
        2.18349         64.2957         7.76921 
        2.19916         63.4897         7.63936 
        2.21489          62.956         7.51208 
        2.23063         62.0288         7.38764 
         2.2463         61.5415         7.26661 
        2.26194         61.0147         7.14862 
        2.27765         60.1653         7.03267 
        2.29341         59.3481         6.91902 
        2.30914         58.6542         6.80814 
        2.32486         58.0487         6.69978 
        2.34061         57.6555         6.59363 
        2.35635         56.7349         6.48989 
        2.37203         56.4338         6.38876 
        2.38768         55.7015         6.29003 
        2.40339         55.1394         6.19304 
        2.41914         54.5612         6.09789 
        2.43483         53.7215          6.0051 
         2.4505         53.3138         5.91442 
        2.46622         52.8173         5.82531 
        2.48195         52.1618         5.73805 
        2.49759         51.5395         5.65307 
        2.51328         51.1381          5.5696 
        2.52906         50.4621         5.48731 
        2.54479         50.0845           5.407 
        2.56049         49.2856         5.32847 
        2.57618         48.8644         5.25159 
        2.59189         48.4064         5.17612 
        2.60758         47.8126         5.10227 
        2.62325         47.3961         5.02996 
        2.63898         46.9191         4.95882 
        2.65468          46.513         4.88922 
        2.67044         46.0491         4.82066 
        2.68618         45.6529          4.7536 
        2.70184         44.9402         4.68809 
        2.71755          44.651         4.62366 
        2.73329         43.9194         4.56036 
        2.74897         43.6823         4.49846 
        2.76462          43.122         4.43786 
        2.78034         42.8117         4.37813 
        2.79607         42.2613         4.31945 
        2.81179         41.8268         4.26193 
        2.82749         41.4099         4.20552 
        2.84321         40.9534         4.15009 
        2.85893         40.5551         4.09568 
        2.87462          40.028         4.04235 
        2.89033         39.7909         3.98993 
        2.90605         39.3576          3.9384 
        2.92176         39.1112         3.88782 
        2.93747          38.677         3.83816 
        2.95318         38.2211         3.78936 
        2.96891         37.9024          3.7414 
        2.98456         37.5173         3.69449 
        3.00023         37.0295         3.64832 
        3.01596         36.7598         3.60281 
        3.03164         36.3656         3.55821 
        3.04738         36.0813         3.51424 
         3.0631         35.7972         3.47104 
        3.07883         35.2974         3.42857 
        3.09456          34.834         3.38682 
        3.11026         34.5403         3.34584 
        3.12596         34.2284         3.30555 
        3.14163         33.8958         3.26602 
        3.15734         33.5752         3.22705 
        3.17308         33.2609         3.18862 
        3.18879         32.9593         3.15094 
        3.20447         32.6242         3.11392 
         3.2202         32.2678         3.07739 
         3.2359         31.9962         3.04152 
        3.25157         31.7072         3.00631 
        3.26729         31.3722         2.97156 
        3.28304         30.9949         2.93729 
        3.29877         30.7075         2.90361 
        3.31446         30.3757         2.87054 
        3.33014         30.1753         2.83802 
        3.34585         29.8677         2.80595 
        3.36158         29.5971         2.77434 
        3.37727         29.3232         2.74332 
        3.39294         28.9888          2.7128 
        3.40867         28.7397         2.68265 
        3.42439          28.508         2.65297 
        3.44008         28.2215         2.62381 
        3.45578         28.0724         2.59506 
        3.47153         27.6852         2.56669 
        3.48724         27.3808         2.53879 
        3.50292         27.1703         2.51138 
        3.51859         26.8972         2.48439 
        3.53431         26.6392         2.45772 
        3.55007         26.3956         2.43137 
        3.56577         26.2137         2.40552 
        3.58146         25.9728         2.38006 
        3.59719         25.7459         2.35492 
        3.61292         25.4863         2.33015 
        3.62859         25.2245         2.30583 
        3.64429         24.9993         2.28181 
        3.66003         24.8527         2.25807 
        3.67578         24.6222         2.23468 
        3.69146         24.3555          2.2117 
        3.70712         24.1528          2.1891 
        3.72284         23.9091         2.16673 
        3.73853         23.7196         2.14472 
        3.75422          23.391           2.123 
        3.76993          23.285         2.10158 
        3.78564         23.0741         2.08045 
        3.80137         22.8766         2.05959 
        3.81707         22.6732         2.03906 
        3.83279         22.4709         2.01879 
        3.84853         22.2622         1.99877 
        3.86424         22.0429         1.97907 
        3.87992         21.8161         1.95966 
        3.89561         21.6688         1.94051 
        3.91134          21.422         1.92158 
        3.92704         21.2697         1.90293 
        3.94273         21.0879         1.88454 
        3.95845         20.8793         1.86637 
        3.97418         20.6496         1.84844 
        3.98988         20.5505         1.83076 
        4.00554         20.4343         1.81337 
        4.02125          20.095         1.79616 
        4.03698         19.9492         1.77915 
        4.05268         19.8194         1.76239 
        4.06839         19.6551         1.74584 
         4.0841         19.4637         1.72952 
        4.09983         19.2434         1.71337 
        4.11555         19.1243         1.69745 
        4.13124         18.9726         1.68177 
        4.14693         18.8511         1.66628 
        4.16266         18.7101         1.65095 
        4.17839         18.4983         1.63582 
        4.19408         18.2985         1.62092 
        4.20977         18.1818          1.6062 
        4.22551         18.0183         1.59163 
        4.24123         17.8845         1.57725 
        4.25691         17.6644          1.5631 
        4.27259         17.5905         1.54911 
        4.28831          17.465         1.53527 
        4.30404          17.296         1.52159 
        4.31974         17.1671          1.5081 
        4.33543         16.9975         1.49479 
        4.35116         16.8328         1.48161 
        4.36688         16.7185         1.46859 
        4.38255         16.5563         1.45578 
        4.39825         16.4007         1.44309 
        4.41398         16.3076         1.43054 
         4.4297         16.1605         1.41814 
        4.44541         15.9885          1.4059 
        4.46111         15.9057         1.39381 
        4.47683         15.7441         1.38186 
        4.49251         15.6344         1.37007 
        4.50819         15.5124         1.35843 
         4.5239         15.3774          1.3469 
        4.53962         15.2684          1.3355 
        4.55535         15.1522         1.32422 
        4.57106          14.997         1.31309 
        4.58678         14.9042         1.30209 
         4.6025         14.7842         1.29121 
        4.61821         14.6501         1.28046 
        4.63391         14.5264         1.26984 
         4.6496         14.4117         1.25935 
        4.66532         14.2635         1.24897 
        4.68103         14.1809         1.23871 
        4.69673         14.0563         1.22857 
        4.71241         13.9934         1.21856 
        4.72811         13.8697         1.20864 
        4.74384           13.74         1.19883 
        4.75955         13.6088         1.18913 
        4.77525         13.5278         1.17955 
        4.79096         13.4166         1.17007 
        4.80669         13.3257         1.16069 
         4.8224          13.206         1.15142 
        4.83809         13.1273         1.14226 
        4.85379          13.037          1.1332 
         4.8695         12.9028         1.12423 
        4.88521         12.8268         1.11536 
        4.90093         12.7282         1.10659 
        4.91663          12.629         1.09792 
        4.93234         12.5285         1.08933 
        4.94807         12.4469         1.08083 
        4.96377         12.3565         1.07244 
        4.97943         12.2585         1.06416 
        4.99514         12.1006         1.05594 
        5.01086         12.0765          1.0478 
        5.02654         11.9603         1.03977 
        5.04227          11.834         1.03181 
          5.058         11.7881         1.02392 
        5.07371         11.6839         1.01613 
        5.08942         11.6199         1.00842 
        5.10513         11.5153          1.0008 
        5.12084         11.4471        0.993245 
        5.13656         11.3592        0.985773 
        5.15225         11.2402        0.978391 
        5.16796         11.1701        0.971073 
        5.18369         11.0918        0.963825 
         5.1994         11.0186        0.956664 
        5.21509         10.9237        0.949583 
        5.23079         10.8307        0.942566 
        5.24649         10.7767        0.935626 
        5.26217         10.6672        0.928762 
        5.27788          10.632        0.921957 
        5.29359         10.5122        0.915219 
        5.30933         10.4634         0.90854 
        5.32504         10.3982        0.901939 
        5.34073         10.3212        0.895412 
        5.35646         10.2209        0.888937 
        5.37218         10.1619        0.882525 
        5.38789         10.0869        0.876187 
        5.40357         9.99516        0.869919 
        5.41929          9.9426        0.863699 
        5.43502         9.86148         0.85754 
         5.4507         9.78068        0.851456 
        5.46639           9.713        0.845431 
        5.48212         9.64427         0.83945 
        5.49786         9.58626        0.833521 
        5.51353         9.52778        0.827678 
        5.52921         9.45563        0.821887 
        5.54495         9.38097        0.816134 
        5.56066         9.31599        0.810443 
        5.57637         9.24454        0.804808 
        5.59207         9.19508        0.799232 
        5.60778         9.10896        0.793706 
        5.62346         9.04983        0.788241 
        5.63916         8.99159        0.782823 
        5.65487         8.93937        0.777454 
         5.6706         8.85978        0.772129 
        5.68633         8.79602        0.766852 
        5.70203         8.73613        0.761636 
        5.71773         8.69323         0.75647 
        5.73344         8.62473        0.751349 
        5.74916         8.59261        0.746272 
        5.76486         8.51593        0.741248 
        5.78054         8.44216        0.736279 
        5.79626         8.38947        0.731342 
          5.812           8.345        0.726446 
         5.8277         8.27684        0.721609 
        5.84339         8.22711        0.716817 
        5.85911         8.15771         0.71206 
        5.87484         8.11242        0.707346 
        5.89053         8.04964        0.702685 
        5.90623         7.98853        0.698065 
        5.92195         7.96554        0.693478 
        5.93767         7.90012        0.688935 
        5.95336         7.82787        0.684441 
        5.96905         7.79297        0.679989 
        5.98476         7.74713        0.675571 
        6.00048           7.688        0.671191 
        6.01617         7.63262        0.666856 
        6.03185         7.58348        0.662564 
        6.04756         7.52539        0.658301 
        6.06331         7.47692        0.654066 
        6.07903         7.44865        0.649878 
        6.09473         7.38552         0.64573 
        6.11044          7.3499        0.641616 
        6.12616         7.28624        0.637538 
        6.14186         7.25637          0.6335 
        6.15755         7.19751        0.629498 
        6.17326         7.15305        0.625527 
        6.18898         7.10838        0.621589 
        6.20467         7.06211        0.617692 
        6.22036          7.0017        0.613829 
         6.2361         6.97228        0.609989 
         6.2518         6.90799        0.606189 
        6.26748         6.87152        0.602429 
        6.28319         6.82424        0.598692 
        6.29893         6.78928        0.594983 
        6.31463         6.74493        0.591312 
        6.33033         6.69359        0.587673 
        6.34604         6.65886        0.584063 
        6.36177          6.6183         0.58048 
        6.37747         6.57681        0.576933 
