# k  (h/Mpc)    Pcb(k)  (Mpc/h)^3    Pcb_linear(k) (Mpc/h)^3   ShotnoiseSubtracted = true
      0.0200456         4982.24         5071.56 
      0.0350414         3704.96         3772.81 
      0.0492313         2832.79         2841.89 
      0.0637834         2454.37         2425.91 
      0.0800726         1929.03         1903.65 
       0.096163         1372.07         1389.94 
       0.111083         1128.04         1156.78 
       0.126058         1043.05         1038.24 
       0.142273         876.598         854.681 
       0.158546         715.059         679.942 
        0.17375         600.713         597.612 
       0.188953         570.011         544.379 
       0.204907         522.709         469.213 
       0.220756         438.991         398.381 
        0.23588         391.252         357.906 
         0.2514         348.681         327.865 
       0.267535         325.877         291.433 
       0.283568          294.91         257.139 
       0.299022         273.135         233.915 
       0.314451         249.963          215.64 
       0.330372         231.727         196.062 
       0.346141         209.324         177.772 
       0.361624         198.815         163.529 
       0.377134          187.86         151.628 
       0.392932         170.508         139.946 
       0.408854         164.113         128.901 
       0.424564         157.486         119.599 
       0.440253         147.294         111.535 
       0.455999         139.126         103.983 
       0.471626         128.788         97.0101 
        0.48727         125.319         90.7704 
       0.502856         119.471         85.2179 
       0.518488         115.614          80.076 
       0.534347         110.907         75.2283 
       0.550082         102.639         70.8412 
       0.565732         98.2803         66.8646 
       0.581496         94.8673         63.1659 
       0.597222         91.9133         59.7363 
       0.612804          87.147         56.5926 
       0.628434         85.2513          53.683 
       0.644267         82.7168         50.9485 
       0.660051         80.0687         48.4124 
       0.675724         76.8811         46.0654 
       0.691403         74.6566          43.874 
       0.707174         72.4301         41.8146 
       0.722871         70.2202         39.8972 
        0.73838         68.6384         38.1222 
       0.754018         65.4467         36.4432 
       0.769845          64.106         34.8483 
        0.78569         62.3964         33.3488 
       0.801365         60.3551         31.9536 
       0.817031         58.8499         30.6403 
       0.832809         58.0413         29.3936 
       0.848511         55.1246         28.2228 
       0.864097          53.964         27.1248 
       0.879701         53.2827          26.085 
       0.895507         52.4316         25.0882 
       0.911279         51.0882         24.1462 
        0.92691         49.7405         23.2612 
       0.942635         48.1088         22.4162 
       0.958396         47.8169         21.6119 
       0.974128         46.5071         20.8492 
       0.989692         45.8084         20.1313 
        1.00528         44.8839         19.4466 
        1.02113         43.4473         18.7834 
        1.03692         42.6956         18.1541 
        1.05264         42.0403         17.5569 
        1.06832         41.1697         16.9879 
        1.08405         40.5184          16.443 
        1.09979         39.7074          15.922 
        1.11537         38.5705          15.429 
        1.13105          38.531         14.9543 
        1.14679         37.9761          14.498 
        1.16256         36.8731         14.0601 
        1.17828         36.3656          13.642 
        1.19395         35.6106         13.2425 
         1.2097         35.3639         12.8572 
        1.22537         34.7364         12.4893 
          1.241         34.0997         12.1371 
        1.25666         33.2257         11.7978 
        1.27241          32.995         11.4701 
        1.28819          32.122         11.1544 
        1.30392         31.8645         10.8517 
        1.31957         31.6332         10.5616 
        1.33529         31.3157         10.2813 
        1.35108         30.5906         10.0102 
        1.36674         30.0593         9.75089 
         1.3824         29.5231         9.50113 
        1.39811         29.3086         9.25941 
        1.41389         28.9539         9.02527 
        1.42964         28.5114         8.79973 
        1.44531         28.3197          8.5831 
        1.46101         27.5741         8.37339 
        1.47667         27.3372          8.1714 
        1.49229          27.115          7.9767 
        1.50793         26.6891          7.7882 
        1.52367         26.4605         7.60464 
        1.53953          26.127         7.42585 
        1.55526         25.6569          7.2543 
        1.57092         25.3778         7.08895 
        1.58662         25.0447         6.92842 
        1.60235         24.7658         6.77262 
        1.61809         24.4891         6.62158 
        1.63369         24.1889         6.47655 
        1.64941         23.7326         6.33487 
        1.66519         23.6554         6.19697 
        1.68085         23.2777         6.06421 
        1.69652         23.0029         5.93535 
        1.71228         22.7865         5.80954 
        1.72806         22.5512         5.68732 
        1.74368         22.2543         5.56988 
        1.75933         21.9957         5.45557 
        1.77505          21.751         5.34397 
        1.79081         21.4688         5.23532 
         1.8065         21.3675          5.1302 
        1.82218         21.0069         5.02809 
        1.83797         20.7587         4.92809 
        1.85367         20.5549          4.8314 
        1.86928         20.4028         4.73791 
        1.88497         20.0988         4.64641 
        1.90073         20.0765         4.55702 
        1.91647         19.7646         4.47008 
        1.93218         19.6006         4.38563 
        1.94787         19.4292          4.3035 
        1.96363         19.2604         4.22318 
        1.97935         19.0344         4.14509 
        1.99499           18.79         4.06944 
        2.01064         18.5895         3.99559 
         2.0264         18.3909         3.92313 
        2.04216           18.23         3.85253 
        2.05781         17.9639         3.78412 
        2.07353         17.8182         3.71715 
        2.08928         17.6955         3.65167 
        2.10499         17.4881         3.58796 
        2.12065         17.2318         3.52598 
        2.13633         17.2095         3.46543 
        2.15211         16.9672         3.40592 
        2.16785         16.9446         3.34799 
        2.18349         16.7695         3.29179 
        2.19916         16.5094         3.23677 
        2.21489         16.4161         3.18284 
        2.23063         16.2095         3.13011 
         2.2463          16.053         3.07883 
        2.26194         15.9446         3.02884 
        2.27765         15.8336         2.97972 
        2.29341          15.658         2.93156 
        2.30914         15.4257         2.88458 
        2.32486         15.4185         2.83867 
        2.34061         15.2304         2.79369 
        2.35635         15.0706         2.74974 
        2.37203         14.9978         2.70689 
        2.38768         14.8142         2.66506 
        2.40339         14.6062         2.62397 
        2.41914         14.5056         2.58365 
        2.43483         14.4442         2.54434 
         2.4505         14.3122         2.50591 
        2.46622         14.1751         2.46816 
        2.48195         14.0614         2.43119 
        2.49759         13.9599         2.39518 
        2.51328         13.7905         2.35982 
        2.52906         13.6561         2.32495 
        2.54479         13.5776         2.29093 
        2.56049         13.4722         2.25765 
        2.57618         13.4016         2.22508 
        2.59189         13.2046          2.1931 
        2.60758         13.1648         2.16181 
        2.62325         13.0768         2.13118 
        2.63898          12.854         2.10103 
        2.65468         12.7936         2.07154 
        2.67044         12.6886          2.0425 
        2.68618         12.5629         2.01408 
        2.70184         12.4661         1.98632 
        2.71755         12.3425         1.95903 
        2.73329         12.2423         1.93221 
        2.74897         12.1374         1.90598 
        2.76462         12.1175          1.8803 
        2.78034         11.9127           1.855 
        2.79607         11.8463         1.83014 
        2.81179          11.731         1.80576 
        2.82749         11.6968         1.78186 
        2.84321         11.5528         1.75838 
        2.85893         11.4795         1.73532 
        2.87462         11.3932         1.71273 
        2.89033         11.2641         1.69052 
        2.90605         11.1823         1.66868 
        2.92176         11.1032         1.64725 
        2.93747         10.9814         1.62621 
        2.95318         10.9661         1.60554 
        2.96891         10.8516         1.58522 
        2.98456         10.7485         1.56534 
        3.00023         10.6611         1.54578 
        3.01596         10.6052          1.5265 
        3.03164         10.5256          1.5076 
        3.04738          10.441         1.48897 
         3.0631         10.3083         1.47067 
        3.07883         10.2553         1.45267 
        3.09456         10.2102         1.43498 
        3.11026         10.0705         1.41762 
        3.12596         10.0489         1.40055 
        3.14163         9.94021          1.3838 
        3.15734          9.8601         1.36729 
        3.17308         9.81418         1.35101 
        3.18879         9.70138         1.33504 
        3.20447         9.62467         1.31936 
         3.2202         9.55177         1.30388 
         3.2359         9.50709         1.28868 
        3.25157         9.43369         1.27376 
        3.26729         9.35154         1.25904 
        3.28304         9.27513         1.24452 
        3.29877         9.19561         1.23025 
        3.31446          9.1589         1.21624 
        3.33014         9.04539         1.20246 
        3.34585         8.99974         1.18887 
        3.36158         8.92945         1.17548 
        3.37727          8.8891         1.16233 
        3.39294         8.82079          1.1494 
        3.40867         8.69161         1.13663 
        3.42439         8.67417         1.12405 
        3.44008         8.59743          1.1117 
        3.45578         8.54605         1.09952 
        3.47153         8.48342          1.0875 
        3.48724         8.42164         1.07568 
        3.50292         8.36806         1.06406 
        3.51859         8.28095         1.05263 
        3.53431         8.22688         1.04133 
        3.55007          8.1811         1.03016 
        3.56577         8.13298         1.01921 
        3.58146         8.05664         1.00842 
        3.59719         7.99244        0.997769 
        3.61292         7.94294        0.987274 
        3.62859         7.86585         0.97697 
        3.64429         7.83064        0.966795 
        3.66003         7.75157        0.956735 
        3.67578         7.71812        0.946823 
        3.69146         7.63726        0.937091 
        3.70712         7.62038        0.927514 
        3.72284         7.51859        0.918036 
        3.73853         7.49203        0.908709 
        3.75422         7.42423        0.899509 
        3.76993          7.4021        0.890429 
        3.78564         7.33435         0.88148 
        3.80137         7.27574         0.87264 
        3.81707         7.20931        0.863941 
        3.83279         7.19846        0.855355 
        3.84853         7.11639        0.846873 
        3.86424          7.0597        0.838523 
        3.87992         7.02379        0.830299 
        3.89561         6.96482        0.822186 
        3.91134          6.9217        0.814166 
        3.92704         6.86625        0.806263 
        3.94273         6.81686        0.798474 
        3.95845         6.78639        0.790774 
        3.97418           6.755        0.783175 
        3.98988         6.68006        0.775688 
        4.00554         6.63516        0.768319 
        4.02125         6.58122        0.761026 
        4.03698         6.53821        0.753817 
        4.05268          6.5071        0.746719 
        4.06839         6.46281        0.739707 
         4.0841         6.40988        0.732789 
        4.09983         6.36307         0.72595 
        4.11555         6.31589        0.719202 
        4.13124         6.25812        0.712559 
        4.14693         6.20631        0.705995 
        4.16266         6.15869          0.6995 
        4.17839         6.12484         0.69309 
        4.19408         6.08555        0.686776 
        4.20977         6.03624        0.680539 
        4.22551          5.9966        0.674365 
        4.24123         5.94704        0.668275 
        4.25691         5.92334        0.662277 
        4.27259         5.86619        0.656352 
        4.28831         5.82943        0.650488 
        4.30404         5.78733         0.64469 
        4.31974          5.7572        0.638976 
        4.33543         5.70225        0.633336 
        4.35116         5.67126        0.627751 
        4.36688         5.60993        0.622235 
        4.38255         5.57597        0.616807 
        4.39825         5.55842        0.611433 
        4.41398         5.51541        0.606113 
         4.4297         5.48523        0.600862 
        4.44541         5.42964        0.595674 
        4.46111         5.40209        0.590553 
        4.47683         5.34658        0.585489 
        4.49251         5.32058        0.580494 
        4.50819         5.29337         0.57556 
         4.5239         5.25397        0.570677 
        4.53962         5.23164        0.565844 
        4.55535         5.18303        0.561066 
        4.57106         5.14866        0.556351 
        4.58678         5.11338        0.551689 
         4.6025         5.08108        0.547079 
        4.61821          5.0439        0.542524 
        4.63391         5.00571        0.538027 
         4.6496         4.97857        0.533583 
        4.66532         4.94795        0.529183 
        4.68103         4.90505        0.524835 
        4.69673         4.87245         0.52054 
        4.71241          4.8375        0.516298 
        4.72811         4.81783        0.512097 
        4.74384         4.79146        0.507938 
        4.75955         4.75143        0.503831 
        4.77525         4.71718        0.499773 
        4.79096         4.68727        0.495754 
        4.80669         4.63877        0.491779 
         4.8224         4.62625        0.487851 
        4.83809         4.59243        0.483972 
        4.85379         4.55981        0.480132 
         4.8695         4.53247        0.476331 
        4.88521          4.5055        0.472574 
        4.90093         4.47892        0.468857 
        4.91663         4.44283        0.465183 
        4.93234         4.41954        0.461545 
        4.94807         4.39241        0.457944 
        4.96377         4.35533        0.454389 
        4.97943         4.32974        0.450879 
        4.99514         4.30052        0.447397 
        5.01086         4.28035         0.44395 
        5.02654         4.24893        0.440549 
        5.04227          4.2232        0.437173 
          5.058         4.19629        0.433831 
        5.07371         4.17381        0.430531 
        5.08942         4.14167        0.427266 
        5.10513         4.11775        0.424034 
        5.12084         4.09398        0.420834 
        5.13656           4.072        0.417668 
        5.15225         4.04572         0.41454 
        5.16796         4.01091         0.41144 
        5.18369         3.98849        0.408369 
         5.1994         3.96306        0.405335 
        5.21509         3.93629        0.402335 
        5.23079         3.91196        0.399362 
        5.24649         3.89658        0.396421 
        5.26217         3.86497        0.393513 
        5.27788         3.83554        0.390629 
        5.29359           3.806        0.387775 
        5.30933         3.79617        0.384945 
        5.32504         3.76801        0.382148 
        5.34073         3.74553        0.379383 
        5.35646         3.73037        0.376639 
        5.37218         3.70213        0.373922 
        5.38789         3.67842        0.371237 
        5.40357         3.66209        0.368581 
        5.41929         3.63142        0.365946 
        5.43502         3.61122        0.363336 
         5.4507         3.59664        0.360759 
        5.46639         3.56819        0.358206 
        5.48212          3.5491        0.355672 
        5.49786         3.52569        0.353159 
        5.51353         3.50611        0.350684 
        5.52921          3.4832         0.34823 
        5.54495         3.46558        0.345793 
        5.56066          3.4382        0.343382 
        5.57637         3.42659        0.340994 
        5.59207         3.40468        0.338631 
        5.60778         3.38238         0.33629 
        5.62346          3.3566        0.333975 
        5.63916          3.3375        0.331679 
        5.65487          3.3196        0.329404 
         5.6706         3.30168        0.327148 
        5.68633         3.28032        0.324912 
        5.70203         3.26772        0.322702 
        5.71773         3.24247        0.320513 
        5.73344         3.22214        0.318344 
        5.74916         3.20393        0.316192 
        5.76486         3.18802        0.314064 
        5.78054         3.17006        0.311959 
        5.79626         3.15456        0.309867 
          5.812         3.13242        0.307792 
         5.8277         3.11799        0.305743 
        5.84339         3.09556        0.303713 
        5.85911         3.08136        0.301697 
        5.87484         3.06467          0.2997 
        5.89053         3.03941        0.297725 
        5.90623         3.02877        0.295767 
        5.92195         3.01419        0.293824 
        5.93767         2.99434        0.291899 
        5.95336         2.97545        0.289995 
        5.96905         2.96065        0.288109 
        5.98476          2.9435        0.286237 
        6.00048         2.92398        0.284381 
        6.01617         2.90963        0.282544 
        6.03185         2.89247        0.280726 
        6.04756         2.87337         0.27892 
        6.06331         2.85743        0.277125 
        6.07903         2.84095        0.275351 
        6.09473         2.82948        0.273593 
        6.11044         2.81063         0.27185 
        6.12616         2.79754        0.270122 
        6.14186         2.77592        0.268412 
        6.15755         2.76195        0.266716 
        6.17326         2.74983        0.265033 
        6.18898         2.73675        0.263365 
        6.20467         2.72177        0.261714 
        6.22036         2.70633        0.260077 
         6.2361         2.69022         0.25845 
         6.2518         2.67975         0.25684 
        6.26748         2.65922        0.255247 
        6.28319         2.64499        0.253663 
        6.29893         2.63538        0.252092 
        6.31463         2.61986        0.250536 
        6.33033         2.60217        0.248995 
        6.34604         2.59038        0.247465 
        6.36177          2.5797        0.245947 
        6.37747         2.56008        0.244444 
