# k  (h/Mpc)    Pcb(k)  (Mpc/h)^3    Pcb_linear(k) (Mpc/h)^3   ShotnoiseSubtracted = true
      0.0200456         16940.4         17242.9 
      0.0350414         13183.3         12827.2 
      0.0492313         9470.69         9662.17 
      0.0637834         7822.09          8247.9 
      0.0800726         6101.91         6472.24 
       0.096163         4870.04         4725.66 
       0.111083         4100.38         3932.95 
       0.126058          3426.8         3529.94 
       0.142273          2936.5         2905.84 
       0.158546          2426.6         2311.74 
        0.17375         2195.81         2031.83 
       0.188953         2068.77         1850.84 
       0.204907         1766.81         1595.28 
       0.220756         1595.21         1354.46 
        0.23588         1436.63         1216.85 
         0.2514         1299.77         1114.71 
       0.267535         1257.93         990.846 
       0.283568         1114.54          874.25 
       0.299022         1069.28          795.29 
       0.314451            1106         733.157 
       0.330372         966.605         666.594 
       0.346141          892.57         604.408 
       0.361624         858.305         555.984 
       0.377134         818.182         515.523 
       0.392932         788.755         475.805 
       0.408854         753.111         438.253 
       0.424564         735.462         406.627 
       0.440253          677.59          379.21 
       0.455999         649.584         353.533 
       0.471626         661.929         329.826 
        0.48727         626.323         308.611 
       0.502856         589.865         289.734 
       0.518488         583.429         272.251 
       0.534347         550.815          255.77 
       0.550082         529.227         240.854 
       0.565732         525.016         227.334 
       0.581496         513.285         214.759 
       0.597222         499.391         203.098 
       0.612804         489.398          192.41 
       0.628434         469.662         182.517 
       0.644267         454.187         173.221 
       0.660051          448.26         164.598 
       0.675724         441.353         156.618 
       0.691403         430.871         149.168 
       0.707174         415.478         142.166 
       0.722871         408.736         135.647 
        0.73838         404.384         129.612 
       0.754018         390.858         123.904 
       0.769845           387.9         118.481 
        0.78569         380.291         113.383 
       0.801365          368.85         108.639 
       0.817031         364.487         104.174 
       0.832809         359.715         99.9357 
       0.848511         351.289         95.9552 
       0.864097          343.47          92.222 
       0.879701         340.746         88.6867 
       0.895507         330.471         85.2976 
       0.911279         323.959         82.0951 
        0.92691         321.313         79.0859 
       0.942635          319.47          76.213 
       0.958396         309.241         73.4787 
       0.974128         306.068         70.8853 
       0.989692         294.795         68.4445 
        1.00528          294.69         66.1167 
        1.02113         290.234          63.862 
        1.03692         284.167         61.7224 
        1.05264         279.952         59.6921 
        1.06832         278.643         57.7575 
        1.08405         272.111         55.9048 
        1.09979         269.503         54.1334 
        1.11537         263.256         52.4574 
        1.13105         259.483         50.8433 
        1.14679         257.053         49.2919 
        1.16256          254.11         47.8031 
        1.17828         250.701         46.3815 
        1.19395         244.069         45.0233 
         1.2097         244.043         43.7134 
        1.22537         241.262         42.4626 
          1.241         235.551         41.2652 
        1.25666         233.026         40.1116 
        1.27241         228.851         38.9973 
        1.28819         226.076         37.9239 
        1.30392         222.966         36.8947 
        1.31957         217.991         35.9087 
        1.33529         215.268         34.9556 
        1.35108         213.869         34.0337 
        1.36674         209.566         33.1522 
         1.3824         207.822          32.303 
        1.39811         205.025         31.4812 
        1.41389         200.722         30.6851 
        1.42964         198.682         29.9183 
        1.44531          196.35         29.1818 
        1.46101         192.966         28.4688 
        1.47667          191.11          27.782 
        1.49229         188.486         27.1201 
        1.50793         185.593         26.4792 
        1.52367         183.882         25.8551 
        1.53953         179.706         25.2472 
        1.55526         179.331          24.664 
        1.57092          177.32         24.1018 
        1.58662         172.865          23.556 
        1.60235         171.457         23.0263 
        1.61809         168.584         22.5128 
        1.63369         166.691         22.0197 
        1.64941         165.361          21.538 
        1.66519         162.746         21.0692 
        1.68085         160.282         20.6178 
        1.69652         158.338         20.1797 
        1.71228         156.781         19.7519 
        1.72806         154.971         19.3364 
        1.74368         153.029         18.9371 
        1.75933          151.53         18.5485 
        1.77505         148.977          18.169 
        1.79081         146.702         17.7996 
         1.8065         144.712         17.4422 
        1.82218         142.798         17.0951 
        1.83797         142.409         16.7551 
        1.85367         139.907         16.4263 
        1.86928         138.656         16.1085 
        1.88497         136.879         15.7974 
        1.90073         135.582         15.4935 
        1.91647         133.333         15.1979 
        1.93218         132.068         14.9108 
        1.94787         130.009         14.6315 
        1.96363         129.194         14.3584 
        1.97935         127.583          14.093 
        1.99499         126.616         13.8358 
        2.01064         123.839         13.5847 
         2.0264         122.982         13.3383 
        2.04216         120.749         13.0983 
        2.05781         119.974         12.8657 
        2.07353         118.142          12.638 
        2.08928         116.713         12.4154 
        2.10499         115.486         12.1988 
        2.12065           114.9          11.988 
        2.13633         113.657         11.7822 
        2.15211         111.759         11.5798 
        2.16785         110.213         11.3829 
        2.18349         108.666         11.1918 
        2.19916         107.666         11.0047 
        2.21489         106.769         10.8214 
        2.23063         105.042         10.6421 
         2.2463           104.2         10.4678 
        2.26194         102.753         10.2978 
        2.27765         101.643         10.1308 
        2.29341          100.72         9.96706 
        2.30914         99.4908         9.80734 
        2.32486         97.8701         9.65124 
        2.34061         97.1863         9.49832 
        2.35635         95.7924         9.34888 
        2.37203         94.5433         9.20321 
        2.38768          93.743         9.06097 
        2.40339         93.0864         8.92126 
        2.41914         91.4148          8.7842 
        2.43483          90.631         8.65053 
         2.4505         89.6327         8.51989 
        2.46622         88.8102         8.39153 
        2.48195         87.6491         8.26584 
        2.49759         86.5326         8.14342 
        2.51328         85.7744         8.02318 
        2.52906         84.1108         7.90463 
        2.54479         83.4879         7.78895 
        2.56049         82.6462         7.67583 
        2.57618          81.556         7.56507 
        2.59189         81.0677         7.45636 
        2.60758         79.8295         7.34997 
        2.62325         79.2102         7.24581 
        2.63898          78.227         7.14333 
        2.65468         77.4435         7.04306 
        2.67044         76.5594         6.94431 
        2.68618         75.8148          6.8477 
        2.70184         74.6668         6.75333 
        2.71755         73.9085         6.66052 
        2.73329         73.0894         6.56933 
        2.74897         72.5344         6.48016 
        2.76462         71.9009         6.39286 
        2.78034         71.0815         6.30683 
        2.79607          70.253          6.2223 
        2.81179         69.4374         6.13943 
        2.82749         68.8666         6.05819 
        2.84321         68.2384         5.97833 
        2.85893         67.4287         5.89995 
        2.87462         66.6522         5.82313 
        2.89033         65.8474         5.74761 
        2.90605         65.3477         5.67338 
        2.92176         64.5654         5.60052 
        2.93747          63.714         5.52898 
        2.95318         63.2612         5.45869 
        2.96891         62.4659          5.3896 
        2.98456         61.8097         5.32203 
        3.00023         61.1209         5.25552 
        3.01596         60.6855         5.18996 
        3.03164         60.1339         5.12571 
        3.04738         59.4442         5.06237 
         3.0631         58.5786         5.00014 
        3.07883         58.1627         4.93896 
        3.09456         57.3546         4.87882 
        3.11026         56.7947         4.81978 
        3.12596         56.4242         4.76174 
        3.14163         55.6311         4.70479 
        3.15734         55.1006         4.64866 
        3.17308         54.6357         4.59331 
        3.18879         54.0907         4.53902 
        3.20447          53.563          4.4857 
         3.2202         52.9367         4.43308 
         3.2359         52.5342          4.3814 
        3.25157         52.0243         4.33068 
        3.26729         51.4561         4.28061 
        3.28304         51.0152         4.23125 
        3.29877         50.3068         4.18274 
        3.31446         49.9863          4.1351 
        3.33014         49.4402         4.08825 
        3.34585          48.976         4.04206 
        3.36158         48.4246         3.99652 
        3.37727         48.0389         3.95183 
        3.39294         47.5243         3.90788 
        3.40867         47.1694         3.86444 
        3.42439         46.5544         3.82169 
        3.44008         46.1873         3.77967 
        3.45578          45.635         3.73827 
        3.47153         45.2605         3.69739 
        3.48724         44.7352         3.65721 
        3.50292         44.3017         3.61772 
        3.51859         44.0828         3.57884 
        3.53431         43.5571         3.54042 
        3.55007         43.0924         3.50247 
        3.56577         42.8482         3.46523 
        3.58146         42.3546         3.42855 
        3.59719         41.9217         3.39233 
        3.61292         41.5408         3.35665 
        3.62859         41.2226         3.32161 
        3.64429         40.9499         3.28702 
        3.66003         40.4594         3.25282 
        3.67578         40.1383         3.21912 
        3.69146         39.7659         3.18603 
        3.70712         39.3326         3.15347 
        3.72284          38.967         3.12124 
        3.73853         38.6551         3.08953 
        3.75422         38.3258         3.05825 
        3.76993         38.0124         3.02738 
        3.78564         37.5984         2.99696 
        3.80137          37.293          2.9669 
        3.81707          36.911         2.93733 
        3.83279         36.5848         2.90813 
        3.84853         36.2488         2.87929 
        3.86424         35.9721         2.85091 
        3.87992         35.5591         2.82295 
        3.89561         35.4401         2.79536 
        3.91134         34.9871         2.76809 
        3.92704         34.6524         2.74122 
        3.94273         34.3983         2.71474 
        3.95845         34.0994         2.68856 
        3.97418         33.6824         2.66273 
        3.98988         33.3253         2.63727 
        4.00554         33.0484         2.61222 
        4.02125         32.8627         2.58742 
        4.03698          32.604         2.56291 
        4.05268         32.3446         2.53878 
        4.06839         31.9243         2.51494 
         4.0841          31.811         2.49142 
        4.09983         31.3721         2.46817 
        4.11555         31.1527         2.44522 
        4.13124         31.0135         2.42264 
        4.14693         30.6437         2.40032 
        4.16266         30.3946         2.37824 
        4.17839         30.2178         2.35645 
        4.19408         29.8397         2.33498 
        4.20977         29.6257         2.31377 
        4.22551         29.4893         2.29278 
        4.24123         29.1961         2.27208 
        4.25691         28.8881         2.25169 
        4.27259         28.6616         2.23154 
        4.28831         28.4176          2.2116 
        4.30404         28.1981         2.19189 
        4.31974         27.8923         2.17246 
        4.33543         27.7463         2.15329 
        4.35116         27.4599          2.1343 
        4.36688         27.3051         2.11555 
        4.38255         27.0383         2.09709 
        4.39825         26.8174         2.07882 
        4.41398         26.6093         2.06073 
         4.4297         26.3801         2.04288 
        4.44541         26.0577         2.02524 
        4.46111         25.9473         2.00783 
        4.47683         25.6728         1.99061 
        4.49251         25.4602         1.97363 
        4.50819         25.2776         1.95685 
         4.5239         25.0333         1.94025 
        4.53962         24.8967         1.92382 
        4.55535         24.6381         1.90758 
        4.57106         24.4929         1.89154 
        4.58678         24.2588         1.87569 
         4.6025         24.0766         1.86002 
        4.61821         23.8568         1.84453 
        4.63391         23.7078         1.82924 
         4.6496          23.558         1.81414 
        4.66532         23.3108         1.79918 
        4.68103         23.0954         1.78439 
        4.69673         22.9552         1.76979 
        4.71241         22.8087         1.75537 
        4.72811         22.5834         1.74109 
        4.74384         22.4297         1.72694 
        4.75955           22.23         1.71298 
        4.77525         22.1046         1.69918 
        4.79096         21.8892         1.68552 
        4.80669         21.7168           1.672 
         4.8224          21.528         1.65865 
        4.83809         21.4008         1.64546 
        4.85379         21.2117         1.63241 
         4.8695         20.9833         1.61949 
        4.88521         20.8756         1.60671 
        4.90093         20.7509         1.59407 
        4.91663           20.54         1.58158 
        4.93234         20.3641         1.56921 
        4.94807         20.2765         1.55697 
        4.96377         20.0818         1.54488 
        4.97943         19.9357         1.53295 
        4.99514         19.7861         1.52111 
        5.01086         19.6376         1.50939 
        5.02654         19.5282         1.49783 
        5.04227         19.2954         1.48635 
          5.058         19.2084         1.47499 
        5.07371          19.022         1.46377 
        5.08942         18.8985         1.45267 
        5.10513          18.778         1.44168 
        5.12084         18.6099          1.4308 
        5.13656         18.5024         1.42004 
        5.15225         18.3422          1.4094 
        5.16796         18.1885         1.39886 
        5.18369         18.0743         1.38842 
         5.1994         17.9806          1.3781 
        5.21509         17.8227          1.3679 
        5.23079         17.6948          1.3578 
        5.24649         17.5651          1.3478 
        5.26217         17.4241         1.33791 
        5.27788         17.3029         1.32811 
        5.29359         17.1734          1.3184 
        5.30933         17.0482         1.30878 
        5.32504         16.9134         1.29927 
        5.34073         16.7827         1.28987 
        5.35646         16.6924         1.28054 
        5.37218         16.5386          1.2713 
        5.38789         16.3974         1.26217 
        5.40357         16.3345         1.25314 
        5.41929         16.2218         1.24418 
        5.43502         16.0693         1.23531 
         5.4507         15.9771         1.22655 
        5.46639         15.8241         1.21787 
        5.48212          15.711         1.20925 
        5.49786         15.6282         1.20071 
        5.51353         15.4711          1.1923 
        5.52921         15.4074         1.18395 
        5.54495          15.313         1.17567 
        5.56066         15.1786         1.16747 
        5.57637         15.0745         1.15935 
        5.59207         14.9526         1.15132 
        5.60778         14.8513         1.14336 
        5.62346         14.7455         1.13549 
        5.63916         14.6644         1.12768 
        5.65487         14.5675         1.11995 
         5.6706         14.4561         1.11227 
        5.68633         14.3393         1.10467 
        5.70203         14.2349         1.09716 
        5.71773         14.1576         1.08972 
        5.73344         14.0358         1.08234 
        5.74916          13.983         1.07503 
        5.76486         13.8436         1.06779 
        5.78054         13.7564         1.06063 
        5.79626         13.6767         1.05352 
          5.812         13.5503         1.04647 
         5.8277         13.4649          1.0395 
        5.84339          13.389          1.0326 
        5.85911         13.2857         1.02574 
        5.87484         13.2161         1.01895 
        5.89053         13.1029         1.01224 
        5.90623         13.0095         1.00558 
        5.92195         12.9075        0.998976 
        5.93767          12.857        0.992432 
        5.95336         12.7392        0.985958 
        5.96905         12.6433        0.979545 
        5.98476         12.5853         0.97318 
        6.00048         12.5042         0.96687 
        6.01617         12.4039        0.960626 
        6.03185         12.3311        0.954444 
        6.04756         12.2276        0.948302 
        6.06331          12.168        0.942202 
        6.07903         12.0928        0.936169 
        6.09473         11.9926        0.930194 
        6.11044         11.9068        0.924267 
        6.12616         11.8524        0.918393 
        6.14186         11.7362        0.912576 
        6.15755         11.6886         0.90681 
        6.17326         11.6069         0.90109 
        6.18898         11.5229        0.895417 
        6.20467         11.4444        0.889804 
        6.22036         11.3775        0.884239 
         6.2361         11.3109        0.878708 
         6.2518         11.2376        0.873233 
        6.26748         11.1672        0.867818 
        6.28319         11.0852        0.862433 
        6.29893         11.0086         0.85709 
        6.31463         10.9558        0.851802 
        6.33033         10.8789        0.846561 
        6.34604         10.7891         0.84136 
        6.36177         10.7283        0.836198 
        6.37747         10.6682         0.83109 
