# k  (h/Mpc)    Pcb(k)  (Mpc/h)^3    Pcb_linear(k) (Mpc/h)^3   ShotnoiseSubtracted = true
      0.0200456         4998.33         5071.56 
      0.0350414         3846.47         3772.81 
      0.0492313         2833.26         2841.89 
      0.0637834         2363.05         2425.91 
      0.0800726         1852.04         1903.65 
       0.096163         1424.62         1389.94 
       0.111083         1196.24         1156.78 
       0.126058         1023.12         1038.24 
       0.142273           852.6         854.681 
       0.158546         698.869         679.942 
        0.17375         622.836         597.612 
       0.188953         568.826         544.379 
       0.204907         476.772         469.213 
       0.220756         424.934         398.381 
        0.23588         381.563         357.906 
         0.2514         345.663         327.865 
       0.267535         324.992         291.433 
       0.283568         284.207         257.139 
       0.299022         267.883         233.915 
       0.314451         260.041          215.64 
       0.330372         227.158         196.062 
       0.346141         209.952         177.772 
       0.361624         197.662         163.529 
       0.377134         181.329         151.628 
       0.392932         176.895         139.946 
       0.408854          165.69         128.901 
       0.424564          158.51         119.599 
       0.440253         144.234         111.535 
       0.455999         134.584         103.983 
       0.471626         129.857         97.0101 
        0.48727         126.063         90.7704 
       0.502856         116.056         85.2179 
       0.518488         112.799          80.076 
       0.534347         106.405         75.2283 
       0.550082         103.396         70.8412 
       0.565732         100.667         66.8646 
       0.581496          93.366         63.1659 
       0.597222         90.4541         59.7363 
       0.612804         87.7369         56.5926 
       0.628434          85.591          53.683 
       0.644267         81.2045         50.9485 
       0.660051         78.3041         48.4124 
       0.675724         76.2173         46.0654 
       0.691403         74.8964          43.874 
       0.707174         72.4723         41.8146 
       0.722871          70.506         39.8972 
        0.73838         67.8283         38.1222 
       0.754018         64.3834         36.4432 
       0.769845         63.7158         34.8483 
        0.78569         61.5294         33.3488 
       0.801365         60.0358         31.9536 
       0.817031         57.8398         30.6403 
       0.832809         56.9716         29.3936 
       0.848511         55.3488         28.2228 
       0.864097         54.3161         27.1248 
       0.879701         53.2487          26.085 
       0.895507         51.4115         25.0882 
       0.911279         50.3364         24.1462 
        0.92691         49.0963         23.2612 
       0.942635         48.2027         22.4162 
       0.958396         47.6851         21.6119 
       0.974128         46.4455         20.8492 
       0.989692         45.0384         20.1313 
        1.00528         44.4508         19.4466 
        1.02113         43.4669         18.7834 
        1.03692         42.9176         18.1541 
        1.05264         41.9613         17.5569 
        1.06832         41.1781         16.9879 
        1.08405         40.1541          16.443 
        1.09979         39.9807          15.922 
        1.11537         38.7722          15.429 
        1.13105         38.0076         14.9543 
        1.14679         37.3146          14.498 
        1.16256         36.8644         14.0601 
        1.17828         36.3355          13.642 
        1.19395         35.6241         13.2425 
         1.2097         35.1161         12.8572 
        1.22537         34.4891         12.4893 
          1.241         33.8915         12.1371 
        1.25666         33.4842         11.7978 
        1.27241         33.0456         11.4701 
        1.28819         31.8658         11.1544 
        1.30392         32.2089         10.8517 
        1.31957         31.4812         10.5616 
        1.33529         30.8632         10.2813 
        1.35108          30.561         10.0102 
        1.36674          30.203         9.75089 
         1.3824         29.6258         9.50113 
        1.39811         28.9959         9.25941 
        1.41389         28.7482         9.02527 
        1.42964         28.4807         8.79973 
        1.44531         27.9575          8.5831 
        1.46101         27.6767         8.37339 
        1.47667         27.3411          8.1714 
        1.49229         26.8169          7.9767 
        1.50793         26.5724          7.7882 
        1.52367         26.1966         7.60464 
        1.53953         25.9249         7.42585 
        1.55526         25.4948          7.2543 
        1.57092         25.3856         7.08895 
        1.58662         25.0351         6.92842 
        1.60235         24.5941         6.77262 
        1.61809         24.4289         6.62158 
        1.63369         24.1265         6.47655 
        1.64941         23.8639         6.33487 
        1.66519         23.3952         6.19697 
        1.68085         23.0359         6.06421 
        1.69652         23.0653         5.93535 
        1.71228         22.6512         5.80954 
        1.72806         22.3287         5.68732 
        1.74368         22.1539         5.56988 
        1.75933         21.9101         5.45557 
        1.77505         21.6895         5.34397 
        1.79081         21.4574         5.23532 
         1.8065          21.213          5.1302 
        1.82218         21.0205         5.02809 
        1.83797         20.8799         4.92809 
        1.85367           20.74          4.8314 
        1.86928         20.4719         4.73791 
        1.88497         20.2216         4.64641 
        1.90073         19.9662         4.55702 
        1.91647          19.631         4.47008 
        1.93218         19.7033         4.38563 
        1.94787         19.3107          4.3035 
        1.96363         19.2645         4.22318 
        1.97935         18.9463         4.14509 
        1.99499         18.7402         4.06944 
        2.01064         18.6156         3.99559 
         2.0264         18.3577         3.92313 
        2.04216         18.3113         3.85253 
        2.05781         18.1035         3.78412 
        2.07353         17.9135         3.71715 
        2.08928         17.6944         3.65167 
        2.10499         17.4867         3.58796 
        2.12065          17.366         3.52598 
        2.13633         17.2327         3.46543 
        2.15211          17.022         3.40592 
        2.16785         16.9326         3.34799 
        2.18349          16.685         3.29179 
        2.19916         16.5384         3.23677 
        2.21489          16.394         3.18284 
        2.23063           16.32         3.13011 
         2.2463         16.0624         3.07883 
        2.26194         15.9482         3.02884 
        2.27765         15.7331         2.97972 
        2.29341         15.6094         2.93156 
        2.30914         15.4809         2.88458 
        2.32486          15.395         2.83867 
        2.34061         15.2562         2.79369 
        2.35635         15.1108         2.74974 
        2.37203         14.9275         2.70689 
        2.38768         14.7552         2.66506 
        2.40339         14.7159         2.62397 
        2.41914         14.5142         2.58365 
        2.43483         14.3913         2.54434 
         2.4505         14.2642         2.50591 
        2.46622         14.1853         2.46816 
        2.48195         14.0834         2.43119 
        2.49759         13.8594         2.39518 
        2.51328         13.8637         2.35982 
        2.52906         13.6684         2.32495 
        2.54479         13.5341         2.29093 
        2.56049         13.3962         2.25765 
        2.57618         13.3515         2.22508 
        2.59189         13.2963          2.1931 
        2.60758         13.0713         2.16181 
        2.62325         12.9975         2.13118 
        2.63898         12.9249         2.10103 
        2.65468         12.7478         2.07154 
        2.67044         12.7007          2.0425 
        2.68618         12.5862         2.01408 
        2.70184         12.4614         1.98632 
        2.71755         12.3799         1.95903 
        2.73329         12.2204         1.93221 
        2.74897         12.1676         1.90598 
        2.76462           12.08          1.8803 
        2.78034         11.9444           1.855 
        2.79607         11.8791         1.83014 
        2.81179         11.7443         1.80576 
        2.82749         11.6668         1.78186 
        2.84321         11.5903         1.75838 
        2.85893          11.501         1.73532 
        2.87462         11.4299         1.71273 
        2.89033         11.2966         1.69052 
        2.90605         11.2249         1.66868 
        2.92176         11.1137         1.64725 
        2.93747          11.037         1.62621 
        2.95318         10.9383         1.60554 
        2.96891         10.8776         1.58522 
        2.98456         10.7794         1.56534 
        3.00023          10.699         1.54578 
        3.01596         10.5575          1.5265 
        3.03164         10.5673          1.5076 
        3.04738         10.4211         1.48897 
         3.0631         10.3066         1.47067 
        3.07883         10.2633         1.45267 
        3.09456         10.2009         1.43498 
        3.11026         10.1356         1.41762 
        3.12596         10.0154         1.40055 
        3.14163         9.99087          1.3838 
        3.15734         9.85983         1.36729 
        3.17308         9.81266         1.35101 
        3.18879         9.72811         1.33504 
        3.20447         9.63372         1.31936 
         3.2202         9.57977         1.30388 
         3.2359         9.48281         1.28868 
        3.25157         9.46526         1.27376 
        3.26729         9.35921         1.25904 
        3.28304         9.28445         1.24452 
        3.29877         9.22492         1.23025 
        3.31446         9.17156         1.21624 
        3.33014         9.08734         1.20246 
        3.34585         9.05765         1.18887 
        3.36158         8.96562         1.17548 
        3.37727         8.90138         1.16233 
        3.39294         8.80388          1.1494 
        3.40867         8.77761         1.13663 
        3.42439         8.67651         1.12405 
        3.44008         8.60526          1.1117 
        3.45578         8.55754         1.09952 
        3.47153         8.46764          1.0875 
        3.48724          8.4293         1.07568 
        3.50292         8.34762         1.06406 
        3.51859         8.31938         1.05263 
        3.53431         8.23866         1.04133 
        3.55007         8.17959         1.03016 
        3.56577         8.08829         1.01921 
        3.58146         8.07844         1.00842 
        3.59719         8.00323        0.997769 
        3.61292         7.94469        0.987274 
        3.62859         7.89076         0.97697 
        3.64429         7.83365        0.966795 
        3.66003         7.77537        0.956735 
        3.67578         7.70726        0.946823 
        3.69146         7.66879        0.937091 
        3.70712         7.61166        0.927514 
        3.72284         7.52979        0.918036 
        3.73853         7.49965        0.908709 
        3.75422         7.42982        0.899509 
        3.76993          7.3803        0.890429 
        3.78564         7.33801         0.88148 
        3.80137         7.30376         0.87264 
        3.81707          7.2089        0.863941 
        3.83279         7.18747        0.855355 
        3.84853         7.11882        0.846873 
        3.86424         7.05747        0.838523 
        3.87992         7.02147        0.830299 
        3.89561         6.98622        0.822186 
        3.91134         6.91456        0.814166 
        3.92704         6.87081        0.806263 
        3.94273         6.81682        0.798474 
        3.95845         6.78629        0.790774 
        3.97418          6.7259        0.783175 
        3.98988          6.6826        0.775688 
        4.00554         6.63252        0.768319 
        4.02125         6.57372        0.761026 
        4.03698         6.54701        0.753817 
        4.05268         6.47494        0.746719 
        4.06839         6.43102        0.739707 
         4.0841         6.39258        0.732789 
        4.09983         6.34214         0.72595 
        4.11555         6.28455        0.719202 
        4.13124         6.24376        0.712559 
        4.14693         6.21795        0.705995 
        4.16266         6.17192          0.6995 
        4.17839         6.13676         0.69309 
        4.19408         6.08458        0.686776 
        4.20977         6.03676        0.680539 
        4.22551         6.00167        0.674365 
        4.24123         5.94294        0.668275 
        4.25691          5.9132        0.662277 
        4.27259         5.86353        0.656352 
        4.28831         5.81144        0.650488 
        4.30404         5.77155         0.64469 
        4.31974         5.73614        0.638976 
        4.33543         5.69681        0.633336 
        4.35116         5.66169        0.627751 
        4.36688         5.62494        0.622235 
        4.38255         5.58405        0.616807 
        4.39825         5.54523        0.611433 
        4.41398         5.51258        0.606113 
         4.4297         5.48427        0.600862 
        4.44541         5.43503        0.595674 
        4.46111         5.40072        0.590553 
        4.47683         5.35233        0.585489 
        4.49251         5.33581        0.580494 
        4.50819         5.29594         0.57556 
         4.5239         5.26209        0.570677 
        4.53962         5.20762        0.565844 
        4.55535         5.18494        0.561066 
        4.57106         5.15308        0.556351 
        4.58678         5.10598        0.551689 
         4.6025         5.09129        0.547079 
        4.61821         5.03671        0.542524 
        4.63391         4.99909        0.538027 
         4.6496         4.96854        0.533583 
        4.66532         4.93551        0.529183 
        4.68103         4.90914        0.524835 
        4.69673         4.88407         0.52054 
        4.71241         4.84251        0.516298 
        4.72811         4.81956        0.512097 
        4.74384         4.78311        0.507938 
        4.75955         4.74517        0.503831 
        4.77525         4.71294        0.499773 
        4.79096         4.69564        0.495754 
        4.80669         4.66117        0.491779 
         4.8224         4.61644        0.487851 
        4.83809         4.59713        0.483972 
        4.85379          4.5517        0.480132 
         4.8695         4.53087        0.476331 
        4.88521         4.51079        0.472574 
        4.90093          4.4808        0.468857 
        4.91663         4.45523        0.465183 
        4.93234         4.41687        0.461545 
        4.94807         4.39642        0.457944 
        4.96377         4.36119        0.454389 
        4.97943         4.33444        0.450879 
        4.99514         4.31212        0.447397 
        5.01086          4.2815         0.44395 
        5.02654         4.24965        0.440549 
        5.04227          4.2204        0.437173 
          5.058         4.20194        0.433831 
        5.07371          4.1734        0.430531 
        5.08942          4.1398        0.427266 
        5.10513         4.11421        0.424034 
        5.12084         4.09337        0.420834 
        5.13656         4.07005        0.417668 
        5.15225         4.04931         0.41454 
        5.16796          4.0228         0.41144 
        5.18369         3.98165        0.408369 
         5.1994         3.96678        0.405335 
        5.21509         3.93295        0.402335 
        5.23079         3.91433        0.399362 
        5.24649         3.89116        0.396421 
        5.26217         3.85864        0.393513 
        5.27788         3.83948        0.390629 
        5.29359         3.82255        0.387775 
        5.30933         3.80181        0.384945 
        5.32504         3.77458        0.382148 
        5.34073         3.75575        0.379383 
        5.35646         3.72142        0.376639 
        5.37218         3.71009        0.373922 
        5.38789         3.68441        0.371237 
        5.40357         3.65769        0.368581 
        5.41929         3.63654        0.365946 
        5.43502         3.61261        0.363336 
         5.4507         3.58362        0.360759 
        5.46639         3.56609        0.358206 
        5.48212         3.54526        0.355672 
        5.49786         3.52616        0.353159 
        5.51353          3.5072        0.350684 
        5.52921         3.47844         0.34823 
        5.54495         3.46414        0.345793 
        5.56066         3.44195        0.343382 
        5.57637         3.42077        0.340994 
        5.59207         3.39766        0.338631 
        5.60778         3.38312         0.33629 
        5.62346         3.36173        0.333975 
        5.63916         3.34057        0.331679 
        5.65487         3.31817        0.329404 
         5.6706         3.30111        0.327148 
        5.68633         3.28692        0.324912 
        5.70203         3.26766        0.322702 
        5.71773         3.24142        0.320513 
        5.73344         3.22237        0.318344 
        5.74916         3.20579        0.316192 
        5.76486         3.18884        0.314064 
        5.78054         3.16985        0.311959 
        5.79626         3.15033        0.309867 
          5.812         3.12767        0.307792 
         5.8277         3.10983        0.305743 
        5.84339          3.0907        0.303713 
        5.85911         3.07826        0.301697 
        5.87484         3.05943          0.2997 
        5.89053         3.04385        0.297725 
        5.90623         3.02185        0.295767 
        5.92195         3.01118        0.293824 
        5.93767         2.99283        0.291899 
        5.95336         2.97412        0.289995 
        5.96905         2.95659        0.288109 
        5.98476          2.9361        0.286237 
        6.00048         2.92632        0.284381 
        6.01617         2.90012        0.282544 
        6.03185         2.89004        0.280726 
        6.04756         2.87286         0.27892 
        6.06331         2.85777        0.277125 
        6.07903         2.83941        0.275351 
        6.09473         2.82343        0.273593 
        6.11044         2.81037         0.27185 
        6.12616         2.79428        0.270122 
        6.14186         2.77965        0.268412 
        6.15755         2.76616        0.266716 
        6.17326         2.75117        0.265033 
        6.18898         2.73056        0.263365 
        6.20467         2.71802        0.261714 
        6.22036         2.70567        0.260077 
         6.2361         2.69088         0.25845 
         6.2518         2.67678         0.25684 
        6.26748          2.6572        0.255247 
        6.28319         2.64643        0.253663 
        6.29893         2.63071        0.252092 
        6.31463         2.62179        0.250536 
        6.33033         2.60848        0.248995 
        6.34604         2.58804        0.247465 
        6.36177         2.57902        0.245947 
        6.37747          2.5635        0.244444 
