# k  (h/Mpc)    Pcb(k)  (Mpc/h)^3    Pcb_linear(k) (Mpc/h)^3   ShotnoiseSubtracted = true
      0.0200456         5953.28         6041.81 
      0.0350414         4587.33         4494.59 
      0.0492313         3370.69         3385.57 
      0.0637834         2807.68         2890.02 
      0.0800726         2199.55         2267.84 
       0.096163         1698.97         1655.85 
       0.111083         1427.66         1378.08 
       0.126058         1217.13         1236.87 
       0.142273         1016.76         1018.19 
       0.158546         835.083         810.022 
        0.17375         745.055         711.942 
       0.188953         682.362         648.525 
       0.204907         572.486         558.978 
       0.220756         511.328         474.595 
        0.23588          459.41         426.377 
         0.2514         415.459         390.589 
       0.267535         393.292         347.187 
       0.283568         343.637         306.332 
       0.299022         325.278         278.665 
       0.314451         318.198         256.894 
       0.330372         276.663         233.571 
       0.346141         256.231         211.781 
       0.361624         242.281         194.814 
       0.377134         222.655         180.636 
       0.392932         217.387         166.719 
       0.408854          204.62         153.561 
       0.424564         195.937          142.48 
       0.440253         177.813         132.873 
       0.455999         167.106         123.876 
       0.471626         162.344         115.569 
        0.48727          157.02         108.136 
       0.502856         144.055         101.521 
       0.518488         141.361         95.3954 
       0.534347           132.9         89.6203 
       0.550082         129.594         84.3938 
       0.565732         126.655         79.6565 
       0.581496         117.241         75.2502 
       0.597222         114.232         71.1645 
       0.612804          110.86         67.4193 
       0.628434          107.91         63.9531 
       0.644267         102.507         60.6955 
       0.660051         99.1006         57.6742 
       0.675724         97.1505         54.8782 
       0.691403         95.1715         52.2675 
       0.707174         92.0851         49.8141 
       0.722871         89.9607           47.53 
        0.73838         87.0734         45.4154 
       0.754018          82.346         43.4151 
       0.769845         81.7126         41.5152 
        0.78569         79.1156         39.7287 
       0.801365         77.0622         38.0666 
       0.817031         74.3858         36.5021 
       0.832809         73.2147         35.0169 
       0.848511         71.3497         33.6222 
       0.864097         70.1592         32.3141 
       0.879701         68.7697         31.0753 
       0.895507          66.318         29.8878 
       0.911279         65.3431         28.7657 
        0.92691         63.4018         27.7113 
       0.942635         62.2613         26.7046 
       0.958396         61.9189         25.7465 
       0.974128         60.3923         24.8378 
       0.989692         58.8296         23.9826 
        1.00528         57.8442         23.1669 
        1.02113         56.6775         22.3769 
        1.03692         56.2057         21.6272 
        1.05264          54.958         20.9158 
        1.06832         53.7126         20.2379 
        1.08405          52.664         19.5887 
        1.09979         52.4959          18.968 
        1.11537         51.0018         18.3808 
        1.13105         49.8232         17.8152 
        1.14679         49.1991         17.2716 
        1.16256          48.578         16.7499 
        1.17828         47.8913         16.2518 
        1.19395         46.8205         15.7759 
         1.2097         46.5621         15.3169 
        1.22537         45.6157         14.8787 
          1.241         44.8348         14.4591 
        1.25666           44.17         14.0549 
        1.27241         43.8374         13.6644 
        1.28819          42.503         13.2883 
        1.30392         42.5255         12.9277 
        1.31957         41.8671         12.5822 
        1.33529         41.0916         12.2482 
        1.35108         40.4419         11.9252 
        1.36674          40.103         11.6163 
         1.3824          39.407         11.3188 
        1.39811         38.6247         11.0308 
        1.41389         38.2526         10.7519 
        1.42964         37.9099         10.4832 
        1.44531         37.1121         10.2251 
        1.46101         36.9268         9.97531 
        1.47667         36.4599         9.73467 
        1.49229         35.8331         9.50272 
        1.50793         35.4397         9.27816 
        1.52367         34.9222         9.05949 
        1.53953         34.6826         8.84649 
        1.55526         34.1494         8.64213 
        1.57092         33.8092         8.44514 
        1.58662         33.2925         8.25391 
        1.60235         32.8735         8.06829 
        1.61809         32.5798         7.88836 
        1.63369         32.2386         7.71558 
        1.64941         31.8342          7.5468 
        1.66519         31.2613         7.38252 
        1.68085         30.8625         7.22436 
        1.69652         30.6809         7.07084 
        1.71228         30.3743         6.92096 
        1.72806         29.8855         6.77536 
        1.74368         29.5835         6.63546 
        1.75933         29.2988         6.49928 
        1.77505         29.0589         6.36632 
        1.79081         28.7198          6.2369 
         1.8065         28.3034         6.11166 
        1.82218          28.011         5.99002 
        1.83797         27.8564         5.87089 
        1.85367         27.5545          5.7557 
        1.86928         27.3897         5.64432 
        1.88497         26.9199         5.53532 
        1.90073         26.6497         5.42882 
        1.91647         26.3582         5.32526 
        1.93218           26.43         5.22464 
        1.94787         25.9747         5.12681 
        1.96363         25.7433         5.03112 
        1.97935          25.308         4.93809 
        1.99499         25.1346         4.84797 
        2.01064         24.8621         4.75999 
         2.0264         24.6149         4.67367 
        2.04216         24.4777         4.58955 
        2.05781          24.203         4.50806 
        2.07353         23.9575         4.42828 
        2.08928         23.5712         4.35027 
        2.10499         23.4214         4.27438 
        2.12065         23.1884         4.20054 
        2.13633         23.0602          4.1284 
        2.15211         22.6862         4.05751 
        2.16785         22.6478          3.9885 
        2.18349         22.3324         3.92154 
        2.19916         22.1361           3.856 
        2.21489         21.8996         3.79175 
        2.23063         21.8022         3.72894 
         2.2463         21.5026         3.66785 
        2.26194         21.3208         3.60829 
        2.27765         21.0005         3.54977 
        2.29341         20.8944          3.4924 
        2.30914         20.6594         3.43644 
        2.32486         20.5811         3.38174 
        2.34061         20.3787         3.32816 
        2.35635         20.0926         3.27579 
        2.37203         19.9648         3.22475 
        2.38768         19.7683         3.17491 
        2.40339         19.6677         3.12596 
        2.41914         19.4167         3.07793 
        2.43483         19.2184          3.0311 
         2.4505         19.0044         2.98532 
        2.46622         18.9447         2.94035 
        2.48195         18.7265          2.8963 
        2.49759         18.4342         2.85341 
        2.51328         18.4436         2.81128 
        2.52906         18.2505         2.76974 
        2.54479         18.0469          2.7292 
        2.56049         17.8673         2.68957 
        2.57618         17.8298         2.65076 
        2.59189         17.6172         2.61267 
        2.60758         17.3793         2.57539 
        2.62325         17.2718         2.53889 
        2.63898         17.1727         2.50298 
        2.65468         16.9149         2.46785 
        2.67044         16.8315         2.43325 
        2.68618         16.7376          2.3994 
        2.70184         16.5224         2.36633 
        2.71755         16.4022         2.33381 
        2.73329          16.223         2.30186 
        2.74897         16.1392         2.27061 
        2.76462         15.9942         2.24002 
        2.78034         15.8231         2.20988 
        2.79607         15.7082         2.18026 
        2.81179         15.5536         2.15122 
        2.82749         15.4481         2.12275 
        2.84321          15.308         2.09477 
        2.85893         15.1245         2.06731 
        2.87462         15.0938         2.04039 
        2.89033         14.9157         2.01393 
        2.90605         14.8161         1.98792 
        2.92176         14.6644         1.96239 
        2.93747         14.5451         1.93732 
        2.95318          14.416         1.91269 
        2.96891         14.3198         1.88849 
        2.98456          14.182         1.86481 
        3.00023         14.0802         1.84151 
        3.01596         13.9692         1.81853 
        3.03164         13.8765         1.79602 
        3.04738         13.7515         1.77383 
         3.0631         13.5711         1.75202 
        3.07883         13.4994         1.73058 
        3.09456         13.4199         1.70951 
        3.11026         13.3319         1.68882 
        3.12596         13.1834         1.66849 
        3.14163         13.1041         1.64853 
        3.15734         12.9486         1.62886 
        3.17308         12.8853         1.60947 
        3.18879         12.7638         1.59045 
        3.20447         12.6677         1.57176 
         3.2202         12.5588         1.55333 
         3.2359         12.4395         1.53522 
        3.25157         12.3904         1.51745 
        3.26729         12.2472          1.4999 
        3.28304         12.1461         1.48261 
        3.29877         12.0808         1.46561 
        3.31446         11.9716         1.44891 
        3.33014         11.8722          1.4325 
        3.34585         11.7807         1.41631 
        3.36158         11.6866         1.40036 
        3.37727         11.6212          1.3847 
        3.39294         11.5155          1.3693 
        3.40867         11.4139         1.35408 
        3.42439         11.3189          1.3391 
        3.44008         11.2434         1.32438 
        3.45578         11.1343         1.30987 
        3.47153         11.0581         1.29555 
        3.48724         10.9862         1.28147 
        3.50292         10.8709         1.26763 
        3.51859         10.8012         1.25401 
        3.53431         10.6786         1.24054 
        3.55007         10.6187         1.22725 
        3.56577          10.518          1.2142 
        3.58146         10.4405         1.20135 
        3.59719         10.3603         1.18865 
        3.61292         10.3172         1.17615 
        3.62859         10.2383         1.16387 
        3.64429         10.1192         1.15175 
        3.66003         10.0824         1.13977 
        3.67578         9.96374         1.12796 
        3.69146         9.93417         1.11637 
        3.70712         9.85425         1.10496 
        3.72284         9.74377         1.09367 
        3.73853         9.67468         1.08255 
        3.75422         9.61638         1.07159 
        3.76993         9.51239         1.06078 
        3.78564          9.4456         1.05012 
        3.80137         9.40811         1.03959 
        3.81707          9.3143         1.02922 
        3.83279         9.20719         1.01899 
        3.84853         9.17453         1.00889 
        3.86424         9.13145        0.998941 
        3.87992         9.05492        0.989144 
        3.89561         8.95355        0.979479 
        3.91134         8.88152        0.969925 
        3.92704          8.8257         0.96051 
        3.94273         8.75291         0.95123 
        3.95845         8.70893        0.942058 
        3.97418         8.62795        0.933005 
        3.98988         8.57867        0.924085 
        4.00554         8.50558        0.915307 
        4.02125         8.45929        0.906618 
        4.03698         8.37834         0.89803 
        4.05268         8.30357        0.889574 
        4.06839         8.22657        0.881221 
         4.0841         8.19195        0.872979 
        4.09983         8.11871        0.864832 
        4.11555         8.02586        0.856793 
        4.13124         7.97727        0.848879 
        4.14693          7.9192        0.841059 
        4.16266          7.8657        0.833321 
        4.17839          7.8172        0.825686 
        4.19408         7.75575        0.818164 
        4.20977         7.68638        0.810734 
        4.22551         7.64856        0.803379 
        4.24123           7.587        0.796123 
        4.25691         7.52708        0.788978 
        4.27259         7.45808        0.781919 
        4.28831         7.41806        0.774933 
        4.30404         7.34857        0.768026 
        4.31974         7.29992        0.761219 
        4.33543         7.25788          0.7545 
        4.35116         7.18644        0.747846 
        4.36688         7.13899        0.741275 
        4.38255         7.07166        0.734809 
        4.39825         7.02975        0.728407 
        4.41398         6.96873        0.722068 
         4.4297         6.93836        0.715813 
        4.44541         6.87305        0.709633 
        4.46111         6.85226        0.703532 
        4.47683         6.78194        0.697499 
        4.49251         6.74011        0.691549 
        4.50819         6.69685        0.685671 
         4.5239         6.63452        0.679853 
        4.53962         6.58864        0.674096 
        4.55535         6.53488        0.668404 
        4.57106         6.48097        0.662786 
        4.58678         6.45593        0.657232 
         4.6025          6.3972        0.651741 
        4.61821         6.36367        0.646315 
        4.63391         6.29745        0.640957 
         4.6496         6.26974        0.635663 
        4.66532         6.21361        0.630421 
        4.68103         6.17708        0.625241 
        4.69673         6.14056        0.620125 
        4.71241         6.09592        0.615071 
        4.72811         6.04088        0.610066 
        4.74384         6.02132        0.605111 
        4.75955         5.96401        0.600219 
        4.77525         5.91027        0.595384 
        4.79096          5.8855        0.590597 
        4.80669         5.83918        0.585861 
         4.8224         5.78796        0.581183 
        4.83809          5.7561        0.576561 
        4.85379         5.70325        0.571986 
         4.8695         5.68339        0.567459 
        4.88521         5.65219        0.562982 
        4.90093         5.58993        0.558554 
        4.91663         5.55835        0.554177 
        4.93234         5.52489        0.549844 
        4.94807         5.48745        0.545554 
        4.96377         5.44718        0.541318 
        4.97943         5.41746        0.537137 
        4.99514         5.36571        0.532989 
        5.01086         5.34485        0.528883 
        5.02654         5.30124         0.52483 
        5.04227         5.25674        0.520809 
          5.058         5.22033        0.516828 
        5.07371         5.18888        0.512896 
        5.08942         5.15152        0.509006 
        5.10513         5.11677        0.505156 
        5.12084         5.08663        0.501344 
        5.13656         5.04807        0.497572 
        5.15225         5.01061        0.493846 
        5.16796         4.98911        0.490153 
        5.18369         4.94181        0.486494 
         5.1994         4.91453         0.48288 
        5.21509         4.87238        0.479306 
        5.23079         4.84876        0.475764 
        5.24649         4.81832        0.472261 
        5.26217         4.77402        0.468796 
        5.27788         4.75747        0.465361 
        5.29359         4.71819         0.46196 
        5.30933          4.6901        0.458589 
        5.32504         4.66707        0.455257 
        5.34073         4.63573        0.451962 
        5.35646         4.59801        0.448694 
        5.37218         4.55949        0.445457 
        5.38789          4.5406        0.442258 
        5.40357         4.51464        0.439095 
        5.41929          4.4761        0.435955 
        5.43502         4.44493        0.432846 
         5.4507         4.42975        0.429775 
        5.46639         4.38972        0.426734 
        5.48212           4.371        0.423715 
        5.49786         4.34345        0.420723 
        5.51353         4.31291        0.417774 
        5.52921         4.28748         0.41485 
        5.54495          4.2579        0.411947 
        5.56066         4.23744        0.409074 
        5.57637         4.20074         0.40623 
        5.59207         4.17307        0.403415 
        5.60778         4.15538        0.400626 
        5.62346         4.12362        0.397868 
        5.63916         4.10285        0.395133 
        5.65487         4.07338        0.392423 
         5.6706         4.04423        0.389735 
        5.68633         4.03006        0.387071 
        5.70203         4.00017        0.384439 
        5.71773         3.96855        0.381831 
        5.73344         3.94945        0.379246 
        5.74916         3.92281        0.376683 
        5.76486         3.89859        0.374148 
        5.78054         3.87411         0.37164 
        5.79626         3.84344        0.369148 
          5.812         3.82434        0.366676 
         5.8277         3.80246        0.364235 
        5.84339         3.78562        0.361816 
        5.85911         3.75701        0.359415 
        5.87484         3.73376        0.357036 
        5.89053         3.70752        0.354683 
        5.90623          3.6892        0.352351 
        5.92195         3.66613        0.350036 
        5.93767         3.64541        0.347743 
        5.95336         3.62083        0.345474 
        5.96905         3.59273        0.343227 
        5.98476          3.5765        0.340997 
        6.00048         3.55647        0.338786 
        6.01617         3.53119        0.336598 
        6.03185         3.51739        0.334432 
        6.04756         3.48663         0.33228 
        6.06331         3.47197        0.330142 
        6.07903          3.4516        0.328028 
        6.09473         3.43028        0.325935 
        6.11044         3.40858        0.323858 
        6.12616         3.38798          0.3218 
        6.14186         3.37646        0.319761 
        6.15755         3.34562        0.317741 
        6.17326         3.32564        0.315737 
        6.18898         3.30282        0.313749 
        6.20467          3.2888        0.311782 
        6.22036         3.27205        0.309833 
         6.2361         3.24973        0.307894 
         6.2518         3.23018        0.305976 
        6.26748         3.21554        0.304078 
        6.28319         3.19169        0.302192 
        6.29893         3.18371         0.30032 
        6.31463         3.16201        0.298467 
        6.33033          3.1434         0.29663 
        6.34604         3.11967        0.294808 
        6.36177          3.1093        0.292999 
        6.37747         3.08671        0.291209 
