# k  (h/Mpc)    Pcb(k)  (Mpc/h)^3    Pcb_linear(k) (Mpc/h)^3   ShotnoiseSubtracted = true
      0.0200456         10829.5         11057.8 
      0.0350414         7897.76         8139.63 
      0.0492313         6110.71         6185.52 
      0.0637834         5357.75         5297.14 
      0.0800726         4139.76         4078.56 
       0.096163         2912.92         2982.11 
       0.111083         2434.52         2534.48 
       0.126058         2258.87         2260.63 
       0.142273         1882.18          1819.8 
       0.158546         1593.95         1463.67 
        0.17375         1328.99         1311.64 
       0.188953         1279.31         1181.55 
       0.204907         1179.04          1000.9 
       0.220756         1010.39         859.621 
        0.23588         904.593         783.169 
         0.2514         793.034         711.122 
       0.267535         766.916         624.894 
       0.283568          698.74         555.906 
       0.299022         655.159         510.074 
       0.314451         616.719         467.637 
       0.330372         569.186          422.48 
       0.346141         519.347         384.785 
       0.361624         500.043         355.714 
       0.377134         466.318         328.995 
       0.392932         443.111         302.637 
       0.408854         426.304         279.355 
       0.424564         405.709         259.884 
       0.440253         392.633         242.129 
       0.455999         369.803         225.406 
       0.471626         345.099         210.465 
        0.48727         336.431         197.221 
       0.502856         325.467         185.123 
       0.518488         321.871         173.845 
       0.534347         302.694         163.387 
       0.550082         285.209         153.972 
       0.565732          282.04         145.348 
       0.581496         267.463         137.288 
       0.597222         261.366         129.858 
       0.612804         252.186          123.08 
       0.628434         243.574         116.779 
       0.644267         235.737         110.846 
       0.660051         232.621         105.344 
       0.675724         228.199         100.252 
       0.691403         221.511         95.4976 
       0.707174         212.264         91.0296 
       0.722871         210.387         86.8699 
        0.73838         205.963         83.0189 
       0.754018          199.84         79.3762 
       0.769845         193.918         75.9159 
        0.78569         191.899         72.6623 
       0.801365         186.444         69.6345 
       0.817031         180.486         66.7841 
       0.832809         177.565         64.0776 
       0.848511         173.354         61.5356 
       0.864097         170.603         59.1511 
       0.879701         166.723         56.8926 
       0.895507         162.383         54.7272 
       0.911279         159.234         52.6806 
        0.92691          157.96         50.7573 
       0.942635         154.327         48.9207 
       0.958396         153.868         47.1725 
       0.974128         149.255         45.5142 
       0.989692           145.4         43.9532 
        1.00528         143.007         42.4643 
        1.02113         142.086         41.0221 
        1.03692         136.672         39.6532 
        1.05264         135.507         38.3541 
        1.06832         132.739         37.1162 
        1.08405         130.838         35.9304 
        1.09979         130.186         34.7966 
        1.11537         125.849         33.7237 
        1.13105         125.353         32.6904 
        1.14679         124.204          31.697 
        1.16256         122.114         30.7436 
        1.17828         119.035         29.8332 
        1.19395          117.78         28.9633 
         1.2097         115.347         28.1242 
        1.22537         114.819         27.3228 
          1.241          112.21         26.5556 
        1.25666         110.119         25.8164 
        1.27241          108.68         25.1022 
        1.28819         107.025         24.4143 
        1.30392         105.753         23.7545 
        1.31957         104.048         23.1223 
        1.33529         102.102         22.5112 
        1.35108         100.978         21.9201 
        1.36674         99.8693         21.3547 
         1.3824         97.9247         20.8101 
        1.39811         96.8941          20.283 
        1.41389         95.3518         19.7723 
        1.42964         94.1756         19.2803 
        1.44531          91.986         18.8077 
        1.46101          91.023         18.3502 
        1.47667         90.4321         17.9094 
        1.49229         88.5839         17.4845 
        1.50793         87.7817         17.0732 
        1.52367         86.7449         16.6725 
        1.53953         85.3356         16.2823 
        1.55526          84.437         15.9078 
        1.57092         83.8418         15.5468 
        1.58662         82.1216         15.1962 
        1.60235         81.4683          14.856 
        1.61809         80.1908         14.5262 
        1.63369          78.976         14.2094 
        1.64941         78.2083         13.8999 
        1.66519         76.7009         13.5987 
        1.68085         76.0064         13.3087 
        1.69652         74.6096         13.0271 
        1.71228         74.2012         12.7522 
        1.72806         73.1815         12.4851 
        1.74368         72.3293         12.2285 
        1.75933          71.401         11.9786 
        1.77505         70.6703         11.7347 
        1.79081         69.4091         11.4972 
         1.8065         68.9152         11.2673 
        1.82218         67.7258         11.0441 
        1.83797         67.2644         10.8254 
        1.85367         66.2475          10.614 
        1.86928         65.8905         10.4095 
        1.88497         64.6074         10.2094 
        1.90073         63.7391         10.0139 
        1.91647         63.4464         9.82369 
        1.93218         62.3849         9.63892 
        1.94787         61.6024         9.45924 
        1.96363         60.7023         9.28348 
        1.97935         60.4407          9.1126 
        1.99499         59.4105         8.94705 
        2.01064         59.1489         8.78543 
         2.0264          57.755         8.62682 
        2.04216         57.2945         8.47226 
        2.05781         56.5933         8.32251 
        2.07353         55.9782         8.17589 
        2.08928         55.2187         8.03253 
        2.10499         54.8348         7.89303 
        2.12065         54.1756          7.7573 
        2.13633         53.7587         7.62469 
        2.15211         53.3033         7.49436 
        2.16785         52.2949         7.36747 
        2.18349         51.9372         7.24436 
        2.19916         51.2896         7.12383 
        2.21489         50.8393         7.00568 
        2.23063         50.1103         6.89016 
         2.2463         49.6241          6.7778 
        2.26194         48.7029         6.66825 
        2.27765         48.2559         6.56059 
        2.29341         47.7605         6.45506 
        2.30914         47.0873         6.35209 
        2.32486         46.4707         6.25146 
        2.34061         46.0599         6.15286 
        2.35635         45.5895          6.0565 
        2.37203         44.9663         5.96256 
        2.38768         44.5897         5.87084 
        2.40339         44.1717         5.78073 
        2.41914         43.7727         5.69233 
        2.43483         43.1287         5.60611 
         2.4505         42.6432         5.52184 
        2.46622         42.2849         5.43903 
        2.48195         41.8215         5.35794 
        2.49759         41.2365         5.27895 
        2.51328         40.6569         5.20137 
        2.52906          40.432         5.12487 
        2.54479         39.7893         5.05022 
        2.56049         39.3345         4.97721 
        2.57618         38.9446         4.90573 
        2.59189         38.5261         4.83556 
        2.60758         38.2363         4.76689 
        2.62325         37.7666         4.69965 
        2.63898         37.3879         4.63349 
        2.65468         36.8307         4.56875 
        2.67044         36.4661         4.50499 
        2.68618         36.1758         4.44261 
        2.70184         35.7613         4.38167 
        2.71755         35.5357         4.32174 
        2.73329         34.9688         4.26284 
        2.74897         34.6108         4.20525 
        2.76462         34.1237         4.14886 
        2.78034         33.9255         4.09329 
        2.79607         33.5013         4.03869 
        2.81179         33.2224         3.98515 
        2.82749         32.8962         3.93266 
        2.84321         32.5132         3.88106 
        2.85893         32.1001         3.83042 
        2.87462         31.7471         3.78078 
        2.89033         31.5083         3.73198 
        2.90605          31.218         3.68401 
        2.92176          30.998         3.63691 
        2.93747         30.5732         3.59068 
        2.95318         30.1586         3.54524 
        2.96891         29.9359         3.50058 
        2.98456         29.5848          3.4569 
        3.00023         29.2997          3.4139 
        3.01596         28.9384         3.37152 
        3.03164         28.8068         3.32998 
        3.04738         28.5535         3.28902 
         3.0631         28.1701         3.24878 
        3.07883         27.8868         3.20921 
        3.09456         27.5805         3.17032 
        3.11026          27.324         3.13214 
        3.12596         27.0671          3.0946 
        3.14163         26.7522         3.05777 
        3.15734         26.5205         3.02145 
        3.17308         26.1984         2.98565 
        3.18879         25.9608         2.95053 
        3.20447         25.7426         2.91603 
         3.2202         25.4433         2.88199 
         3.2359         25.1768         2.84855 
        3.25157         25.0871         2.81573 
        3.26729         24.8244         2.78333 
        3.28304         24.4575         2.75139 
        3.29877         24.1771         2.71999 
        3.31446          24.005         2.68916 
        3.33014         23.7877         2.65884 
        3.34585         23.6003         2.62894 
        3.36158         23.3037         2.59946 
        3.37727          23.077         2.57053 
        3.39294         22.9418         2.54208 
        3.40867         22.6843         2.51395 
        3.42439         22.4215         2.48628 
        3.44008         22.2231         2.45907 
        3.45578         22.0919         2.43226 
        3.47153         21.7393          2.4058 
        3.48724         21.5622         2.37977 
        3.50292         21.4072          2.3542 
        3.51859         21.1995         2.32902 
        3.53431         20.9952         2.30414 
        3.55007         20.7751         2.27956 
        3.56577         20.5708         2.25544 
        3.58146         20.4343         2.23168 
        3.59719         20.1536         2.20821 
        3.61292         19.9782         2.18509 
        3.62859         19.8009          2.1624 
        3.64429         19.6346         2.13999 
        3.66003          19.493         2.11782 
        3.67578         19.2515         2.09599 
        3.69146         19.0801         2.07455 
        3.70712         18.8829         2.05345 
        3.72284         18.8016         2.03257 
        3.73853         18.5314         2.01201 
        3.75422         18.3663         1.99174 
        3.76993         18.2507         1.97173 
        3.78564         18.0345         1.95201 
        3.80137          17.899         1.93253 
        3.81707         17.7208         1.91336 
        3.83279         17.5933         1.89443 
        3.84853         17.3793         1.87574 
        3.86424         17.2573         1.85733 
        3.87992         17.1222          1.8392 
        3.89561         16.9116         1.82132 
        3.91134         16.7669         1.80364 
        3.92704         16.6661         1.78621 
        3.94273         16.4937         1.76904 
        3.95845         16.3306         1.75206 
        3.97418         16.1971         1.73531 
        3.98988         16.0535          1.7188 
        4.00554         15.9092         1.70255 
        4.02125         15.7483         1.68647 
        4.03698         15.6562         1.67057 
        4.05268         15.4685         1.65491 
        4.06839         15.3485         1.63945 
         4.0841         15.2255         1.62419 
        4.09983          15.049          1.6091 
        4.11555          14.934         1.59422 
        4.13124         14.8511         1.57957 
        4.14693         14.6533         1.56509 
        4.16266         14.5676         1.55075 
        4.17839          14.433         1.53661 
        4.19408         14.2534         1.52268 
        4.20977         14.2057         1.50892 
        4.22551         14.0776          1.4953 
        4.24123         13.9449         1.48186 
        4.25691         13.8276         1.46863 
        4.27259         13.6973         1.45555 
        4.28831          13.542         1.44261 
        4.30404         13.4977         1.42981 
        4.31974           13.33          1.4172 
        4.33543         13.2267         1.40475 
        4.35116         13.1344         1.39242 
        4.36688         13.0325         1.38025 
        4.38255         12.8994         1.36827 
        4.39825          12.778          1.3564 
        4.41398         12.7295         1.34466 
         4.4297          12.569         1.33306 
        4.44541         12.4859         1.32161 
        4.46111         12.3586          1.3103 
        4.47683         12.2693         1.29912 
        4.49251         12.1803         1.28809 
        4.50819         12.0618          1.2772 
         4.5239         11.9891         1.26641 
        4.53962         11.8568         1.25574 
        4.55535         11.7685         1.24519 
        4.57106         11.6717         1.23478 
        4.58678         11.5731         1.22448 
         4.6025         11.4691          1.2143 
        4.61821         11.3936         1.20424 
        4.63391          11.292          1.1943 
         4.6496         11.2084         1.18449 
        4.66532         11.0942         1.17477 
        4.68103         11.0128         1.16516 
        4.69673         10.9344         1.15567 
        4.71241          10.829          1.1463 
        4.72811         10.7438         1.13702 
        4.74384          10.672         1.12783 
        4.75955         10.5767         1.11875 
        4.77525         10.4849         1.10979 
        4.79096         10.4127         1.10091 
        4.80669         10.3423         1.09212 
         4.8224         10.2319         1.08344 
        4.83809         10.1579         1.07487 
        4.85379         10.1009         1.06638 
         4.8695         10.0169         1.05798 
        4.88521         9.91577         1.04968 
        4.90093         9.84618         1.04146 
        4.91663         9.77621         1.03334 
        4.93234         9.69466          1.0253 
        4.94807         9.62935         1.01734 
        4.96377         9.53125         1.00948 
        4.97943         9.45987         1.00172 
        4.99514         9.38768        0.994021 
        5.01086         9.33749        0.986399 
        5.02654         9.27767        0.978878 
        5.04227         9.18173        0.971414 
          5.058         9.09423        0.964025 
        5.07371         9.05397        0.956728 
        5.08942         8.97417        0.949506 
        5.10513         8.90277        0.942359 
        5.12084         8.83694        0.935283 
        5.13656         8.78011        0.928281 
        5.15225         8.69733        0.921364 
        5.16796         8.63871        0.914507 
        5.18369         8.58016        0.907714 
         5.1994         8.49697        0.901003 
        5.21509         8.44077        0.894366 
        5.23079         8.37366         0.88779 
        5.24649         8.32298        0.881285 
        5.26217         8.25471        0.874851 
        5.27788         8.18986        0.868472 
        5.29359         8.14205        0.862156 
        5.30933         8.05884        0.855895 
        5.32504         8.01178        0.849707 
        5.34073          7.9665        0.843588 
        5.35646         7.88933        0.837517 
        5.37218          7.8371        0.831506 
        5.38789         7.78478        0.825564 
        5.40357         7.73462        0.819687 
        5.41929         7.67393        0.813855 
        5.43502         7.59547         0.80808 
         5.4507         7.55476        0.802375 
        5.46639         7.50571        0.796724 
        5.48212         7.45434        0.791116 
        5.49786         7.40291        0.785555 
        5.51353         7.35012        0.780076 
        5.52921         7.28804        0.774645 
        5.54495         7.23936        0.769249 
        5.56066          7.1845        0.763912 
        5.57637         7.13237        0.758626 
        5.59207         7.10097        0.753395 
        5.60778         7.02698        0.748212 
        5.62346         6.98819        0.743086 
        5.63916         6.93379        0.738003 
        5.65487         6.89321        0.732966 
         5.6706         6.82462        0.727971 
        5.68633         6.77883         0.72302 
        5.70203         6.75487        0.718126 
        5.71773         6.69151        0.713279 
        5.73344          6.6392        0.708475 
        5.74916         6.60851         0.70371 
        5.76486         6.57128        0.698997 
        5.78054         6.50802        0.694334 
        5.79626         6.46383        0.689701 
          5.812         6.41886        0.685106 
         5.8277         6.37929        0.680567 
        5.84339         6.33282         0.67607 
        5.85911         6.29363        0.671605 
        5.87484          6.2518        0.667181 
        5.89053          6.2109        0.662807 
        5.90623         6.16133         0.65847 
        5.92195         6.11556        0.654164 
        5.93767         6.08507          0.6499 
        5.95336          6.0346        0.645682 
        5.96905         5.99073        0.641503 
        5.98476         5.95627        0.637355 
        6.00048         5.92471        0.633243 
        6.01617         5.87406        0.629173 
        6.03185         5.83616        0.625144 
        6.04756         5.79943        0.621141 
        6.06331         5.75814        0.617165 
        6.07903         5.71823        0.613233 
        6.09473         5.68797        0.609338 
        6.11044         5.64358        0.605475 
        6.12616         5.61473        0.601646 
        6.14186         5.57797        0.597854 
        6.15755         5.54223        0.594095 
        6.17326         5.50311        0.590366 
        6.18898         5.45276        0.586668 
        6.20467         5.42118        0.583008 
        6.22036         5.39039         0.57938 
         6.2361         5.34608        0.575774 
         6.2518         5.32435        0.572204 
        6.26748         5.29181        0.568673 
        6.28319         5.23828        0.565162 
        6.29893         5.21423        0.561678 
        6.31463         5.18288         0.55823 
        6.33033         5.14842        0.554812 
        6.34604         5.11759         0.55142 
        6.36177         5.09146        0.548054 
        6.37747         5.05785        0.544722 
