# k  (h/Mpc)    Pcb(k)  (Mpc/h)^3    Pcb_linear(k) (Mpc/h)^3   ShotnoiseSubtracted = true
      0.0200456         7677.46         7826.92 
      0.0350414         5626.44         5761.38 
      0.0492313         4345.38         4378.23 
      0.0637834         3792.52         3749.41 
      0.0800726         2932.06         2886.88 
       0.096163         2073.84         2110.79 
       0.111083         1733.62         1793.95 
       0.126058         1603.53         1600.12 
       0.142273         1330.53         1288.09 
       0.158546         1109.07         1036.01 
        0.17375         934.211         928.401 
       0.188953         890.427         836.321 
       0.204907          814.95         708.454 
       0.220756         693.055         608.455 
        0.23588         621.094         554.341 
         0.2514         547.571         503.346 
       0.267535         519.291         442.312 
       0.283568         472.993         393.481 
       0.299022         441.592          361.04 
       0.314451         409.797         331.002 
       0.330372         378.658         299.039 
       0.346141         342.568         272.358 
       0.361624         328.795         251.781 
       0.377134         308.664         232.868 
       0.392932         286.862         214.212 
       0.408854         275.681         197.733 
       0.424564         264.459         183.951 
       0.440253         251.523         171.384 
       0.455999         237.136         159.547 
       0.471626         219.541         148.971 
        0.48727         214.319         139.596 
       0.502856          206.19         131.034 
       0.518488         202.182         123.051 
       0.534347          192.04         115.648 
       0.550082         179.012         108.984 
       0.565732         174.488          102.88 
       0.581496         166.677         97.1749 
       0.597222         161.849         91.9157 
       0.612804         154.887          87.118 
       0.628434         151.358         82.6581 
       0.644267         146.242         78.4589 
       0.660051         143.713         74.5644 
       0.675724         139.753         70.9602 
       0.691403         135.576          67.595 
       0.707174         130.142         64.4325 
       0.722871         128.427         61.4881 
        0.73838         125.977         58.7623 
       0.754018         120.499         56.1839 
       0.769845         118.231         53.7347 
        0.78569         115.457         51.4317 
       0.801365         112.316         49.2886 
       0.817031         108.434          47.271 
       0.832809         107.079         45.3553 
       0.848511         103.644          43.556 
       0.864097         100.835         41.8682 
       0.879701         99.7743         40.2697 
       0.895507         97.3598         38.7369 
       0.911279         96.1188         37.2883 
        0.92691         93.7504         35.9269 
       0.942635         91.2569          34.627 
       0.958396         90.8211         33.3896 
       0.974128         88.4531         32.2158 
       0.989692         86.2539         31.1109 
        1.00528         84.7616          30.057 
        1.02113         83.2346         29.0362 
        1.03692         80.8034         28.0673 
        1.05264         80.4618         27.1478 
        1.06832         78.4915         26.2715 
        1.08405         77.4747         25.4322 
        1.09979         76.6919         24.6297 
        1.11537         73.9622         23.8703 
        1.13105         74.2928         23.1388 
        1.14679         72.8333         22.4357 
        1.16256         71.6132         21.7609 
        1.17828         69.6901         21.1165 
        1.19395         69.2394         20.5007 
         1.2097         67.4287         19.9068 
        1.22537         67.5027         19.3396 
          1.241         65.7605         18.7966 
        1.25666         64.5442         18.2733 
        1.27241         64.0189         17.7678 
        1.28819         62.6619         17.2809 
        1.30392         61.6562         16.8138 
        1.31957         61.1465         16.3664 
        1.33529         60.2622         15.9339 
        1.35108         59.7975         15.5155 
        1.36674         58.8759         15.1153 
         1.3824         57.4732         14.7298 
        1.39811         57.1603         14.3567 
        1.41389         56.1731         13.9952 
        1.42964         55.3771          13.647 
        1.44531         54.7119         13.3124 
        1.46101         53.5282         12.9886 
        1.47667         53.4958         12.6766 
        1.49229         52.8073         12.3759 
        1.50793         51.8913         12.0847 
        1.52367         51.1639         11.8011 
        1.53953         50.7926         11.5249 
        1.55526         49.9925         11.2598 
        1.57092         49.5926         11.0043 
        1.58662         48.8979         10.7562 
        1.60235         48.3124         10.5154 
        1.61809         47.4883         10.2819 
        1.63369         46.7837         10.0577 
        1.64941         46.1776         9.83863 
        1.66519         45.5742         9.62541 
        1.68085          45.233         9.42011 
        1.69652         44.6055         9.22082 
        1.71228          44.387         9.02624 
        1.72806          43.725         8.83719 
        1.74368         43.1174         8.65553 
        1.75933         42.6319         8.47868 
        1.77505         42.2242         8.30601 
        1.79081         41.5865          8.1379 
         1.8065         41.1459         7.97523 
        1.82218         40.7111         7.81721 
        1.83797         40.1769         7.66244 
        1.85367         39.5571         7.51277 
        1.86928         39.3463         7.36804 
        1.88497         38.8138         7.22639 
        1.90073         38.5282         7.08799 
        1.91647         38.0428         6.95339 
        1.93218         37.5723          6.8226 
        1.94787         37.1879         6.69542 
        1.96363         36.8391         6.57102 
        1.97935         36.4088         6.45007 
        1.99499         35.9125         6.33289 
        2.01064         35.6175         6.21849 
         2.0264          35.086         6.10622 
        2.04216         34.6172         5.99682 
        2.05781         34.3178         5.89083 
        2.07353         33.9712         5.78705 
        2.08928         33.8532         5.68557 
        2.10499         33.4117         5.58683 
        2.12065         32.9204         5.49076 
        2.13633          32.723          5.3969 
        2.15211         32.1071         5.30464 
        2.16785          31.755         5.21483 
        2.18349         31.6601         5.12769 
        2.19916         31.3287         5.04238 
        2.21489         30.7928         4.95875 
        2.23063         30.6379         4.87698 
         2.2463         30.3599         4.79745 
        2.26194         29.9802         4.71991 
        2.27765         29.6792         4.64371 
        2.29341         29.3393         4.56901 
        2.30914         29.1922         4.49613 
        2.32486         28.7189          4.4249 
        2.34061          28.535         4.35511 
        2.35635         28.1817          4.2869 
        2.37203         27.9205         4.22041 
        2.38768         27.6262         4.15549 
        2.40339         27.5153         4.09171 
        2.41914         27.1758         4.02913 
        2.43483         26.7777         3.96811 
         2.4505          26.539         3.90846 
        2.46622         26.2989         3.84985 
        2.48195          26.055         3.79245 
        2.49759         25.7529         3.73654 
        2.51328         25.5113         3.68163 
        2.52906         25.3336         3.62748 
        2.54479         24.9814         3.57464 
        2.56049         24.6795         3.52296 
        2.57618         24.4284         3.47237 
        2.59189         24.2936          3.4227 
        2.60758         24.1046         3.37409 
        2.62325         23.7579          3.3265 
        2.63898         23.6762         3.27967 
        2.65468         23.3347         3.23385 
        2.67044         23.1104         3.18872 
        2.68618          22.887         3.14456 
        2.70184           22.69         3.10143 
        2.71755         22.4925           3.059 
        2.73329         22.2552         3.01732 
        2.74897         21.9325         2.97655 
        2.76462         21.9468         2.93664 
        2.78034         21.6541         2.89731 
        2.79607         21.4384         2.85866 
        2.81179         21.2627         2.82076 
        2.82749         21.0412         2.78361 
        2.84321         20.8715         2.74709 
        2.85893         20.6439         2.71124 
        2.87462           20.41          2.6761 
        2.89033         20.3049         2.64156 
        2.90605         20.1517         2.60761 
        2.92176         19.8194         2.57427 
        2.93747         19.7584         2.54155 
        2.95318         19.4983         2.50939 
        2.96891         19.3444         2.47778 
        2.98456         19.1301         2.44686 
        3.00023         19.0184         2.41642 
        3.01596         18.8217         2.38642 
        3.03164         18.6666         2.35702 
        3.04738         18.4419         2.32803 
         3.0631         18.2727         2.29954 
        3.07883         18.1424         2.27154 
        3.09456         17.9991         2.24401 
        3.11026         17.8357         2.21699 
        3.12596          17.605         2.19041 
        3.14163         17.5413         2.16434 
        3.15734         17.2822         2.13864 
        3.17308         17.1651          2.1133 
        3.18879         17.0064         2.08844 
        3.20447         16.8446         2.06402 
         3.2202         16.6738         2.03992 
         3.2359         16.5678         2.01626 
        3.25157         16.4499         1.99303 
        3.26729         16.2882         1.97009 
        3.28304         16.1399         1.94748 
        3.29877         15.9512         1.92526 
        3.31446         15.7879         1.90344 
        3.33014         15.6544         1.88197 
        3.34585         15.4822         1.86081 
        3.36158         15.3875         1.83995 
        3.37727         15.2227         1.81947 
        3.39294         15.0865         1.79933 
        3.40867         14.9659         1.77942 
        3.42439         14.8179         1.75983 
        3.44008          14.735         1.74058 
        3.45578         14.5982          1.7216 
        3.47153         14.4716         1.70287 
        3.48724         14.3605         1.68445 
        3.50292         14.1721         1.66635 
        3.51859         14.0917         1.64852 
        3.53431         13.9886         1.63091 
        3.55007         13.8611         1.61351 
        3.56577          13.749         1.59644 
        3.58146         13.6434         1.57962 
        3.59719         13.4671         1.56301 
        3.61292         13.3898         1.54665 
        3.62859         13.2328         1.53059 
        3.64429         13.1102         1.51472 
        3.66003         13.0209         1.49904 
        3.67578         12.9465         1.48358 
        3.69146         12.8161          1.4684 
        3.70712         12.6703         1.45347 
        3.72284         12.5935         1.43869 
        3.73853         12.4483         1.42414 
        3.75422         12.3906         1.40979 
        3.76993         12.2836         1.39563 
        3.78564         12.1398         1.38167 
        3.80137         12.0421         1.36788 
        3.81707         11.9134         1.35431 
        3.83279         11.8495         1.34091 
        3.84853         11.7434         1.32768 
        3.86424         11.6116         1.31465 
        3.87992         11.5616         1.30182 
        3.89561         11.4685         1.28916 
        3.91134         11.3937         1.27665 
        3.92704         11.2416         1.26432 
        3.94273         11.1512         1.25216 
        3.95845         11.0903         1.24014 
        3.97418         10.9963         1.22828 
        3.98988         10.8958          1.2166 
        4.00554         10.8216          1.2051 
        4.02125          10.675         1.19371 
        4.03698         10.6315         1.18246 
        4.05268         10.5391         1.17138 
        4.06839         10.4347         1.16043 
         4.0841         10.3859         1.14963 
        4.09983         10.2638         1.13895 
        4.11555         10.1725         1.12842 
        4.13124          10.114         1.11805 
        4.14693         10.0154          1.1078 
        4.16266         9.94901         1.09765 
        4.17839         9.85396         1.08764 
        4.19408         9.78826         1.07778 
        4.20977         9.70133         1.06804 
        4.22551         9.64514          1.0584 
        4.24123         9.56453         1.04889 
        4.25691          9.4747         1.03952 
        4.27259          9.3903         1.03026 
        4.28831         9.32485          1.0211 
        4.30404         9.23861         1.01205 
        4.31974         9.18275         1.00312 
        4.33543         9.07433        0.994309 
        4.35116         9.01322        0.985583 
        4.36688         8.95337        0.976966 
        4.38255         8.89295        0.968485 
        4.39825         8.79901        0.960087 
        4.41398         8.74696        0.951773 
         4.4297          8.6776        0.943568 
        4.44541         8.60708        0.935461 
        4.46111         8.52959        0.927457 
        4.47683         8.46138        0.919542 
        4.49251         8.39544        0.911737 
        4.50819         8.34654        0.904025 
         4.5239         8.29123        0.896392 
        4.53962         8.22101        0.888838 
        4.55535         8.13789        0.881369 
        4.57106          8.0766        0.873997 
        4.58678         7.99886        0.866709 
         4.6025         7.94201        0.859503 
        4.61821         7.90024        0.852381 
        4.63391         7.84646         0.84535 
         4.6496         7.75738        0.838401 
        4.66532         7.71277        0.831521 
        4.68103         7.63966        0.824722 
        4.69673         7.59345        0.818006 
        4.71241         7.56338        0.811373 
        4.72811         7.46795        0.804802 
        4.74384         7.41756        0.798297 
        4.75955         7.36774        0.791875 
        4.77525         7.30527        0.785527 
        4.79096         7.25323        0.779242 
        4.80669          7.2142        0.773023 
         4.8224         7.16738         0.76688 
        4.83809         7.07253        0.760811 
        4.85379         7.02053        0.754805 
         4.8695         6.97985        0.748859 
        4.88521         6.92838         0.74298 
        4.90093         6.88718        0.737164 
        4.91663         6.82944        0.731417 
        4.93234         6.76461        0.725725 
        4.94807         6.72182         0.72009 
        4.96377           6.674        0.714527 
        4.97943         6.62877        0.709034 
        4.99514         6.57946        0.703586 
        5.01086         6.53121        0.698192 
        5.02654          6.4665        0.692868 
        5.04227         6.42741        0.687585 
          5.058         6.39929        0.682354 
        5.07371         6.35034         0.67719 
        5.08942         6.29102        0.672078 
        5.10513          6.2304        0.667019 
        5.12084         6.20556         0.66201 
        5.13656         6.15599        0.657055 
        5.15225         6.11276        0.652158 
        5.16796         6.05747        0.647305 
        5.18369          6.0276        0.642496 
         5.1994         5.98334        0.637746 
        5.21509         5.93825        0.633049 
        5.23079         5.89727        0.628394 
        5.24649         5.85523         0.62379 
        5.26217         5.81123        0.619235 
        5.27788         5.77205         0.61472 
        5.29359         5.73546         0.61025 
        5.30933         5.68888        0.605819 
        5.32504         5.64699        0.601439 
        5.34073         5.60888        0.597107 
        5.35646         5.57231         0.59281 
        5.37218         5.53479        0.588555 
        5.38789         5.50095        0.584349 
        5.40357         5.45787         0.58019 
        5.41929         5.42353        0.576061 
        5.43502         5.38768        0.571974 
         5.4507         5.34723        0.567935 
        5.46639         5.29849        0.563936 
        5.48212         5.25492        0.559966 
        5.49786         5.24639        0.556031 
        5.51353         5.18608        0.552153 
        5.52921         5.16665        0.548308 
        5.54495         5.13014        0.544489 
        5.56066         5.09501        0.540711 
        5.57637         5.05622        0.536969 
        5.59207         5.01217        0.533267 
        5.60778          4.9874        0.529599 
        5.62346         4.95182         0.52597 
        5.63916         4.92868        0.522372 
        5.65487         4.87764        0.518807 
         5.6706         4.86121        0.515271 
        5.68633         4.82479        0.511767 
        5.70203         4.78858        0.508303 
        5.71773         4.75846        0.504872 
        5.73344         4.72551        0.501471 
        5.74916         4.70097        0.498099 
        5.76486         4.65818        0.494763 
        5.78054         4.62428        0.491462 
        5.79626         4.60194        0.488183 
          5.812         4.56759        0.484931 
         5.8277         4.54108        0.481718 
        5.84339         4.51952        0.478535 
        5.85911         4.48671        0.475374 
        5.87484         4.45079        0.472243 
        5.89053         4.42612        0.469147 
        5.90623         4.40525        0.466077 
        5.92195         4.36081         0.46303 
        5.93767         4.34161        0.460011 
        5.95336         4.31013        0.457025 
        5.96905         4.28262        0.454067 
        5.98476         4.25474        0.451131 
        6.00048         4.22282        0.448221 
        6.01617         4.20498         0.44534 
        6.03185         4.17133        0.442488 
        6.04756         4.15173        0.439655 
        6.06331         4.12326        0.436841 
        6.07903          4.0967        0.434057 
        6.09473         4.06888        0.431301 
        6.11044         4.03898        0.428566 
        6.12616         4.03045        0.425856 
        6.14186         3.99175        0.423172 
        6.15755         3.97233        0.420512 
        6.17326          3.9541        0.417872 
        6.18898         3.92118        0.415254 
        6.20467         3.89682        0.412664 
        6.22036         3.87629        0.410096 
         6.2361         3.84753        0.407543 
         6.2518         3.82794        0.405017 
        6.26748         3.80232        0.402517 
        6.28319         3.77744        0.400032 
        6.29893         3.75395        0.397566 
        6.31463         3.73302        0.395125 
        6.33033         3.70949        0.392706 
        6.34604         3.68678        0.390305 
        6.36177         3.66638        0.387923 
        6.37747         3.64219        0.385565 
