# k  (h/Mpc)    Pcb(k)  (Mpc/h)^3    Pcb_linear(k) (Mpc/h)^3   ShotnoiseSubtracted = true
      0.0200456         2378.61         2417.92 
      0.0350414         1762.27         1779.83 
      0.0492313         1352.72         1352.54 
      0.0637834         1167.26         1158.28 
      0.0800726         902.855         891.824 
       0.096163         648.395         652.073 
       0.111083         543.989         554.194 
       0.126058         495.673         494.314 
       0.142273         406.368          397.92 
       0.158546         329.697         320.048 
        0.17375         285.533         286.805 
       0.188953         264.206         258.359 
       0.204907         235.443         218.858 
       0.220756         198.503         187.966 
        0.23588         179.125         171.249 
         0.2514         160.221         155.495 
       0.267535         145.022          136.64 
       0.283568         130.785         121.555 
       0.299022         121.016         111.534 
       0.314451          108.93         102.254 
       0.330372         100.551         92.3802 
       0.346141         91.3967         84.1378 
       0.361624         85.7879         77.7811 
       0.377134         80.9402         71.9385 
       0.392932         71.8695         66.1752 
       0.408854         69.2884         61.0843 
       0.424564         65.6239         56.8267 
       0.440253         60.6639         52.9444 
       0.455999         57.3079         49.2877 
       0.471626         53.6908         46.0205 
        0.48727          51.353         43.1246 
       0.502856         48.2901         40.4793 
       0.518488         46.2383         38.0133 
       0.534347         44.4307         35.7264 
       0.550082          40.762         33.6678 
       0.565732         38.1686         31.7821 
       0.581496         37.3973         30.0196 
       0.597222         36.1676         28.3949 
       0.612804         33.8236         26.9128 
       0.628434         32.6974          25.535 
       0.644267         31.8592         24.2378 
       0.660051         30.2547         23.0347 
       0.675724         28.7624         21.9213 
       0.691403          27.869         20.8817 
       0.707174         26.9494         19.9047 
       0.722871         25.8908         18.9951 
        0.73838          25.027         18.1531 
       0.754018         24.0826         17.3565 
       0.769845         23.2921         16.5999 
        0.78569         22.5979         15.8885 
       0.801365         21.7579         15.2264 
       0.817031         21.2114         14.6031 
       0.832809         20.7781         14.0113 
       0.848511         19.5335         13.4555 
       0.864097         19.1783         12.9341 
       0.879701         18.6834         12.4402 
       0.895507         18.0628         11.9667 
       0.911279         17.6568         11.5192 
        0.92691          17.173         11.0987 
       0.942635         16.4776         10.6971 
       0.958396         16.1145         10.3148 
       0.974128         15.6769         9.95221 
       0.989692         15.5511         9.61089 
        1.00528         15.0793         9.28532 
        1.02113         14.4802         8.96995 
        1.03692         14.1986         8.67064 
        1.05264         13.8824         8.38657 
        1.06832         13.5888         8.11588 
        1.08405         13.1591         7.85661 
        1.09979         12.8846         7.60868 
        1.11537         12.6938         7.37408 
        1.13105         12.3819         7.14813 
        1.14679         12.1785         6.93092 
        1.16256         11.7882         6.72245 
        1.17828         11.7241         6.52338 
        1.19395         11.3048         6.33316 
         1.2097         11.1011         6.14967 
        1.22537         10.8296         5.97445 
          1.241         10.6919         5.80669 
        1.25666         10.5207         5.64505 
        1.27241         10.2414         5.48889 
        1.28819         10.0269         5.33846 
        1.30392         9.92692         5.19419 
        1.31957         9.72306         5.05597 
        1.33529         9.56116         4.92234 
        1.35108         9.30623         4.79309 
        1.36674         9.27504         4.66946 
         1.3824         8.96779         4.55038 
        1.39811         8.86177         4.43511 
        1.41389         8.72462         4.32344 
        1.42964         8.60746         4.21586 
        1.44531         8.46742         4.11253 
        1.46101         8.28692         4.01248 
        1.47667         8.15318         3.91611 
        1.49229         8.07069          3.8232 
        1.50793          7.8726         3.73325 
        1.52367         7.79872         3.64564 
        1.53953         7.65559          3.5603 
        1.55526         7.53796         3.47842 
        1.57092         7.48143         3.39948 
        1.58662         7.31106         3.32284 
        1.60235         7.22648         3.24844 
        1.61809          7.1067         3.17631 
        1.63369         6.99025         3.10705 
        1.64941         6.91427         3.03938 
        1.66519         6.83433         2.97351 
        1.68085          6.7057         2.91009 
        1.69652         6.59768         2.84853 
        1.71228         6.52123         2.78842 
        1.72806         6.44261         2.73001 
        1.74368         6.32469          2.6739 
        1.75933         6.27679         2.61926 
        1.77505         6.18959         2.56592 
        1.79081         6.06074         2.51399 
         1.8065         6.02628         2.46373 
        1.82218         5.94929         2.41492 
        1.83797         5.89878         2.36711 
        1.85367         5.78965         2.32087 
        1.86928         5.75305         2.27616 
        1.88497         5.64939          2.2324 
        1.90073         5.56084         2.18965 
        1.91647         5.51174         2.14806 
        1.93218         5.46129         2.10766 
        1.94787         5.40406         2.06837 
        1.96363          5.3344         2.02994 
        1.97935         5.25921         1.99258 
        1.99499         5.17549         1.95638 
        2.01064          5.1391         1.92104 
         2.0264         5.07141         1.88636 
        2.04216         5.03296         1.85256 
        2.05781         4.96512         1.81981 
        2.07353         4.90615         1.78775 
        2.08928         4.87262         1.75641 
        2.10499         4.81051          1.7259 
        2.12065         4.77095         1.69622 
        2.13633         4.70883         1.66723 
        2.15211         4.65031         1.63873 
        2.16785          4.6043         1.61098 
        2.18349         4.55973         1.58406 
        2.19916           4.483         1.55771 
        2.21489         4.46798         1.53187 
        2.23063         4.40113         1.50661 
         2.2463         4.37016         1.48204 
        2.26194         4.31565         1.45809 
        2.27765         4.29385         1.43455 
        2.29341         4.23628         1.41147 
        2.30914         4.19859         1.38896 
        2.32486         4.16242         1.36695 
        2.34061         4.13052         1.34539 
        2.35635         4.06358         1.32432 
        2.37203         4.05057         1.30378 
        2.38768          4.0051         1.28373 
        2.40339         3.97022         1.26402 
        2.41914         3.91768         1.24469 
        2.43483          3.9044         1.22584 
         2.4505         3.84077         1.20741 
        2.46622         3.83422         1.18931 
        2.48195         3.77262         1.17158 
        2.49759         3.74971          1.1543 
        2.51328         3.71583         1.13734 
        2.52906         3.70438         1.12061 
        2.54479         3.64795         1.10429 
        2.56049         3.62414         1.08833 
        2.57618         3.58124          1.0727 
        2.59189         3.57909         1.05735 
        2.60758         3.53134         1.04234 
        2.62325         3.50212         1.02763 
        2.63898         3.45676         1.01317 
        2.65468          3.4323        0.999011 
        2.67044         3.40775        0.985069 
        2.68618         3.37978        0.971428 
        2.70184         3.34525        0.958103 
        2.71755         3.32996        0.944998 
        2.73329         3.29482         0.93212 
        2.74897         3.28253        0.919527 
        2.76462         3.24357        0.907198 
        2.78034         3.22188        0.895045 
        2.79607         3.18202        0.883106 
        2.81179          3.1698          0.8714 
        2.82749         3.13953        0.859922 
        2.84321         3.11422         0.84864 
        2.85893         3.09894        0.837566 
        2.87462         3.06854        0.826711 
        2.89033         3.04413         0.81604 
        2.90605         3.02015        0.805551 
        2.92176         2.99372        0.795254 
        2.93747         2.97197        0.785143 
        2.95318         2.94965        0.775209 
        2.96891         2.93467        0.765443 
        2.98456         2.90965        0.755891 
        3.00023         2.88821         0.74649 
        3.01596         2.86512        0.737221 
        3.03164         2.84305        0.728138 
        3.04738         2.82404        0.719183 
         3.0631          2.7975        0.710383 
        3.07883         2.78556        0.701732 
        3.09456         2.76428        0.693228 
        3.11026         2.74223        0.684879 
        3.12596          2.7226         0.67667 
        3.14163         2.69895        0.668616 
        3.15734         2.68783        0.660676 
        3.17308         2.66326        0.652847 
        3.18879         2.65621        0.645168 
        3.20447         2.63791        0.637625 
         3.2202         2.61192         0.63018 
         3.2359         2.59697        0.622869 
        3.25157         2.58146        0.615692 
        3.26729         2.55202        0.608608 
        3.28304         2.55136        0.601623 
        3.29877         2.52241        0.594758 
        3.31446         2.50205        0.588016 
        3.33014         2.49684        0.581385 
        3.34585         2.48111        0.574848 
        3.36158         2.46145        0.568403 
        3.37727         2.44261        0.562077 
        3.39294         2.42378        0.555855 
        3.40867         2.40223        0.549706 
        3.42439         2.39648        0.543654 
        3.44008         2.38407        0.537705 
        3.45578         2.37387        0.531843 
        3.47153         2.35008        0.526055 
        3.48724         2.33638        0.520365 
        3.50292         2.32274        0.514774 
        3.51859         2.30981        0.509268 
        3.53431         2.29163        0.503826 
        3.55007         2.27763        0.498452 
        3.56577          2.2631        0.493177 
        3.58146         2.25557        0.487982 
        3.59719         2.24167        0.482851 
        3.61292         2.22841        0.477796 
        3.62859         2.20966        0.472834 
        3.64429         2.19595        0.467933 
        3.66003         2.18258        0.463087 
        3.67578         2.16959        0.458312 
        3.69146         2.15878        0.453624 
        3.70712         2.13735         0.44901 
        3.72284          2.1306        0.444444 
        3.73853         2.11671         0.43995 
        3.75422          2.1093        0.435517 
        3.76993          2.0934        0.431142 
        3.78564         2.08058         0.42683 
        3.80137         2.06347         0.42257 
        3.81707         2.05392        0.418378 
        3.83279         2.04093         0.41424 
        3.84853         2.03529        0.410152 
        3.86424         2.01597        0.406127 
        3.87992         2.01269        0.402163 
        3.89561         1.99564        0.398253 
        3.91134         1.98798        0.394386 
        3.92704         1.97169        0.390577 
        3.94273         1.96759        0.386821 
        3.95845          1.9526        0.383109 
        3.97418         1.94296        0.379446 
        3.98988         1.92705        0.375835 
        4.00554         1.90994        0.372282 
        4.02125         1.91084        0.368765 
        4.03698         1.89209        0.365289 
        4.05268         1.88031        0.361866 
        4.06839         1.86811        0.358485 
         4.0841         1.86045        0.355148 
        4.09983         1.84465        0.351849 
        4.11555         1.83295        0.348595 
        4.13124         1.82516         0.34539 
        4.14693         1.80909        0.342224 
        4.16266         1.79668        0.339091 
        4.17839         1.78607        0.335999 
        4.19408         1.77736        0.332953 
        4.20977          1.7661        0.329943 
        4.22551         1.75445        0.326965 
        4.24123          1.7473        0.324026 
        4.25691         1.73001        0.321132 
        4.27259         1.72681        0.318273 
        4.28831         1.71259        0.315443 
        4.30404         1.70701        0.312645 
        4.31974         1.69066        0.309888 
        4.33543         1.68581        0.307165 
        4.35116         1.67842         0.30447 
        4.36688         1.66077        0.301807 
        4.38255         1.65199        0.299188 
        4.39825         1.64344        0.296593 
        4.41398         1.63848        0.294025 
         4.4297         1.63123         0.29149 
        4.44541         1.61989        0.288986 
        4.46111         1.61172        0.286513 
        4.47683         1.60747        0.284068 
        4.49251          1.5945        0.281657 
        4.50819         1.59038        0.279274 
         4.5239         1.58022        0.276916 
        4.53962         1.57199        0.274583 
        4.55535          1.5617        0.272275 
        4.57106         1.55706        0.269998 
        4.58678         1.54747        0.267747 
         4.6025         1.54096         0.26552 
        4.61821         1.53258         0.26332 
        4.63391         1.52384        0.261148 
         4.6496         1.51689        0.259002 
        4.66532         1.51195        0.256876 
        4.68103         1.50606        0.254776 
        4.69673         1.49772        0.252701 
        4.71241          1.4906        0.250652 
        4.72811         1.48498        0.248622 
        4.74384         1.47381        0.246613 
        4.75955          1.4696        0.244629 
        4.77525         1.46027        0.242668 
        4.79096         1.45571        0.240726 
        4.80669         1.44679        0.238805 
         4.8224         1.44461        0.236907 
        4.83809         1.43698        0.235032 
        4.85379         1.43091        0.233177 
         4.8695         1.42488         0.23134 
        4.88521         1.41753        0.229524 
        4.90093         1.41109        0.227727 
        4.91663         1.40901        0.225952 
        4.93234         1.39752        0.224193 
        4.94807         1.39018        0.222453 
        4.96377         1.38668        0.220734 
        4.97943         1.38242        0.219037 
        4.99514         1.37527        0.217354 
        5.01086         1.37006        0.215688 
        5.02654         1.36674        0.214043 
        5.04227         1.35696        0.212411 
          5.058         1.35285        0.210795 
        5.07371         1.34924          0.2092 
        5.08942         1.33831        0.207621 
        5.10513         1.33571        0.206058 
        5.12084         1.33194         0.20451 
        5.13656         1.32834        0.202979 
        5.15225         1.32338        0.201467 
        5.16796         1.31649        0.199967 
        5.18369         1.31104        0.198482 
         5.1994         1.30605        0.197015 
        5.21509         1.30054        0.195564 
        5.23079         1.29818        0.194126 
        5.24649         1.29517        0.192703 
        5.26217          1.2833        0.191296 
        5.27788         1.28179        0.189902 
        5.29359         1.27837        0.188521 
        5.30933         1.27073        0.187151 
        5.32504         1.26807        0.185798 
        5.34073         1.26393         0.18446 
        5.35646         1.25815        0.183133 
        5.37218         1.25504        0.181818 
        5.38789         1.25164        0.180519 
        5.40357         1.24196        0.179234 
        5.41929         1.24215        0.177959 
        5.43502         1.23497        0.176696 
         5.4507         1.23097        0.175449 
        5.46639         1.22587        0.174213 
        5.48212         1.22371        0.172987 
        5.49786         1.21939        0.171771 
        5.51353         1.21423        0.170573 
        5.52921         1.20913        0.169385 
        5.54495         1.20626        0.168205 
        5.56066         1.20437        0.167038 
        5.57637          1.2019        0.165882 
        5.59207         1.19543        0.164739 
        5.60778         1.18827        0.163605 
        5.62346          1.1884        0.162484 
        5.63916         1.18366        0.161373 
        5.65487         1.18042        0.160272 
         5.6706         1.17779        0.159179 
        5.68633         1.17292        0.158097 
        5.70203         1.17061        0.157027 
        5.71773         1.16739        0.155967 
        5.73344         1.16128        0.154916 
        5.74916         1.15888        0.153874 
        5.76486         1.15469        0.152844 
        5.78054         1.15114        0.151824 
        5.79626         1.14721        0.150811 
          5.812          1.1442        0.149806 
         5.8277         1.14197        0.148814 
        5.84339          1.1367        0.147831 
        5.85911         1.13278        0.146854 
        5.87484         1.13253        0.145887 
        5.89053         1.12746         0.14493 
        5.90623         1.12457        0.143982 
        5.92195         1.12103        0.143041 
        5.93767         1.11705        0.142108 
        5.95336         1.11343        0.141186 
        5.96905         1.10974        0.140272 
        5.98476         1.10625        0.139365 
        6.00048           1.103        0.138466 
        6.01617         1.09871        0.137576 
        6.03185         1.09652        0.136695 
        6.04756         1.09418         0.13582 
        6.06331         1.09121         0.13495 
        6.07903         1.08939         0.13409 
        6.09473         1.08369        0.133239 
        6.11044         1.08351        0.132394 
        6.12616         1.07764        0.131557 
        6.14186         1.07543        0.130728 
        6.15755         1.07453        0.129906 
        6.17326         1.07118         0.12909 
        6.18898          1.0681        0.128282 
        6.20467         1.06391        0.127482 
        6.22036          1.0594        0.126688 
         6.2361         1.05958          0.1259 
         6.2518         1.05488        0.125119 
        6.26748         1.05192        0.124347 
        6.28319         1.04764        0.123579 
        6.29893         1.04576        0.122817 
        6.31463         1.04296        0.122063 
        6.33033         1.04099        0.121316 
        6.34604         1.03875        0.120574 
        6.36177         1.03438        0.119838 
        6.37747         1.03474         0.11911 
