# k  (h/Mpc)    Pcb(k)  (Mpc/h)^3    Pcb_linear(k) (Mpc/h)^3   ShotnoiseSubtracted = true
      0.0200456         4996.14          5069.9 
      0.0350414         3807.68         3731.95 
      0.0492313         2826.52            2836 
      0.0637834         2363.49         2428.69 
      0.0800726         1822.17         1869.98 
       0.096163         1402.56         1367.27 
       0.111083         1198.65         1162.04 
       0.126058          1020.3         1036.48 
       0.142273         835.262         834.361 
       0.158546          690.03         671.078 
        0.17375         623.606         601.373 
       0.188953         565.144         541.728 
       0.204907         468.248         458.902 
       0.220756         420.235         394.128 
        0.23588          380.48         359.075 
         0.2514         343.094         326.043 
       0.267535         320.611         286.508 
       0.283568         281.328         254.878 
       0.299022         266.071         233.864 
       0.314451         257.726         214.407 
       0.330372          224.68         193.703 
       0.346141         207.993          176.42 
       0.361624         195.993         163.092 
       0.377134          179.72         150.841 
       0.392932         175.087         138.756 
       0.408854         164.049         128.082 
       0.424564         157.026         119.154 
       0.440253         142.916         111.014 
       0.455999         133.226         103.347 
       0.471626         128.574         96.4961 
        0.48727         124.782         90.4238 
       0.502856         114.942         84.8772 
       0.518488         111.668         79.7064 
       0.534347         105.389         74.9113 
       0.550082          102.38         70.5948 
       0.565732         99.6593         66.6408 
       0.581496         92.4011         62.9452 
       0.597222         89.4971         59.5385 
       0.612804         86.7801         56.4308 
       0.628434         84.7074         53.5419 
       0.644267         80.3539         50.8219 
       0.660051         77.4843         48.2992 
       0.675724         75.3868         45.9646 
       0.691403         74.0378         43.7848 
       0.707174          71.681         41.7362 
       0.722871         69.7152          39.829 
        0.73838           67.05         38.0634 
       0.754018         63.6412         36.3932 
       0.769845         62.9605         34.8067 
        0.78569         60.8056          33.315 
       0.801365         59.3054         31.9268 
       0.817031         57.1355         30.6199 
       0.832809          56.262          29.379 
       0.848511         54.6554         28.2135 
       0.864097         53.6357         27.1202 
       0.879701         52.5659         26.0847 
       0.895507         50.7471         25.0919 
       0.911279         49.6546         24.1536 
        0.92691         48.4496         23.2717 
       0.942635         47.5392         22.4297 
       0.958396         47.0155         21.6281 
       0.974128         45.7869         20.8678 
       0.989692         44.3807         20.1521 
        1.00528            43.8         19.4695 
        1.02113         42.8183         18.8082 
        1.03692         42.2668         18.1806 
        1.05264         41.3169          17.585 
        1.06832         40.5375         17.0174 
        1.08405         39.5066         16.4738 
        1.09979         39.3405         15.9539 
        1.11537         38.1257          15.462 
        1.13105         37.3777         14.9882 
        1.14679         36.6885         14.5328 
        1.16256         36.2245         14.0957 
        1.17828          35.715         13.6782 
        1.19395           35.01         13.2794 
         1.2097         34.4886         12.8947 
        1.22537         33.8691         12.5273 
          1.241         33.2731         12.1755 
        1.25666         32.8747         11.8366 
        1.27241         32.4251         11.5091 
        1.28819          31.253         11.1937 
        1.30392         31.5877         10.8912 
        1.31957         30.8613         10.6014 
        1.33529         30.2481         10.3212 
        1.35108         29.9623         10.0502 
        1.36674         29.5797         9.79095 
         1.3824         29.0025         9.54125 
        1.39811         28.3709         9.29954 
        1.41389         28.1396         9.06541 
        1.42964         27.8673         8.83984 
        1.44531         27.3535         8.62316 
        1.46101         27.0576         8.41338 
        1.47667         26.7349          8.2113 
        1.49229         26.2103          8.0165 
        1.50793         25.9592         7.82788 
        1.52367         25.5877          7.6442 
        1.53953         25.3168         7.46526 
        1.55526         24.8756         7.29356 
        1.57092          24.764         7.12804 
        1.58662         24.4298         6.96733 
        1.60235         23.9959         6.81134 
        1.61809         23.8272         6.66011 
        1.63369         23.5238         6.51487 
        1.64941         23.2549         6.37299 
        1.66519         22.8033         6.23487 
        1.68085         22.4415         6.10189 
        1.69652           22.46          5.9728 
        1.71228          22.069         5.84676 
        1.72806         21.7381          5.7243 
        1.74368          21.562         5.60663 
        1.75933         21.3155         5.49208 
        1.77505         21.0969         5.38023 
        1.79081         20.8617         5.27134 
         1.8065         20.6222         5.16597 
        1.82218         20.4275         5.06361 
        1.83797         20.2935         4.96335 
        1.85367         20.1428         4.86641 
        1.86928         19.8751         4.77266 
        1.88497         19.6326         4.68091 
        1.90073          19.372         4.59126 
        1.91647         19.0432         4.50407 
        1.93218          19.095         4.41935 
        1.94787         18.7211         4.33697 
        1.96363           18.67         4.25639 
        1.97935         18.3567         4.17804 
        1.99499         18.1505         4.10214 
        2.01064         18.0281         4.02803 
         2.0264          17.766         3.95532 
        2.04216         17.7316         3.88445 
        2.05781          17.523         3.81579 
        2.07353         17.3267         3.74857 
        2.08928         17.1068         3.68284 
        2.10499            16.9         3.61888 
        2.12065          16.781         3.55665 
        2.13633         16.6509         3.49585 
        2.15211         16.4362         3.43609 
        2.16785         16.3467         3.37792 
        2.18349         16.1025         3.32147 
        2.19916         15.9676         3.26621 
        2.21489         15.8116         3.21204 
        2.23063         15.7349         3.15907 
         2.2463         15.4913         3.10756 
        2.26194         15.3675         3.05733 
        2.27765         15.1525         3.00797 
        2.29341         15.0293         2.95958 
        2.30914         14.9071         2.91237 
        2.32486         14.8093         2.86623 
        2.34061         14.6843         2.82103 
        2.35635         14.5333         2.77685 
        2.37203         14.3504         2.73378 
        2.38768          14.185         2.69172 
        2.40339         14.1436         2.65041 
        2.41914         13.9432         2.60988 
        2.43483         13.8277         2.57035 
         2.4505         13.7008         2.53171 
        2.46622         13.6179         2.49375 
        2.48195         13.5243         2.45657 
        2.49759         13.3054         2.42035 
        2.51328         13.3024         2.38478 
        2.52906         13.1126         2.34971 
        2.54479         12.9779         2.31548 
        2.56049         12.8409         2.28201 
        2.57618         12.7919         2.24923 
        2.59189         12.7408         2.21706 
        2.60758         12.5201         2.18557 
        2.62325         12.4488         2.15475 
        2.63898         12.3769         2.12441 
        2.65468         12.2085         2.09473 
        2.67044         12.1534          2.0655 
        2.68618         12.0355         2.03689 
        2.70184         11.9193         2.00895 
        2.71755         11.8337         1.98148 
        2.73329         11.6768         1.95447 
        2.74897         11.6253         1.92807 
        2.76462         11.5446         1.90222 
        2.78034         11.4084         1.87673 
        2.79607         11.3513          1.8517 
        2.81179         11.2198         1.82715 
        2.82749         11.1383         1.80309 
        2.84321         11.0678         1.77943 
        2.85893         10.9771         1.75621 
        2.87462         10.9036         1.73345 
        2.89033         10.7735         1.71108 
        2.90605         10.7013         1.68908 
        2.92176         10.5943         1.66749 
        2.93747         10.5214         1.64629 
        2.95318          10.425         1.62546 
        2.96891         10.3641         1.60498 
        2.98456         10.2641         1.58496 
        3.00023         10.1836         1.56524 
        3.01596         10.0499         1.54581 
        3.03164         10.0563         1.52676 
        3.04738         9.92353         1.50799 
         3.0631          9.8022         1.48953 
        3.07883         9.76789         1.47139 
        3.09456         9.70434         1.45356 
        3.11026         9.63408         1.43606 
        3.12596         9.52222         1.41884 
        3.14163         9.49578         1.40196 
        3.15734         9.37527         1.38531 
        3.17308          9.3239         1.36889 
        3.18879         9.24487         1.35279 
        3.20447         9.15183         1.33697 
         3.2202         9.09833         1.32136 
         3.2359         9.00759         1.30603 
        3.25157         8.98813         1.29099 
        3.26729         8.88782         1.27613 
        3.28304         8.81495         1.26149 
        3.29877         8.75106         1.24709 
        3.31446         8.69698         1.23295 
        3.33014         8.62085         1.21905 
        3.34585          8.5849         1.20534 
        3.36158         8.49926         1.19183 
        3.37727         8.43798         1.17857 
        3.39294         8.34519         1.16552 
        3.40867         8.31919         1.15262 
        3.42439         8.21607         1.13993 
        3.44008         8.15196         1.12746 
        3.45578         8.10455         1.11517 
        3.47153         8.01993         1.10304 
        3.48724         7.98825          1.0911 
        3.50292         7.90563         1.07938 
        3.51859         7.87771         1.06783 
        3.53431         7.80113         1.05642 
        3.55007         7.74104         1.04515 
        3.56577         7.65726          1.0341 
        3.58146         7.64873          1.0232 
        3.59719         7.56902         1.01244 
        3.61292         7.51106         1.00185 
        3.62859         7.45854         0.99144 
        3.64429         7.40597        0.981163 
        3.66003         7.35066        0.971003 
        3.67578         7.28584        0.960991 
        3.69146         7.24811         0.95116 
        3.70712          7.1958        0.941486 
        3.72284         7.11745        0.931912 
        3.73853          7.0879        0.922489 
        3.75422         7.01709        0.913194 
        3.76993         6.97322        0.904021 
        3.78564         6.93313        0.894978 
        3.80137         6.90006        0.886047 
        3.81707         6.80613        0.877256 
        3.83279         6.78225         0.86858 
        3.84853         6.71698        0.860007 
        3.86424         6.66041        0.851569 
        3.87992          6.6267        0.843257 
        3.89561         6.59582        0.835057 
        3.91134         6.52238        0.826951 
        3.92704         6.48059        0.818963 
        3.94273         6.43176        0.811089 
        3.95845         6.39694        0.803305 
        3.97418         6.34008        0.795623 
        3.98988         6.29888        0.788053 
        4.00554          6.2519        0.780603 
        4.02125         6.19814        0.773229 
        4.03698         6.16782         0.76594 
        4.05268          6.1025        0.758762 
        4.06839         6.06034        0.751672 
         4.0841         6.02081        0.744675 
        4.09983         5.97603        0.737759 
        4.11555         5.91752        0.730935 
        4.13124         5.88073        0.724216 
        4.14693         5.85771        0.717577 
        4.16266          5.8118        0.711006 
        4.17839         5.78024        0.704523 
        4.19408         5.72745        0.698136 
        4.20977         5.68301        0.691827 
        4.22551         5.64784        0.685581 
        4.24123         5.59681        0.679419 
        4.25691          5.5642        0.673351 
        4.27259         5.52113        0.667355 
        4.28831         5.46866        0.661422 
        4.30404         5.43074        0.655555 
        4.31974         5.39771        0.649773 
        4.33543         5.36009        0.644065 
        4.35116         5.32877        0.638413 
        4.36688         5.29177        0.632831 
        4.38255         5.25308        0.627337 
        4.39825         5.21538        0.621898 
        4.41398         5.18694        0.616513 
         4.4297         5.15869        0.611197 
        4.44541         5.11217        0.605947 
        4.46111         5.07846        0.600762 
        4.47683         5.02915        0.595635 
        4.49251         5.01483        0.590579 
        4.50819          4.9746        0.585583 
         4.5239         4.94795        0.580639 
        4.53962         4.89331        0.575746 
        4.55535         4.87146        0.570908 
        4.57106         4.84214        0.566133 
        4.58678         4.79691        0.561412 
         4.6025         4.78301        0.556744 
        4.61821          4.7327        0.552131 
        4.63391         4.69608        0.547577 
         4.6496         4.66833        0.543076 
        4.66532         4.63604        0.538619 
        4.68103         4.61014        0.534215 
        4.69673          4.5844        0.529865 
        4.71241         4.54844        0.525568 
        4.72811         4.52619        0.521312 
        4.74384         4.49054        0.517098 
        4.75955           4.455        0.512938 
        4.77525         4.42181        0.508826 
        4.79096         4.40743        0.504755 
        4.80669         4.37438        0.500727 
         4.8224         4.33118        0.496748 
        4.83809         4.32001        0.492817 
        4.85379         4.27256        0.488926 
         4.8695         4.25302        0.485074 
        4.88521           4.233        0.481267 
        4.90093         4.20509        0.477499 
        4.91663         4.17935        0.473776 
        4.93234         4.14572        0.470089 
        4.94807         4.12587         0.46644 
        4.96377         4.09169        0.462836 
        4.97943          4.0662        0.459278 
        4.99514         4.04264        0.455749 
        5.01086         4.01543        0.452255 
        5.02654          3.9846        0.448806 
        5.04227         3.95994        0.445384 
          5.058         3.94115        0.441996 
        5.07371         3.91364        0.438651 
        5.08942         3.88219         0.43534 
        5.10513          3.8602        0.432063 
        5.12084         3.83884        0.428818 
        5.13656         3.81507        0.425608 
        5.15225         3.79515        0.422437 
        5.16796         3.77108        0.419293 
        5.18369         3.73307        0.416178 
         5.1994         3.71817        0.413101 
        5.21509         3.68782        0.410058 
        5.23079         3.66933        0.407043 
        5.24649         3.64717        0.404061 
        5.26217         3.61822        0.401111 
        5.27788         3.59924        0.398186 
        5.29359          3.5839        0.395291 
        5.30933         3.56127         0.39242 
        5.32504         3.53795        0.389583 
        5.34073         3.51975        0.386777 
        5.35646         3.48819        0.383994 
        5.37218         3.47739        0.381238 
        5.38789         3.45435        0.378513 
        5.40357         3.42852        0.375819 
        5.41929         3.40816        0.373145 
        5.43502         3.38721        0.370497 
         5.4507          3.3614        0.367881 
        5.46639         3.34372        0.365291 
        5.48212         3.32282        0.362719 
        5.49786         3.30535         0.36017 
        5.51353         3.28779        0.357658 
        5.52921         3.26267        0.355167 
        5.54495         3.24761        0.352693 
        5.56066         3.22559        0.350246 
        5.57637         3.20672        0.347823 
        5.59207         3.18295        0.345425 
        5.60778         3.16891        0.343048 
        5.62346         3.15012        0.340698 
        5.63916         3.13087        0.338368 
        5.65487         3.11022        0.336058 
         5.6706         3.09525        0.333768 
        5.68633         3.07867        0.331498 
        5.70203         3.06166        0.329254 
        5.71773         3.03949        0.327032 
        5.73344         3.02295        0.324829 
        5.74916         3.00647        0.322644 
        5.76486         2.98825        0.320483 
        5.78054         2.97076        0.318346 
        5.79626         2.95471        0.316221 
          5.812         2.93149        0.314115 
         5.8277         2.91315        0.312034 
        5.84339         2.89541        0.309972 
        5.85911          2.8849        0.307924 
        5.87484         2.86849        0.305896 
        5.89053         2.85272        0.303891 
        5.90623         2.83131        0.301902 
        5.92195         2.82301        0.299928 
        5.93767          2.8048        0.297973 
        5.95336          2.7877        0.296039 
        5.96905         2.77203        0.294123 
        5.98476          2.7515        0.292221 
        6.00048         2.74142        0.290336 
        6.01617         2.71958         0.28847 
        6.03185         2.71011        0.286623 
        6.04756         2.69327        0.284787 
        6.06331         2.67817        0.282964 
        6.07903         2.66022        0.281161 
        6.09473         2.64682        0.279376 
        6.11044         2.63554        0.277604 
        6.12616            2.62        0.275849 
        6.14186         2.60463         0.27411 
        6.15755         2.59604        0.272387 
        6.17326         2.57876        0.270677 
        6.18898         2.56032        0.268982 
        6.20467         2.54917        0.267304 
        6.22036         2.53464         0.26564 
         6.2361         2.52279        0.263987 
         6.2518          2.5099         0.26235 
        6.26748         2.49079        0.260731 
        6.28319         2.48147        0.259121 
        6.29893         2.46742        0.257524 
        6.31463         2.45619        0.255943 
        6.33033         2.44641        0.254376 
        6.34604         2.42805        0.252821 
        6.36177         2.41929        0.251278 
        6.37747         2.40341         0.24975 
