# k  (h/Mpc)    Pcb(k)  (Mpc/h)^3    Pcb_linear(k) (Mpc/h)^3   ShotnoiseSubtracted = true
      0.0200456         18851.2         19321.5 
      0.0350414         13608.2         14222.5 
      0.0492313         10555.8         10808.1 
      0.0637834         9337.25         9255.78 
      0.0800726          7204.7         7126.53 
       0.096163         5028.29         5210.68 
       0.111083         4214.92         4428.54 
       0.126058         3911.95         3950.04 
       0.142273         3284.71         3179.77 
       0.158546         2883.15         2557.49 
        0.17375         2371.51         2291.84 
       0.188953         2312.67         2064.54 
       0.204907         2148.65         1748.89 
       0.220756         1869.78         1502.03 
        0.23588         1679.16         1368.44 
         0.2514         1466.48         1242.56 
       0.267535         1460.19         1091.89 
       0.283568         1327.58         971.344 
       0.299022         1255.77         891.261 
       0.314451         1197.46         817.109 
       0.330372         1102.05         738.206 
       0.346141         1047.37         672.342 
       0.361624         1007.25         621.545 
       0.377134         936.921         574.857 
       0.392932         903.139         528.803 
       0.408854         882.046         488.122 
       0.424564         820.355         454.099 
       0.440253         805.999         423.077 
       0.455999         772.777         393.856 
       0.471626          741.19         367.748 
        0.48727         713.343         344.607 
       0.502856         693.304         323.469 
       0.518488         685.328         303.762 
       0.534347         641.651         285.488 
       0.550082         623.005         269.038 
       0.565732         622.418         253.969 
       0.581496         586.781         239.885 
       0.597222         576.493         226.902 
       0.612804         562.978         215.059 
       0.628434         545.571         204.049 
       0.644267         531.239         193.683 
       0.660051         513.698         184.069 
       0.675724         509.993         175.172 
       0.691403         492.826         166.864 
       0.707174         476.698         159.058 
       0.722871         471.541         151.789 
        0.73838          463.01          145.06 
       0.754018         450.448         138.695 
       0.769845          439.96         132.649 
        0.78569          434.11         126.964 
       0.801365         421.911         121.674 
       0.817031         409.937         116.693 
       0.832809         406.354         111.964 
       0.848511         396.526         107.522 
       0.864097         385.853         103.356 
       0.879701          380.44         99.4094 
       0.895507         375.986         95.6256 
       0.911279         363.722         92.0496 
        0.92691         359.431          88.689 
       0.942635         350.929           85.48 
       0.958396         342.347         82.4253 
       0.974128         336.503         79.5277 
       0.989692         332.404         76.8002 
        1.00528         325.599         74.1986 
        1.02113         323.053         71.6785 
        1.03692         313.482         69.2867 
        1.05264         310.608         67.0168 
        1.06832         302.487         64.8537 
        1.08405         297.875         62.7818 
        1.09979         292.653         60.8007 
        1.11537         286.862          58.926 
        1.13105         280.949         57.1204 
        1.14679         277.224         55.3847 
        1.16256         271.113         53.7188 
        1.17828         268.447          52.128 
        1.19395         262.518          50.608 
         1.2097         260.431         49.1418 
        1.22537         253.493         47.7416 
          1.241         252.344          46.401 
        1.25666         246.185         45.1093 
        1.27241         243.176         43.8615 
        1.28819         238.973         42.6594 
        1.30392         233.497         41.5065 
        1.31957         233.597          40.402 
        1.33529         228.358         39.3342 
        1.35108         223.018         38.3014 
        1.36674         220.975         37.3135 
         1.3824          218.73         36.3619 
        1.39811         215.871         35.4407 
        1.41389         212.186         34.5484 
        1.42964          209.31         33.6888 
        1.44531         205.895          32.863 
        1.46101         203.228         32.0636 
        1.47667         199.175         31.2934 
        1.49229         197.096          30.551 
        1.50793          193.08         29.8322 
        1.52367         190.885         29.1322 
        1.53953         187.901         28.4502 
        1.55526         183.605         27.7959 
        1.57092         182.715         27.1651 
        1.58662         180.036         26.5526 
        1.60235         176.858         25.9581 
        1.61809         175.181         25.3818 
        1.63369         171.866         24.8283 
        1.64941         168.179         24.2876 
        1.66519         167.544         23.7612 
        1.68085         165.591         23.2544 
        1.69652         162.018         22.7624 
        1.71228         159.116         22.2821 
        1.72806         157.251         21.8154 
        1.74368         155.239          21.367 
        1.75933         152.638         20.9304 
        1.77505         151.037         20.5042 
        1.79081         149.669         20.0892 
         1.8065         147.366         19.6876 
        1.82218         144.779         19.2975 
        1.83797         143.805         18.9154 
        1.85367         141.413          18.546 
        1.86928         139.153         18.1887 
        1.88497         137.098          17.839 
        1.90073         135.995         17.4974 
        1.91647         134.018         17.1651 
        1.93218         132.153         16.8422 
        1.94787         130.436         16.5283 
        1.96363         127.975         16.2212 
        1.97935         126.677         15.9226 
        1.99499         124.546         15.6333 
        2.01064         123.424         15.3509 
         2.0264         121.534         15.0738 
        2.04216         119.962         14.8037 
        2.05781         118.754         14.5421 
        2.07353         117.382         14.2859 
        2.08928         114.911         14.0354 
        2.10499         113.466         13.7916 
        2.12065         112.073         13.5545 
        2.13633         111.406         13.3227 
        2.15211         108.777          13.095 
        2.16785         107.337         12.8733 
        2.18349         106.373         12.6582 
        2.19916         105.019         12.4476 
        2.21489         103.769         12.2411 
        2.23063         102.003         12.0393 
         2.2463         100.662          11.843 
        2.26194         99.5531         11.6515 
        2.27765         98.6348         11.4634 
        2.29341         97.3521          11.279 
        2.30914         96.0662         11.0991 
        2.32486         95.0459         10.9233 
        2.34061         93.5584          10.751 
        2.35635         92.4077         10.5826 
        2.37203         91.1659         10.4185 
        2.38768         90.0686         10.2582 
        2.40339         89.2865         10.1008 
        2.41914         88.0658         9.94629 
        2.43483         86.9045         9.79564 
         2.4505         85.8702          9.6484 
        2.46622         84.5356         9.50371 
        2.48195         83.6864         9.36201 
        2.49759         82.5388           9.224 
        2.51328         81.8457         9.08844 
        2.52906         80.3115         8.95477 
        2.54479         79.5873         8.82433 
        2.56049         78.6738         8.69676 
        2.57618         77.6834         8.57186 
        2.59189         76.8684         8.44925 
        2.60758         76.1148         8.32926 
        2.62325          74.933         8.21177 
        2.63898         73.9667         8.09617 
        2.65468         73.2849         7.98306 
        2.67044          72.188         7.87165 
        2.68618         71.3673         7.76264 
        2.70184         70.9391         7.65616 
        2.71755         70.1288         7.55144 
        2.73329         69.0412         7.44853 
        2.74897          68.391          7.3479 
        2.76462         67.4015         7.24938 
        2.78034         66.8498         7.15227 
        2.79607         65.6287         7.05686 
        2.81179         65.0832         6.96332 
        2.82749         64.2792          6.8716 
        2.84321         63.7868         6.78144 
        2.85893         62.9445         6.69295 
        2.87462         62.0418         6.60621 
        2.89033         61.2936         6.52094 
        2.90605         60.5346         6.43712 
        2.92176         60.1398         6.35484 
        2.93747         59.5642         6.27405 
        2.95318         58.7786         6.19466 
        2.96891         58.2701         6.11662 
        2.98456         57.5369         6.04029 
        3.00023         56.8426         5.96517 
        3.01596         56.4032          5.8911 
        3.03164          55.506         5.81852 
        3.04738         54.9608         5.74696 
         3.0631         54.4185         5.67664 
        3.07883         53.8102         5.60751 
        3.09456         53.2321         5.53955 
        3.11026         52.4457         5.47284 
        3.12596         52.0058         5.40724 
        3.14163         51.3647         5.34288 
        3.15734         50.9429         5.27943 
        3.17308         50.3419         5.21687 
        3.18879         49.8411         5.15551 
        3.20447         49.0081         5.09523 
         3.2202         48.8405         5.03574 
         3.2359         48.1349         4.97732 
        3.25157         47.7291         4.91997 
        3.26729         47.2443         4.86336 
        3.28304         46.6631         4.80754 
        3.29877         46.2231         4.75268 
        3.31446         45.7055         4.69881 
        3.33014         45.2848         4.64582 
        3.34585         44.8251         4.59359 
        3.36158         44.3545         4.54208 
        3.37727         43.9819         4.49153 
        3.39294         43.4618         4.44181 
        3.40867         43.0703         4.39267 
        3.42439         42.5328         4.34431 
        3.44008         42.1517         4.29678 
        3.45578         41.5534         4.24993 
        3.47153         41.1943         4.20369 
        3.48724         40.8323         4.15822 
        3.50292          40.509         4.11354 
        3.51859         40.0662         4.06954 
        3.53431          39.606         4.02605 
        3.55007         39.1566          3.9831 
        3.56577         38.9314         3.94096 
        3.58146         38.4301         3.89945 
        3.59719         37.9982         3.85844 
        3.61292         37.5532         3.81805 
        3.62859         37.3761         3.77839 
        3.64429         37.0564         3.73923 
        3.66003         36.5318         3.70051 
        3.67578         36.1364         3.66235 
        3.69146          35.845         3.62489 
        3.70712          35.599         3.58802 
        3.72284         35.1048         3.55153 
        3.73853          34.768         3.51562 
        3.75422         34.3998          3.4802 
        3.76993         34.1972         3.44524 
        3.78564         33.9623         3.41078 
        3.80137         33.5341         3.37674 
        3.81707         33.1377         3.34324 
        3.83279         33.0028         3.31017 
        3.84853         32.5579          3.2775 
        3.86424         32.1485         3.24534 
        3.87992          31.966         3.21367 
        3.89561         31.6906         3.18242 
        3.91134         31.2891         3.15153 
        3.92704         31.1361         3.12108 
        3.94273         30.7256         3.09107 
        3.95845         30.5222         3.06141 
        3.97418         30.2885         3.03213 
        3.98988         29.9144         3.00328 
        4.00554         29.6194         2.97489 
        4.02125         29.3819         2.94679 
        4.03698         29.1422         2.91901 
        4.05268         28.9033         2.89166 
        4.06839         28.5899         2.86463 
         4.0841         28.3794         2.83797 
        4.09983          28.099         2.81161 
        4.11555         27.8228         2.78561 
        4.13124         27.5336            2.76 
        4.14693         27.2381          2.7347 
        4.16266         27.0569         2.70966 
        4.17839         26.8609         2.68495 
        4.19408         26.5695         2.66061 
        4.20977         26.3649         2.63656 
        4.22551         26.2065         2.61276 
        4.24123         25.8827         2.58928 
        4.25691         25.6429         2.56615 
        4.27259           25.44          2.5433 
        4.28831         25.1719         2.52069 
        4.30404         24.9752         2.49833 
        4.31974         24.7742          2.4763 
        4.33543         24.5423         2.45454 
        4.35116         24.3526           2.433 
        4.36688         24.1468         2.41173 
        4.38255         23.8637         2.39079 
        4.39825         23.7332         2.37006 
        4.41398         23.4979         2.34954 
         4.4297         23.3043         2.32928 
        4.44541         23.0416         2.30927 
        4.46111         22.9098         2.28952 
        4.47683          22.737         2.26998 
        4.49251         22.5101         2.25071 
        4.50819           22.29         2.23167 
         4.5239         22.1561         2.21283 
        4.53962         21.9078         2.19418 
        4.55535         21.7703         2.17574 
        4.57106         21.5479         2.15754 
        4.58678          21.436         2.13955 
         4.6025         21.2403         2.12176 
        4.61821         21.0804         2.10418 
        4.63391         20.8628         2.08682 
         4.6496         20.6939         2.06967 
        4.66532         20.5051         2.05269 
        4.68103         20.3209          2.0359 
        4.69673         20.1851         2.01932 
        4.71241         20.0393         2.00295 
        4.72811         19.8444         1.98673 
        4.74384         19.6933         1.97067 
        4.75955         19.5437         1.95482 
        4.77525         19.3471         1.93915 
        4.79096         19.2362         1.92363 
        4.80669         19.0879         1.90828 
         4.8224         18.8896         1.89312 
        4.83809         18.7238         1.87813 
        4.85379         18.5479         1.86331 
         4.8695         18.4326         1.84863 
        4.88521         18.2831         1.83412 
        4.90093         18.1476         1.81976 
        4.91663         17.9738         1.80557 
        4.93234         17.8497         1.79152 
        4.94807         17.6949         1.77761 
        4.96377         17.5888         1.76388 
        4.97943         17.4438         1.75032 
        4.99514         17.2443         1.73687 
        5.01086         17.1492         1.72355 
        5.02654         17.0259         1.71041 
        5.04227         16.8932         1.69737 
          5.058         16.7135         1.68446 
        5.07371         16.6288         1.67171 
        5.08942         16.5208         1.65909 
        5.10513         16.3694          1.6466 
        5.12084         16.2054         1.63423 
        5.13656         16.0881           1.622 
        5.15225         15.9954         1.60991 
        5.16796         15.8803         1.59793 
        5.18369          15.738         1.58606 
         5.1994         15.6131         1.57434 
        5.21509         15.4628         1.56274 
        5.23079         15.3645         1.55125 
        5.24649          15.264         1.53988 
        5.26217         15.1477         1.52864 
        5.27788         14.9919         1.51749 
        5.29359         14.8722         1.50646 
        5.30933          14.778         1.49552 
        5.32504         14.6823         1.48471 
        5.34073         14.5766         1.47401 
        5.35646         14.4789         1.46341 
        5.37218          14.325          1.4529 
        5.38789         14.2143         1.44252 
        5.40357         14.1339         1.43225 
        5.41929          14.016         1.42206 
        5.43502         13.9101         1.41197 
         5.4507         13.8292           1.402 
        5.46639         13.7184         1.39213 
        5.48212         13.6032         1.38233 
        5.49786         13.5033         1.37261 
        5.51353         13.4149         1.36304 
        5.52921         13.3229         1.35355 
        5.54495         13.2552         1.34412 
        5.56066         13.1203         1.33479 
        5.57637         13.0277         1.32556 
        5.59207         12.9438         1.31642 
        5.60778         12.8473         1.30736 
        5.62346         12.7828         1.29841 
        5.63916          12.663         1.28953 
        5.65487         12.5498         1.28072 
         5.6706         12.4643         1.27199 
        5.68633         12.3883         1.26334 
        5.70203         12.3138         1.25479 
        5.71773         12.1912         1.24632 
        5.73344         12.1344         1.23793 
        5.74916         12.0325          1.2296 
        5.76486         11.9417         1.22137 
        5.78054         11.8773         1.21322 
        5.79626         11.7663         1.20513 
          5.812         11.6876          1.1971 
         5.8277         11.6132         1.18917 
        5.84339         11.5456         1.18131 
        5.85911         11.4539         1.17351 
        5.87484         11.3681         1.16578 
        5.89053         11.2904         1.15813 
        5.90623         11.2046         1.15055 
        5.92195          11.114         1.14303 
        5.93767         11.0358         1.13558 
        5.95336         10.9759         1.12821 
        5.96905         10.9071         1.12091 
        5.98476         10.8277         1.11366 
        6.00048         10.7219         1.10647 
        6.01617         10.6907         1.09936 
        6.03185          10.587         1.09232 
        6.04756         10.5176         1.08533 
        6.06331         10.4532         1.07838 
        6.07903         10.3543         1.07151 
        6.09473         10.3002         1.06471 
        6.11044         10.2279         1.05796 
        6.12616         10.1835         1.05127 
        6.14186         10.0986         1.04464 
        6.15755         10.0324         1.03807 
        6.17326         9.96046         1.03156 
        6.18898         9.90849         1.02509 
        6.20467         9.83172          1.0187 
        6.22036         9.74968         1.01236 
         6.2361          9.7035         1.00606 
         6.2518         9.64295        0.999821 
        6.26748         9.56422        0.993651 
        6.28319         9.50949        0.987516 
        6.29893         9.43945        0.981429 
        6.31463         9.36601        0.975403 
        6.33033         9.31384        0.969431 
        6.34604         9.27016        0.963505 
        6.36177         9.19065        0.957623 
        6.37747         9.13965        0.951802 
