# k  (h/Mpc)    Pcb(k)  (Mpc/h)^3    Pcb_linear(k) (Mpc/h)^3   ShotnoiseSubtracted = true
      0.0200456         3842.08         3897.87 
      0.0350414         2922.87         2869.21 
      0.0492313         2176.66         2180.39 
      0.0637834         1823.41         1867.24 
      0.0800726         1406.43         1437.69 
       0.096163         1076.51         1051.19 
       0.111083         919.206         893.403 
       0.126058         785.921         796.872 
       0.142273         641.183         641.478 
       0.158546         528.277         515.942 
        0.17375         477.101         462.351 
       0.188953         430.714         416.495 
       0.204907         356.415         352.816 
       0.220756         318.958         303.016 
        0.23588         288.829         276.066 
         0.2514         260.958          250.67 
       0.267535         241.298         220.275 
       0.283568         212.215         195.956 
       0.299022         199.585         179.801 
       0.314451         191.459         164.842 
       0.330372         167.974         148.924 
       0.346141         155.049         135.637 
       0.361624         145.273         125.389 
       0.377134         133.095          115.97 
       0.392932         129.381         106.679 
       0.408854         120.254         98.4725 
       0.424564         115.147         91.6089 
       0.440253         105.141         85.3504 
       0.455999         97.1682         79.4556 
       0.471626         93.0524         74.1886 
        0.48727         90.6245         69.5201 
       0.502856          83.971         65.2558 
       0.518488         80.4809         61.2803 
       0.534347          76.119         57.5937 
       0.550082         73.6167         54.2751 
       0.565732          71.371         51.2352 
       0.581496         66.5413         48.3939 
       0.597222         63.8423         45.7747 
       0.612804         61.7244         43.3855 
       0.628434         60.4467         41.1644 
       0.644267         57.2826         39.0732 
       0.660051         54.9822         37.1336 
       0.675724         53.0316         35.3387 
       0.691403         52.1995         33.6628 
       0.707174         50.4926         32.0879 
       0.722871         48.8946         30.6216 
        0.73838         46.7375         29.2641 
       0.754018          44.475           27.98 
       0.769845         43.7986         26.7603 
        0.78569         42.2822         25.6134 
       0.801365         41.1621         24.5461 
       0.817031           39.63         23.5413 
       0.832809         38.9682         22.5873 
       0.848511         37.7352         21.6912 
       0.864097         36.8677         20.8507 
       0.879701         36.2303         20.0546 
       0.895507         34.9518         19.2913 
       0.911279         33.8686         18.5699 
        0.92691         33.2855         17.8919 
       0.942635         32.6115         17.2445 
       0.958396         31.8913         16.6283 
       0.974128         31.0489         16.0437 
       0.989692         29.9397         15.4935 
        1.00528          29.701         14.9686 
        1.02113         28.8966         14.4602 
        1.03692          28.364         13.9777 
        1.05264           27.81         13.5198 
        1.06832         27.3196         13.0834 
        1.08405         26.5273         12.6654 
        1.09979         26.2011         12.2658 
        1.11537         25.4524         11.8876 
        1.13105         25.0799         11.5233 
        1.14679         24.4573         11.1732 
        1.16256         24.0995         10.8371 
        1.17828          23.742         10.5162 
        1.19395         23.3593         10.2095 
         1.2097         22.7882         9.91374 
        1.22537         22.4429         9.63127 
          1.241         22.0265         9.36083 
        1.25666         21.7773         9.10025 
        1.27241         21.3725         8.84851 
        1.28819         20.5928           8.606 
        1.30392         20.8443         8.37343 
        1.31957         20.2736         8.15061 
        1.33529         19.9257         7.93519 
        1.35108         19.7446         7.72682 
        1.36674         19.3365         7.52753 
         1.3824         19.0076         7.33555 
        1.39811          18.669         7.14973 
        1.41389         18.4456         6.96972 
        1.42964         18.2178         6.79629 
        1.44531         17.9391          6.6297 
        1.46101         17.6786         6.46842 
        1.47667         17.4472         6.31306 
        1.49229         17.0787         6.16329 
        1.50793         16.9123         6.01827 
        1.52367         16.7232         5.87706 
        1.53953          16.441         5.73948 
        1.55526         16.1806         5.60747 
        1.57092         16.1326         5.48022 
        1.58662         15.8889         5.35666 
        1.60235         15.6171         5.23673 
        1.61809         15.4787         5.12046 
        1.63369         15.2054          5.0088 
        1.64941         15.0663         4.89972 
        1.66519          14.806         4.79353 
        1.68085         14.5676         4.69129 
        1.69652         14.5744         4.59204 
        1.71228         14.2993         4.49514 
        1.72806         14.0803         4.40099 
        1.74368         13.9651         4.31052 
        1.75933         13.8361         4.22245 
        1.77505         13.6256         4.13646 
        1.79081         13.4793         4.05274 
         1.8065         13.4102         3.97173 
        1.82218         13.2458         3.89303 
        1.83797          13.091         3.81595 
        1.85367         12.9661         3.74142 
        1.86928         12.8033         3.66934 
        1.88497         12.6753          3.5988 
        1.90073         12.4855         3.52988 
        1.91647         12.2123         3.46284 
        1.93218         12.2086         3.39771 
        1.94787          11.997         3.33437 
        1.96363         11.9453         3.27242 
        1.97935         11.8597         3.21219 
        1.99499         11.7009         3.15383 
        2.01064         11.5751         3.09686 
         2.0264         11.3987         3.04095 
        2.04216         11.4515         2.98647 
        2.05781         11.2816         2.93368 
        2.07353         11.1345           2.882 
        2.08928         10.9522         2.83146 
        2.10499         10.8638         2.78229 
        2.12065         10.8264         2.73444 
        2.13633         10.6786          2.6877 
        2.15211          10.579         2.64175 
        2.16785         10.4283         2.59703 
        2.18349         10.3824         2.55363 
        2.19916         10.2443         2.51114 
        2.21489          10.176          2.4695 
        2.23063         10.1179         2.42878 
         2.2463         9.94772         2.38917 
        2.26194         9.86588         2.35055 
        2.27765         9.76653          2.3126 
        2.29341         9.62296          2.2754 
        2.30914         9.63206         2.23911 
        2.32486         9.49663         2.20363 
        2.34061         9.44198         2.16888 
        2.35635         9.32704         2.13491 
        2.37203          9.2403          2.1018 
        2.38768         9.15213         2.06947 
        2.40339         9.09737          2.0377 
        2.41914         9.00273         2.00654 
        2.43483         8.95558         1.97615 
         2.4505         8.86769         1.94644 
        2.46622         8.74759         1.91726 
        2.48195           8.748         1.88867 
        2.49759         8.57559         1.86083 
        2.51328         8.55606         1.83348 
        2.52906         8.45453         1.80651 
        2.54479          8.3745          1.7802 
        2.56049         8.32268         1.75446 
        2.57618         8.26319         1.72927 
        2.59189         8.24992         1.70453 
        2.60758         8.12879         1.68032 
        2.62325         8.04668         1.65662 
        2.63898         8.03993          1.6333 
        2.65468         7.92067         1.61048 
        2.67044         7.85782         1.58801 
        2.68618         7.77725         1.56602 
        2.70184         7.76721         1.54454 
        2.71755         7.65685         1.52341 
        2.73329         7.58062         1.50265 
        2.74897         7.55024         1.48235 
        2.76462         7.50004         1.46247 
        2.78034         7.43616         1.44288 
        2.79607         7.37485         1.42363 
        2.81179         7.31299         1.40476 
        2.82749         7.24213         1.38626 
        2.84321         7.20253         1.36807 
        2.85893         7.15209         1.35022 
        2.87462         7.09168         1.33272 
        2.89033         7.02298         1.31552 
        2.90605         6.97694         1.29861 
        2.92176         6.90733         1.28201 
        2.93747         6.86289         1.26571 
        2.95318         6.79641          1.2497 
        2.96891         6.75009         1.23395 
        2.98456         6.69899         1.21855 
        3.00023         6.67736          1.2034 
        3.01596         6.57575         1.18846 
        3.03164         6.54073         1.17381 
        3.04738         6.51204         1.15938 
         3.0631         6.46157         1.14519 
        3.07883         6.40884         1.13124 
        3.09456          6.3245         1.11754 
        3.11026         6.31145         1.10408 
        3.12596         6.25486         1.09084 
        3.14163         6.22313         1.07786 
        3.15734         6.17188         1.06506 
        3.17308         6.14136         1.05244 
        3.18879         6.09442         1.04006 
        3.20447         6.04202          1.0279 
         3.2202         5.98365          1.0159 
         3.2359         5.94349         1.00411 
        3.25157         5.91731        0.992543 
        3.26729         5.87022        0.981123 
        3.28304         5.82439        0.969862 
        3.29877         5.79392        0.958795 
        3.31446         5.76011        0.947926 
        3.33014         5.69294        0.937237 
        3.34585         5.67035        0.926699 
        3.36158         5.62081        0.916308 
        3.37727          5.5878        0.906111 
        3.39294         5.54991         0.89608 
        3.40867         5.51462        0.886167 
        3.42439         5.44476        0.876411 
        3.44008         5.41953        0.866822 
        3.45578         5.38757        0.857371 
        3.47153         5.34311        0.848041 
        3.48724         5.31501        0.838869 
        3.50292          5.2819        0.829854 
        3.51859          5.2388        0.820978 
        3.53431         5.20737        0.812206 
        3.55007         5.18238        0.803542 
        3.56577         5.11616        0.795039 
        3.58146         5.09349        0.786665 
        3.59719         5.06796        0.778393 
        3.61292         5.03899        0.770244 
        3.62859         5.00122        0.762244 
        3.64429         4.96224        0.754343 
        3.66003         4.93675        0.746531 
        3.67578         4.90943        0.738834 
        3.69146         4.86198        0.731276 
        3.70712         4.84195        0.723838 
        3.72284          4.8076        0.716477 
        3.73853         4.76598        0.709233 
        3.75422         4.73047        0.702087 
        3.76993         4.71771        0.695034 
        3.78564         4.68112        0.688082 
        3.80137          4.6377        0.681215 
        3.81707         4.61213        0.674457 
        3.83279         4.58667        0.667786 
        3.84853          4.5478        0.661196 
        3.86424         4.52703        0.654708 
        3.87992         4.49801        0.648318 
        3.89561         4.46345        0.642013 
        3.91134          4.4274        0.635781 
        3.92704          4.3934        0.629639 
        3.94273         4.37531        0.623586 
        3.95845         4.33854        0.617601 
        3.97418         4.32268        0.611695 
        3.98988         4.29723        0.605875 
        4.00554         4.26035        0.600147 
        4.02125         4.22576        0.594478 
        4.03698         4.20157        0.588874 
        4.05268         4.17247        0.583355 
        4.06839         4.14404        0.577904 
         4.0841         4.11986        0.572525 
        4.09983         4.08953        0.567208 
        4.11555         4.06029        0.561961 
        4.13124         4.04399        0.556796 
        4.14693         4.01895        0.551691 
        4.16266         3.98085         0.54664 
        4.17839         3.95939        0.541655 
        4.19408         3.93336        0.536745 
        4.20977         3.90885        0.531894 
        4.22551         3.88035        0.527092 
        4.24123         3.84514        0.522355 
        4.25691         3.83021        0.517689 
        4.27259         3.80741         0.51308 
        4.28831         3.76899        0.508518 
        4.30404         3.75939        0.504007 
        4.31974         3.73283        0.499562 
        4.33543         3.70401        0.495174 
        4.35116         3.68313        0.490828 
        4.36688         3.66571        0.486537 
        4.38255         3.64271        0.482313 
        4.39825         3.61645        0.478131 
        4.41398         3.60038        0.473991 
         4.4297         3.57407        0.469904 
        4.44541         3.54978        0.465867 
        4.46111         3.51319        0.461881 
        4.47683         3.49415        0.457939 
        4.49251         3.48627        0.454052 
        4.50819         3.45832        0.450211 
         4.5239         3.43195         0.44641 
        4.53962         3.40941        0.442648 
        4.55535         3.39317        0.438929 
        4.57106         3.36855        0.435257 
        4.58678         3.34769        0.431628 
         4.6025         3.33706        0.428039 
        4.61821         3.31438        0.424492 
        4.63391         3.28858        0.420991 
         4.6496         3.27031         0.41753 
        4.66532         3.25652        0.414104 
        4.68103           3.227        0.410718 
        4.69673         3.21433        0.407374 
        4.71241         3.19204         0.40407 
        4.72811         3.16986        0.400798 
        4.74384         3.16212        0.397558 
        4.75955         3.13264         0.39436 
        4.77525         3.11221        0.391199 
        4.79096         3.09807        0.388069 
        4.80669         3.08312        0.384972 
         4.8224         3.06163        0.381912 
        4.83809          3.0501         0.37889 
        4.85379         3.02127        0.375899 
         4.8695         3.00961        0.372938 
        4.88521         2.98873         0.37001 
        4.90093         2.97356        0.367114 
        4.91663         2.95816        0.364251 
        4.93234         2.94117        0.361417 
        4.94807         2.92564        0.358611 
        4.96377         2.90529         0.35584 
        4.97943         2.89382        0.353105 
        4.99514         2.86749        0.350391 
        5.01086         2.85083        0.347705 
        5.02654         2.83818        0.345054 
        5.04227         2.82575        0.342423 
          5.058         2.81138        0.339818 
        5.07371         2.79469        0.337246 
        5.08942         2.77149          0.3347 
        5.10513         2.76438        0.332181 
        5.12084         2.74212        0.329686 
        5.13656         2.72892        0.327218 
        5.15225         2.70971         0.32478 
        5.16796         2.69574        0.322363 
        5.18369         2.67797        0.319968 
         5.1994         2.66606        0.317603 
        5.21509         2.65458        0.315263 
        5.23079         2.64275        0.312945 
        5.24649         2.62553        0.310652 
        5.26217         2.60981        0.308384 
        5.27788         2.59772        0.306136 
        5.29359         2.58334        0.303909 
        5.30933         2.56967        0.301702 
        5.32504         2.55573        0.299521 
        5.34073         2.53554        0.297364 
        5.35646         2.52621        0.295224 
        5.37218         2.51411        0.293105 
        5.38789         2.49266         0.29101 
        5.40357         2.48605        0.288939 
        5.41929         2.47662        0.286883 
        5.43502         2.45981        0.284847 
         5.4507          2.4415        0.282836 
        5.46639         2.43116        0.280845 
        5.48212          2.4198        0.278868 
        5.49786         2.40609        0.276908 
        5.51353         2.39278        0.274976 
        5.52921         2.37888        0.273062 
        5.54495         2.36964         0.27116 
        5.56066         2.35336        0.269278 
        5.57637          2.3434        0.267415 
        5.59207         2.33278        0.265571 
        5.60778         2.32176        0.263744 
        5.62346         2.30178        0.261937 
        5.63916          2.2929        0.260146 
        5.65487         2.27858         0.25837 
         5.6706         2.27185        0.256609 
        5.68633         2.26224        0.254864 
        5.70203          2.2461        0.253139 
        5.71773         2.23519         0.25143 
        5.73344         2.22218        0.249737 
        5.74916         2.21303        0.248057 
        5.76486         2.20041        0.246396 
        5.78054         2.18784        0.244752 
        5.79626         2.17792        0.243119 
          5.812          2.1659        0.241499 
         5.8277         2.15976        0.239899 
        5.84339         2.14413        0.238314 
        5.85911         2.13391         0.23674 
        5.87484         2.12018        0.235181 
        5.89053         2.11913        0.233639 
        5.90623         2.10503         0.23211 
        5.92195         2.09177        0.230592 
        5.93767         2.08269        0.229089 
        5.95336         2.07672        0.227602 
        5.96905         2.06515        0.226129 
        5.98476         2.05277        0.224667 
        6.00048         2.04104        0.223218 
        6.01617         2.03311        0.221783 
        6.03185         2.02061        0.220363 
        6.04756           2.014        0.218952 
        6.06331         2.00505         0.21755 
        6.07903         1.99255        0.216164 
        6.09473         1.98046        0.214791 
        6.11044          1.9788        0.213429 
        6.12616         1.96448         0.21208 
        6.14186         1.95545        0.210743 
        6.15755         1.94317        0.209418 
        6.17326         1.93576        0.208104 
        6.18898         1.92655          0.2068 
        6.20467         1.91758         0.20551 
        6.22036         1.90984        0.204231 
         6.2361         1.90228         0.20296 
         6.2518         1.89403        0.201701 
        6.26748         1.88475        0.200457 
        6.28319          1.8754        0.199219 
        6.29893         1.86501        0.197991 
        6.31463         1.85835        0.196775 
        6.33033         1.84464        0.195571 
        6.34604         1.83705        0.194375 
        6.36177         1.83126        0.193189 
        6.37747         1.82498        0.192014 
