# k  (h/Mpc)    Pcb(k)  (Mpc/h)^3    Pcb_linear(k) (Mpc/h)^3   ShotnoiseSubtracted = true
      0.0200456         26141.3         26680.1 
      0.0350414           20256         19639.2 
      0.0492313         14443.1         14924.3 
      0.0637834         11918.1         12780.8 
      0.0800726         9134.72         9840.67 
       0.096163         7428.78         7195.17 
       0.111083         6320.14         6115.15 
       0.126058         5239.44         5454.42 
       0.142273          4505.2         4390.78 
       0.158546         3730.97         3531.51 
        0.17375         3441.03          3164.7 
       0.188953          3293.8         2850.82 
       0.204907         2821.46         2414.95 
       0.220756         2571.66         2074.08 
        0.23588         2318.64         1889.62 
         0.2514          2118.3         1715.78 
       0.267535         2029.86         1507.73 
       0.283568         1833.24         1341.28 
       0.299022         1751.61          1230.7 
       0.314451         1824.07         1128.31 
       0.330372         1652.77         1019.35 
       0.346141         1523.41         928.403 
       0.361624         1458.35         858.261 
       0.377134         1408.68         793.792 
       0.392932         1334.69         730.198 
       0.408854         1288.99         674.023 
       0.424564         1264.67         627.043 
       0.440253         1191.09         584.205 
       0.455999         1139.09         543.857 
       0.471626         1145.51         507.805 
        0.48727         1091.33          475.85 
       0.502856         1064.97         446.662 
       0.518488         1021.08          419.45 
       0.534347         988.703         394.217 
       0.550082         950.218         371.501 
       0.565732          928.37         350.694 
       0.581496         906.233         331.246 
       0.597222         896.653         313.318 
       0.612804         871.517         296.964 
       0.628434         838.806         281.761 
       0.644267         817.184         267.447 
       0.660051         806.138         254.172 
       0.675724         793.994         241.886 
       0.691403         761.194         230.415 
       0.707174         744.313         219.635 
       0.722871         739.229         209.598 
        0.73838         716.457         200.307 
       0.754018         707.551         191.517 
       0.769845         691.803         183.169 
        0.78569         675.063         175.318 
       0.801365         656.908         168.013 
       0.817031         646.738         161.136 
       0.832809          632.72         154.605 
       0.848511         618.934         148.472 
       0.864097         612.399         142.719 
       0.879701          613.14          137.27 
       0.895507         589.899         132.045 
       0.911279         585.128         127.107 
        0.92691         571.997         122.466 
       0.942635         562.232         118.035 
       0.958396         552.451         113.817 
       0.974128         540.534         109.816 
       0.989692         528.776          106.05 
        1.00528         520.549         102.457 
        1.02113         509.834         98.9773 
        1.03692         501.764         95.6746 
        1.05264         495.707         92.5401 
        1.06832         484.902         89.5532 
        1.08405         479.417         86.6923 
        1.09979          468.84         83.9566 
        1.11537          458.29          81.368 
        1.13105         451.759         78.8747 
        1.14679         443.293          76.478 
        1.16256         439.906         74.1777 
        1.17828         431.618          71.981 
        1.19395         423.488         69.8821 
         1.2097         415.161         67.8575 
        1.22537          409.81          65.924 
          1.241         401.329         64.0729 
        1.25666         395.467         62.2893 
        1.27241         392.952         60.5662 
        1.28819         382.602         58.9063 
        1.30392         378.697         57.3143 
        1.31957           371.7         55.7892 
        1.33529         367.034         54.3147 
        1.35108         366.224         52.8884 
        1.36674         355.996         51.5244 
         1.3824         347.954         50.2103 
        1.39811         345.426         48.9384 
        1.41389         340.175         47.7062 
        1.42964         333.804         46.5192 
        1.44531          328.12         45.3789 
        1.46101         318.988          44.275 
        1.47667         319.088         43.2115 
        1.49229         315.019         42.1864 
        1.50793         307.097         41.1938 
        1.52367         301.782         40.2272 
        1.53953         298.046         39.2855 
        1.55526         292.275          38.382 
        1.57092         288.672         37.5109 
        1.58662         284.137         36.6652 
        1.60235         279.499         35.8443 
        1.61809         275.763         35.0485 
        1.63369         271.418         34.2842 
        1.64941         268.068         33.5375 
        1.66519         263.617         32.8107 
        1.68085         258.291         32.1109 
        1.69652         254.983         31.4315 
        1.71228          251.21         30.7683 
        1.72806         247.733         30.1238 
        1.74368         244.543         29.5046 
        1.75933         241.502         28.9018 
        1.77505         236.903         28.3132 
        1.79081         233.504         27.7401 
         1.8065          231.55         27.1856 
        1.82218             226          26.647 
        1.83797          223.73         26.1194 
        1.85367         219.642         25.6092 
        1.86928         215.727         25.1159 
        1.88497         213.302          24.633 
        1.90073         211.749         24.1613 
        1.91647          207.89         23.7024 
        1.93218         204.283         23.2566 
        1.94787         200.482         22.8231 
        1.96363         199.153          22.399 
        1.97935         195.176         21.9867 
        1.99499         193.476         21.5873 
        2.01064         188.496         21.1973 
         2.0264          187.58         20.8146 
        2.04216         184.235         20.4417 
        2.05781         181.989         20.0804 
        2.07353         180.712         19.7266 
        2.08928         178.278         19.3807 
        2.10499         175.024         19.0442 
        2.12065         172.818         18.7167 
        2.13633         170.117         18.3967 
        2.15211         168.045         18.0822 
        2.16785         165.718         17.7761 
        2.18349         163.196         17.4791 
        2.19916         162.347         17.1882 
        2.21489         159.037         16.9032 
        2.23063         157.381         16.6245 
         2.2463         155.528         16.3533 
        2.26194         153.068          16.089 
        2.27765         151.074         15.8293 
        2.29341         148.936         15.5746 
        2.30914         146.862         15.3262 
        2.32486         145.599         15.0834 
        2.34061         142.904         14.8455 
        2.35635         140.653          14.613 
        2.37203         140.181         14.3864 
        2.38768         137.732          14.165 
        2.40339         135.854         13.9476 
        2.41914         134.316         13.7343 
        2.43483         132.921         13.5263 
         2.4505         131.041          13.323 
        2.46622         129.125         13.1232 
        2.48195         127.688         12.9275 
        2.49759         125.662          12.737 
        2.51328         124.165         12.5498 
        2.52906          123.05         12.3652 
        2.54479         121.369         12.1851 
        2.56049         119.854         12.0089 
        2.57618         118.452         11.8365 
        2.59189         117.386         11.6672 
        2.60758         116.359         11.5015 
        2.62325         114.353         11.3392 
        2.63898         112.284         11.1796 
        2.65468         111.624         11.0234 
        2.67044         110.428         10.8696 
        2.68618         108.477          10.719 
        2.70184         107.804          10.572 
        2.71755          105.79         10.4274 
        2.73329         104.877         10.2853 
        2.74897          103.28         10.1464 
        2.76462         102.368         10.0103 
        2.78034         101.141         9.87621 
        2.79607           100.2         9.74447 
        2.81179         98.8513          9.6153 
        2.82749         97.6029         9.48865 
        2.84321           96.51         9.36416 
        2.85893         95.5163         9.24197 
        2.87462         93.9712         9.12219 
        2.89033         93.2145         9.00445 
        2.90605          92.018         8.88871 
        2.92176         90.6857         8.77508 
        2.93747         90.1316         8.66352 
        2.95318          89.037          8.5539 
        2.96891         88.0644         8.44614 
        2.98456         86.7856         8.34074 
        3.00023         86.0727         8.23701 
        3.01596          85.007         8.13473 
        3.03164         84.3366          8.0345 
        3.04738          83.357         7.93569 
         3.0631         82.3686         7.83859 
        3.07883         81.4721         7.74313 
        3.09456         80.4837         7.64929 
        3.11026         79.8904         7.55717 
        3.12596         78.6366         7.46659 
        3.14163         77.8559         7.37772 
        3.15734         77.0539         7.29011 
        3.17308           76.05         7.20372 
        3.18879         75.6024         7.11899 
        3.20447         74.4662         7.03575 
         3.2202         73.5664         6.95361 
         3.2359         73.2988         6.87293 
        3.25157         72.5231         6.79374 
        3.26729         71.4522         6.71558 
        3.28304         70.7797          6.6385 
        3.29877         70.1195         6.56274 
        3.31446         69.5687         6.48835 
        3.33014          68.817         6.41519 
        3.34585         68.1189         6.34305 
        3.36158         67.2002         6.27193 
        3.37727         66.5962         6.20214 
        3.39294         65.8989         6.13348 
        3.40867         65.1455         6.06562 
        3.42439         64.1079         5.99885 
        3.44008         63.7009         5.93321 
        3.45578         63.4339         5.86852 
        3.47153         62.5213         5.80466 
        3.48724         61.9535         5.74188 
        3.50292          61.606         5.68018 
        3.51859         60.7507         5.61942 
        3.53431         60.0939         5.55938 
        3.55007         59.6562         5.50007 
        3.56577         59.0059         5.44187 
        3.58146         58.2773         5.38455 
        3.59719         57.8207         5.32793 
        3.61292         57.3218         5.27216 
        3.62859         56.6043          5.2174 
        3.64429         56.3591         5.16332 
        3.66003         55.6235         5.10985 
        3.67578         54.9847         5.05716 
        3.69146         54.5182         5.00543 
        3.70712         53.8193         4.95452 
        3.72284          53.604         4.90414 
        3.73853         52.9659         4.85455 
        3.75422         52.5088         4.80563 
        3.76993         51.9399         4.75736 
        3.78564          51.474         4.70978 
        3.80137         50.9637         4.66277 
        3.81707         50.3762         4.61651 
        3.83279         49.9725         4.57085 
        3.84853         49.6602         4.52574 
        3.86424         49.1859         4.48134 
        3.87992         48.5991          4.4376 
        3.89561         48.3081         4.39444 
        3.91134         47.8025         4.35179 
        3.92704         47.2466         4.30975 
        3.94273         46.7191         4.26831 
        3.95845         46.3203         4.22735 
        3.97418         46.0193         4.18692 
        3.98988         45.5951         4.14709 
        4.00554         45.0698         4.10788 
        4.02125          44.615         4.06907 
        4.03698          44.317         4.03072 
        4.05268         43.8616         3.99294 
        4.06839         43.4558         3.95563 
         4.0841         43.1048         3.91881 
        4.09983         42.6179         3.88242 
        4.11555         42.2445          3.8465 
        4.13124         41.9307         3.81115 
        4.14693         41.5983         3.77621 
        4.16266         41.3392         3.74163 
        4.17839         40.7881         3.70752 
        4.19408         40.4741          3.6739 
        4.20977         40.0716          3.6407 
        4.22551         39.6236         3.60783 
        4.24123         39.3803         3.57541 
        4.25691         38.9612         3.54347 
        4.27259         38.6489         3.51192 
        4.28831         38.3292          3.4807 
        4.30404         38.0964         3.44982 
        4.31974         37.7054          3.4194 
        4.33543         37.3026         3.38936 
        4.35116         37.0359         3.35961 
        4.36688         36.7594         3.33024 
        4.38255         36.3805         3.30133 
        4.39825         36.0568          3.2727 
        4.41398         35.7962         3.24436 
         4.4297         35.4484         3.21639 
        4.44541         35.1883         3.18876 
        4.46111         34.9102         3.16148 
        4.47683          34.554          3.1345 
        4.49251         34.3419         3.10789 
        4.50819         34.0777          3.0816 
         4.5239         33.7372         3.05558 
        4.53962         33.3425         3.02983 
        4.55535         33.1434         3.00437 
        4.57106         32.8704         2.97924 
        4.58678         32.5987          2.9544 
         4.6025         32.2882         2.92984 
        4.61821         31.9973         2.90556 
        4.63391         31.7319         2.88159 
         4.6496         31.4814         2.85791 
        4.66532         31.2189         2.83445 
        4.68103         30.9558         2.81128 
        4.69673         30.6042         2.78839 
        4.71241         30.4885         2.76577 
        4.72811         30.2325         2.74338 
        4.74384         29.9109          2.7212 
        4.75955         29.6816         2.69931 
        4.77525          29.431         2.67767 
        4.79096         29.2008         2.65625 
        4.80669         28.9692         2.63505 
         4.8224         28.7419         2.61411 
        4.83809         28.5316         2.59342 
        4.85379         28.2193         2.57295 
         4.8695         28.0501         2.55268 
        4.88521         27.7902         2.53264 
        4.90093         27.5913         2.51282 
        4.91663         27.3809         2.49322 
        4.93234            27.1         2.47382 
        4.94807         26.9767         2.45461 
        4.96377         26.7295         2.43565 
        4.97943         26.4618         2.41693 
        4.99514         26.2399         2.39835 
        5.01086         26.0673         2.37997 
        5.02654          25.852         2.36182 
        5.04227         25.6637         2.34381 
          5.058         25.4984         2.32598 
        5.07371         25.2756         2.30838 
        5.08942          25.091         2.29095 
        5.10513         24.8946         2.27371 
        5.12084           24.72         2.25663 
        5.13656         24.5094         2.23974 
        5.15225         24.2702         2.22305 
        5.16796         24.1212          2.2065 
        5.18369         23.8873         2.19011 
         5.1994         23.7275         2.17392 
        5.21509         23.5456         2.15791 
        5.23079         23.3355         2.14204 
        5.24649         23.1639         2.12635 
        5.26217         23.0143         2.11082 
        5.27788         22.7901         2.09543 
        5.29359         22.6441          2.0802 
        5.30933         22.4359         2.06509 
        5.32504         22.3771         2.05016 
        5.34073         22.1602         2.03539 
        5.35646         22.0125         2.02075 
        5.37218         21.8194         2.00624 
        5.38789         21.6103          1.9919 
        5.40357         21.4944         1.97773 
        5.41929         21.3251         1.96365 
        5.43502         21.1095         1.94972 
         5.4507          21.002         1.93595 
        5.46639         20.8414         1.92232 
        5.48212         20.6692         1.90879 
        5.49786          20.483         1.89537 
        5.51353         20.4144         1.88215 
        5.52921         20.2023         1.86905 
        5.54495         20.0507         1.85603 
        5.56066          19.932         1.84315 
        5.57637         19.7752          1.8304 
        5.59207         19.6546         1.81778 
        5.60778         19.5138         1.80527 
        5.62346         19.3536          1.7929 
        5.63916         19.1526         1.78064 
        5.65487         19.0574         1.76849 
         5.6706          18.917         1.75643 
        5.68633         18.7836         1.74449 
        5.70203         18.6225         1.73268 
        5.71773         18.5069         1.72099 
        5.73344         18.3855         1.70939 
        5.74916         18.2648          1.6979 
        5.76486         18.0947         1.68653 
        5.78054         17.9893         1.67528 
        5.79626         17.8586          1.6641 
          5.812         17.7544         1.65301 
         5.8277         17.5754         1.64206 
        5.84339         17.4559         1.63121 
        5.85911         17.3371         1.62044 
        5.87484         17.2243         1.60976 
        5.89053         17.0736         1.59921 
        5.90623         16.9506         1.58874 
        5.92195         16.8457         1.57836 
        5.93767         16.7189         1.56807 
        5.95336         16.5849         1.55789 
        5.96905         16.5132         1.54781 
        5.98476         16.3654          1.5378 
        6.00048         16.2687         1.52788 
        6.01617         16.1004         1.51806 
        6.03185         16.0344         1.50834 
        6.04756         15.9327         1.49868 
        6.06331         15.8283         1.48908 
        6.07903         15.7103          1.4796 
        6.09473         15.5876          1.4702 
        6.11044         15.4777         1.46088 
        6.12616         15.3938         1.45164 
        6.14186         15.2543         1.44249 
        6.15755         15.1975         1.43342 
        6.17326         15.0816         1.42443 
        6.18898         14.9657          1.4155 
        6.20467          14.856         1.40667 
        6.22036         14.7565         1.39792 
         6.2361         14.6611         1.38922 
         6.2518         14.5816          1.3806 
        6.26748         14.4566         1.37208 
        6.28319         14.3615         1.36361 
        6.29893          14.247         1.35521 
        6.31463         14.1502         1.34689 
        6.33033         14.0583         1.33864 
        6.34604         13.9853         1.33046 
        6.36177         13.8845         1.32233 
        6.37747         13.7812          1.3143 
