# k  (h/Mpc)    Pcb(k)  (Mpc/h)^3    Pcb_linear(k) (Mpc/h)^3   ShotnoiseSubtracted = true
      0.0200456           12536         12810.9 
      0.0350414         9120.42         9430.07 
      0.0492313         7061.86         7166.16 
      0.0637834         6205.02         6136.93 
      0.0800726          4792.9         4725.16 
       0.096163         3365.01         3454.88 
       0.111083         2813.15         2936.29 
       0.126058         2612.15         2619.03 
       0.142273         2180.67         2108.31 
       0.158546         1861.97         1695.71 
        0.17375         1545.89         1519.58 
       0.188953         1493.89         1368.87 
       0.204907         1380.31         1159.58 
       0.220756         1187.51         995.903 
        0.23588         1063.29          907.33 
         0.2514         930.369         823.862 
       0.267535         907.231         723.963 
       0.283568         826.369         644.038 
       0.299022         776.586          590.94 
       0.314451           734.8         541.775 
       0.330372         677.957         489.459 
       0.346141         623.002         445.788 
       0.361624          599.73         412.108 
       0.377134         558.165         381.152 
       0.392932         534.379         350.617 
       0.408854         515.041         323.643 
       0.424564         487.666         301.085 
       0.440253         475.148         280.516 
       0.455999         448.006         261.142 
       0.471626         420.694         243.831 
        0.48727         409.246         228.487 
       0.502856         396.642         214.472 
       0.518488         392.763         201.406 
       0.534347         367.934          189.29 
       0.550082         349.135         178.383 
       0.565732         347.303         168.391 
       0.581496         328.122         159.053 
       0.597222         321.929         150.445 
       0.612804         311.383         142.592 
       0.628434         299.859         135.292 
       0.644267         290.815         128.419 
       0.660051          285.77         122.045 
       0.675724         281.384         116.146 
       0.691403         272.979         110.638 
       0.707174         262.392         105.461 
       0.722871         259.608         100.642 
        0.73838         254.787         96.1805 
       0.754018         247.658         91.9602 
       0.769845         239.162         87.9514 
        0.78569         238.592          84.182 
       0.801365         230.895         80.6742 
       0.817031         224.099         77.3719 
       0.832809         220.883         74.2363 
       0.848511         215.324         71.2913 
       0.864097         212.563         68.5287 
       0.879701         207.934         65.9122 
       0.895507         202.575         63.4034 
       0.911279         197.221         61.0324 
        0.92691          196.91         58.8042 
       0.942635         192.278         56.6765 
       0.958396         191.204         54.6511 
       0.974128         186.057         52.7299 
       0.989692         181.365         50.9214 
        1.00528         178.871         49.1965 
        1.02113         177.737         47.5256 
        1.03692          171.78         45.9397 
        1.05264         168.845         44.4347 
        1.06832         165.878         43.0005 
        1.08405          163.22         41.6267 
        1.09979          162.44         40.3132 
        1.11537          157.19         39.0702 
        1.13105         155.829          37.873 
        1.14679         155.111         36.7222 
        1.16256         152.283         35.6176 
        1.17828         148.814         34.5629 
        1.19395         146.927          33.555 
         1.2097         145.204         32.5829 
        1.22537         142.822         31.6545 
          1.241         140.448         30.7657 
        1.25666         138.049         29.9092 
        1.27241         135.794         29.0818 
        1.28819          134.06         28.2848 
        1.30392         132.476         27.5204 
        1.31957         130.704         26.7881 
        1.33529         127.636         26.0801 
        1.35108         126.526         25.3953 
        1.36674         125.331         24.7403 
         1.3824         122.492         24.1093 
        1.39811         121.833         23.4986 
        1.41389         119.551         22.9069 
        1.42964         117.402          22.337 
        1.44531         114.976         21.7894 
        1.46101         114.022         21.2594 
        1.47667         112.699         20.7487 
        1.49229         110.999         20.2565 
        1.50793         109.835         19.7799 
        1.52367         108.548         19.3158 
        1.53953         106.499         18.8636 
        1.55526         105.326         18.4297 
        1.57092         104.094         18.0115 
        1.58662         102.191         17.6054 
        1.60235         101.632         17.2112 
        1.61809         99.6944         16.8291 
        1.63369         98.6509         16.4621 
        1.64941         97.6392         16.1036 
        1.66519         95.6023         15.7546 
        1.68085         94.8188         15.4186 
        1.69652          92.505         15.0924 
        1.71228         92.6368         14.7739 
        1.72806         90.9001         14.4645 
        1.74368         89.9593         14.1671 
        1.75933         88.5973         13.8777 
        1.77505         87.4807          13.595 
        1.79081         86.0942         13.3199 
         1.8065         85.3306         13.0536 
        1.82218         83.5839          12.795 
        1.83797         82.9949         12.5417 
        1.85367         81.8234         12.2967 
        1.86928         81.4773         12.0598 
        1.88497         79.6316          11.828 
        1.90073         78.9201         11.6014 
        1.91647         78.0961         11.3811 
        1.93218         76.9441          11.167 
        1.94787         75.9715         10.9589 
        1.96363         74.6076         10.7553 
        1.97935         74.2243         10.5573 
        1.99499         73.1534         10.3655 
        2.01064         72.3535         10.1782 
         2.0264         70.9938         9.99449 
        2.04216         70.1177         9.81543 
        2.05781         69.4153         9.64194 
        2.07353         68.3496         9.47208 
        2.08928         67.3863         9.30598 
        2.10499         66.9197         9.14437 
        2.12065         66.2788         8.98712 
        2.13633         65.3962         8.83348 
        2.15211         64.7097         8.68249 
        2.16785         63.8186         8.53549 
        2.18349         63.2147         8.39286 
        2.19916         62.2449         8.25322 
        2.21489         61.7675         8.11634 
        2.23063         61.1002         7.98251 
         2.2463         60.2796         7.85233 
        2.26194         59.3701         7.72542 
        2.27765          58.898         7.60069 
        2.29341         58.2439         7.47842 
        2.30914         57.2371         7.35913 
        2.32486         56.4505         7.24254 
        2.34061         55.9046         7.12831 
        2.35635         55.4876         7.01668 
        2.37203         54.4726         6.90785 
        2.38768         54.0539         6.80158 
        2.40339         53.2346         6.69719 
        2.41914         52.9724         6.59477 
        2.43483         52.5458         6.49488 
         2.4505         51.8965         6.39726 
        2.46622         51.2591         6.30132 
        2.48195         50.6305         6.20737 
        2.49759         49.8358         6.11586 
        2.51328          49.378         6.02598 
        2.52906         48.8473         5.93736 
        2.54479         48.2807         5.85087 
        2.56049         47.6293         5.76629 
        2.57618         47.2285         5.68347 
        2.59189         46.7178         5.60218 
        2.60758         46.2813         5.52262 
        2.62325         45.6192         5.44472 
        2.63898         45.2716         5.36807 
        2.65468         44.5788         5.29307 
        2.67044         43.9679          5.2192 
        2.68618         43.7591         5.14693 
        2.70184         43.1529         5.07633 
        2.71755         42.9565         5.00689 
        2.73329          42.065         4.93866 
        2.74897         41.7098         4.87194 
        2.76462         41.2336         4.80661 
        2.78034         40.9138         4.74223 
        2.79607         40.3291         4.67897 
        2.81179         39.9586         4.61695 
        2.82749         39.2531         4.55613 
        2.84321          39.074         4.49636 
        2.85893         38.6286         4.43768 
        2.87462         38.0927         4.38017 
        2.89033         37.7899         4.32363 
        2.90605         37.3244         4.26806 
        2.92176         37.0497          4.2135 
        2.93747         36.6248         4.15993 
        2.95318         36.2176          4.1073 
        2.96891         35.6336         4.05555 
        2.98456         35.4578         4.00495 
        3.00023         35.0071         3.95513 
        3.01596         34.6294         3.90603 
        3.03164          34.299          3.8579 
        3.04738         34.0157         3.81045 
         3.0631         33.5269         3.76383 
        3.07883         33.2115         3.71799 
        3.09456         32.8821         3.67293 
        3.11026         32.5499          3.6287 
        3.12596         32.2235         3.58521 
        3.14163         31.8379         3.54254 
        3.15734          31.558         3.50047 
        3.17308          31.222         3.45899 
        3.18879         30.8589          3.4183 
        3.20447         30.5594         3.37833 
         3.2202         30.2147         3.33889 
         3.2359         29.9791         3.30015 
        3.25157         29.6785         3.26213 
        3.26729         29.4302         3.22459 
        3.28304         29.1249         3.18758 
        3.29877         28.7264         3.15121 
        3.31446          28.511         3.11549 
        3.33014         28.2597         3.08036 
        3.34585         27.9926         3.04572 
        3.36158         27.6338         3.01157 
        3.37727         27.3688         2.97806 
        3.39294         27.1343         2.94509 
        3.40867          26.848         2.91251 
        3.42439         26.5177         2.88044 
        3.44008          26.327         2.84893 
        3.45578         26.0281         2.81787 
        3.47153           25.82          2.7872 
        3.48724         25.4509         2.75706 
        3.50292         25.2892         2.72743 
        3.51859         24.9734         2.69826 
        3.53431          24.832         2.66943 
        3.55007           24.59         2.64095 
        3.56577         24.3184         2.61301 
        3.58146         24.1804         2.58548 
        3.59719         23.8371          2.5583 
        3.61292         23.5992         2.53151 
        3.62859         23.4233         2.50522 
        3.64429         23.1914         2.47925 
        3.66003          22.998         2.45358 
        3.67578         22.7811         2.42828 
        3.69146         22.5151         2.40344 
        3.70712         22.2754         2.37899 
        3.72284         22.1383          2.3548 
        3.73853         21.8921         2.33099 
        3.75422         21.6809          2.3075 
        3.76993         21.5466         2.28433 
        3.78564         21.2683         2.26148 
        3.80137         21.1105         2.23891 
        3.81707         20.9157          2.2167 
        3.83279         20.6232         2.19477 
        3.84853         20.4461         2.17311 
        3.86424         20.3063         2.15179 
        3.87992         20.1273         2.13079 
        3.89561         19.9123         2.11007 
        3.91134         19.7782         2.08958 
        3.92704         19.5663          2.0694 
        3.94273         19.3795          2.0495 
        3.95845         19.2054         2.02983 
        3.97418         19.0177         2.01042 
        3.98988         18.8293         1.99129 
        4.00554         18.6836         1.97247 
        4.02125         18.5273         1.95383 
        4.03698          18.316         1.93541 
        4.05268         18.1759         1.91728 
        4.06839         17.9892         1.89936 
         4.0841         17.9147         1.88168 
        4.09983         17.6906         1.86421 
        4.11555         17.4889         1.84696 
        4.13124         17.3533         1.82999 
        4.14693         17.1607         1.81321 
        4.16266         17.0238         1.79661 
        4.17839         16.8689         1.78022 
        4.19408         16.7492         1.76409 
        4.20977         16.6125         1.74814 
        4.22551         16.4524         1.73236 
        4.24123         16.2981         1.71679 
        4.25691         16.1859         1.70146 
        4.27259         15.9959         1.68631 
        4.28831         15.8481         1.67131 
        4.30404          15.731         1.65649 
        4.31974         15.5968         1.64188 
        4.33543         15.4416         1.62746 
        4.35116          15.339         1.61317 
        4.36688         15.2016         1.59907 
        4.38255         15.0802         1.58519 
        4.39825         14.9848         1.57144 
        4.41398         14.8309         1.55783 
         4.4297          14.694          1.5444 
        4.44541         14.5731         1.53114 
        4.46111         14.4395         1.51804 
        4.47683         14.3193         1.50508 
        4.49251         14.2268          1.4923 
        4.50819         14.0885         1.47968 
         4.5239          13.984         1.46719 
        4.53962         13.8331         1.45482 
        4.55535         13.7331          1.4426 
        4.57106         13.6314         1.43053 
        4.58678         13.5016          1.4186 
         4.6025         13.3894         1.40681 
        4.61821          13.284         1.39515 
        4.63391         13.1932         1.38364 
         4.6496         13.0291         1.37227 
        4.66532         12.9432         1.36101 
        4.68103         12.8513         1.34988 
        4.69673          12.784         1.33889 
        4.71241         12.6339         1.32803 
        4.72811         12.5499         1.31728 
        4.74384         12.4295         1.30663 
        4.75955         12.3319         1.29612 
        4.77525         12.2403         1.28573 
        4.79096          12.154         1.27544 
        4.80669         12.0675         1.26526 
         4.8224         11.9254         1.25521 
        4.83809         11.8673         1.24527 
        4.85379         11.7386         1.23544 
         4.8695         11.6801         1.22571 
        4.88521         11.5641         1.21609 
        4.90093         11.4726         1.20657 
        4.91663         11.4117         1.19716 
        4.93234         11.2898         1.18785 
        4.94807         11.1829         1.17862 
        4.96377         11.1235         1.16952 
        4.97943         11.0356         1.16053 
        4.99514         10.9384         1.15161 
        5.01086         10.8446         1.14278 
        5.02654         10.7905         1.13407 
        5.04227         10.6959         1.12542 
          5.058         10.6109         1.11686 
        5.07371         10.5339          1.1084 
        5.08942         10.4434         1.10004 
        5.10513         10.3527         1.09176 
        5.12084          10.293         1.08356 
        5.13656         10.2179         1.07545 
        5.15225         10.1425         1.06743 
        5.16796         10.0557         1.05949 
        5.18369         9.96515         1.05162 
         5.1994         9.90024         1.04384 
        5.21509          9.8102         1.03616 
        5.23079         9.74013         1.02854 
        5.24649         9.70025           1.021 
        5.26217         9.59571         1.01355 
        5.27788         9.52369         1.00616 
        5.29359         9.47522         0.99884 
        5.30933         9.40184        0.991586 
        5.32504         9.31629        0.984417 
        5.34073          9.2517        0.977328 
        5.35646         9.16972        0.970295 
        5.37218          9.1064         0.96333 
        5.38789         9.04449        0.956446 
        5.40357         8.99504        0.949638 
        5.41929         8.91968        0.942881 
        5.43502         8.86144         0.93619 
         5.4507         8.77781        0.929581 
        5.46639         8.70209        0.923035 
        5.48212         8.64888        0.916537 
        5.49786         8.60297        0.910095 
        5.51353         8.52551        0.903747 
        5.52921         8.47239        0.897455 
        5.54495         8.41068        0.891204 
        5.56066         8.33072         0.88502 
        5.57637         8.26975        0.878896 
        5.59207         8.21345        0.872836 
        5.60778         8.16217        0.866832 
        5.62346         8.11083        0.860893 
        5.63916         8.06805        0.855004 
        5.65487         7.98293        0.849168 
         5.6706         7.94471        0.843381 
        5.68633         7.87813        0.837646 
        5.70203         7.83403        0.831976 
        5.71773         7.77426         0.82636 
        5.73344         7.71586        0.820794 
        5.74916         7.65092        0.815274 
        5.76486         7.61891        0.809813 
        5.78054         7.55531        0.804412 
        5.79626         7.50682        0.799044 
          5.812         7.45101        0.793721 
         5.8277         7.38513        0.788462 
        5.84339         7.34604        0.783252 
        5.85911         7.29311        0.778079 
        5.87484         7.24739        0.772954 
        5.89053         7.19716        0.767886 
        5.90623          7.1434        0.762861 
        5.92195         7.11102        0.757874 
        5.93767         7.05043        0.752934 
        5.95336         6.99341        0.748046 
        5.96905          6.9595        0.743204 
        5.98476         6.90056        0.738399 
        6.00048         6.85791        0.733635 
        6.01617         6.82243         0.72892 
        6.03185         6.76134        0.724252 
        6.04756         6.71826        0.719615 
        6.06331         6.67841        0.715009 
        6.07903         6.63064        0.710453 
        6.09473         6.58951        0.705941 
        6.11044         6.53801        0.701465 
        6.12616         6.50287        0.697029 
        6.14186         6.46871        0.692636 
        6.15755         6.40526        0.688281 
        6.17326         6.36469        0.683961 
        6.18898         6.33432        0.679677 
        6.20467         6.29079        0.675437 
        6.22036         6.24097        0.671234 
         6.2361         6.20809        0.667055 
         6.2518         6.16215         0.66292 
        6.26748         6.12059        0.658829 
        6.28319         6.07985        0.654761 
        6.29893         6.04839        0.650725 
        6.31463         6.01522         0.64673 
        6.33033         5.96852         0.64277 
        6.34604         5.92846        0.638841 
        6.36177         5.89643        0.634941 
        6.37747         5.86248        0.631081 
