# k  (h/Mpc)    Pcb(k)  (Mpc/h)^3    Pcb_linear(k) (Mpc/h)^3   ShotnoiseSubtracted = true
      0.0200456         6956.27         7089.06 
      0.0350414         5104.21         5218.24 
      0.0492313         3939.89         3965.48 
      0.0637834         3434.51         3395.95 
      0.0800726         2655.57         2614.73 
       0.096163         1881.02          1911.8 
       0.111083         1572.76         1624.83 
       0.126058         1453.08         1449.27 
       0.142273         1204.31         1166.66 
       0.158546         1000.13         938.344 
        0.17375         844.843         840.878 
       0.188953          802.91         757.479 
       0.204907         733.287         641.666 
       0.220756         622.524         551.095 
        0.23588         558.193         502.082 
         0.2514         492.892         455.894 
       0.267535         464.976         400.614 
       0.283568         423.388         356.386 
       0.299022         394.844         327.004 
       0.314451         364.898         299.798 
       0.330372         337.313         270.848 
       0.346141         304.918         246.682 
       0.361624         292.143         228.045 
       0.377134         274.728         210.915 
       0.392932         253.739         194.018 
       0.408854         243.903         179.092 
       0.424564         234.242         166.609 
       0.440253         221.767         155.227 
       0.455999         209.161         144.506 
       0.471626           193.5         134.927 
        0.48727         188.863         126.436 
       0.502856         181.349         118.681 
       0.518488         177.243          111.45 
       0.534347         168.831         104.746 
       0.550082         157.039         98.7101 
       0.565732          152.43         93.1814 
       0.581496         145.932          88.014 
       0.597222          141.58         83.2506 
       0.612804         135.203         78.9052 
       0.628434         132.374         74.8657 
       0.644267         127.934         71.0624 
       0.660051         125.303          67.535 
       0.675724         121.506         64.2706 
       0.691403         117.923         61.2226 
       0.707174         113.463         58.3582 
       0.722871         111.563         55.6915 
        0.73838         109.431         53.2227 
       0.754018         104.392         50.8873 
       0.769845         102.485          48.669 
        0.78569         99.9896         46.5831 
       0.801365         97.0963          44.642 
       0.817031          93.886         42.8147 
       0.832809         92.8258         41.0795 
       0.848511         89.3978         39.4499 
       0.864097         86.9977         37.9212 
       0.879701         86.1757         36.4733 
       0.895507         84.2737         35.0851 
       0.911279         83.0352          33.773 
        0.92691          80.808           32.54 
       0.942635         78.5013         31.3626 
       0.958396         78.1451         30.2418 
       0.974128          76.171         29.1787 
       0.989692         74.4101          28.178 
        1.00528         73.1174         27.2235 
        1.02113          71.461         26.2989 
        1.03692         69.6857         25.4213 
        1.05264         69.2184         24.5885 
        1.06832          67.602         23.7948 
        1.08405         66.7454         23.0347 
        1.09979         65.8814         22.3078 
        1.11537         63.5012           21.62 
        1.13105         63.8749         20.9575 
        1.14679          62.582         20.3207 
        1.16256         61.4367         19.7094 
        1.17828          59.895         19.1258 
        1.19395         59.4044         18.5681 
         1.2097         58.1144         18.0301 
        1.22537         57.9605         17.5164 
          1.241         56.5039         17.0245 
        1.25666         55.4095         16.5506 
        1.27241         55.0257         16.0928 
        1.28819         53.6886         15.6517 
        1.30392         52.8856         15.2288 
        1.31957         52.5509         14.8235 
        1.33529         51.8876         14.4317 
        1.35108         51.2884         14.0528 
        1.36674         50.4317         13.6903 
         1.3824         49.2315         13.3412 
        1.39811         49.0289         13.0032 
        1.41389         48.2259         12.6758 
        1.42964          47.469         12.3604 
        1.44531         47.0143         12.0574 
        1.46101         45.8678         11.7641 
        1.47667         45.8713         11.4816 
        1.49229         45.3921         11.2092 
        1.50793         44.4558         10.9454 
        1.52367         43.9512         10.6886 
        1.53953         43.6401         10.4384 
        1.55526         42.8615         10.1983 
        1.57092         42.4818         9.96688 
        1.58662         41.8907         9.74217 
        1.60235         41.4304         9.52405 
        1.61809         40.7285         9.31258 
        1.63369         40.1685         9.10951 
        1.64941         39.5867         8.91112 
        1.66519         39.1847           8.718 
        1.68085         38.8547         8.53205 
        1.69652         38.3428         8.35155 
        1.71228         38.1293         8.17531 
        1.72806         37.4585         8.00408 
        1.74368         36.9985         7.83955 
        1.75933         36.5546         7.67937 
        1.77505          36.274         7.52298 
        1.79081         35.6886         7.37072 
         1.8065          35.306         7.22338 
        1.82218         34.9972         7.08026 
        1.83797         34.5298         6.94008 
        1.85367         34.0357         6.80452 
        1.86928         33.7932         6.67344 
        1.88497         33.2603         6.54514 
        1.90073         33.1678         6.41979 
        1.91647         32.6541         6.29787 
        1.93218         32.3282         6.17942 
        1.94787          31.993         6.06423 
        1.96363         31.7515         5.95155 
        1.97935         31.3598           5.842 
        1.99499         30.9403         5.73587 
        2.01064         30.6841         5.63225 
         2.0264         30.1876         5.53057 
        2.04216         29.8404         5.43149 
        2.05781         29.6326         5.33548 
        2.07353         29.3052         5.24149 
        2.08928          29.239         5.14958 
        2.10499         28.8645         5.06015 
        2.12065         28.3694         4.97313 
        2.13633         28.2153         4.88812 
        2.15211         27.6793         4.80456 
        2.16785          27.518         4.72322 
        2.18349         27.3679         4.64429 
        2.19916          27.036         4.56702 
        2.21489         26.6503         4.49127 
        2.23063         26.4888         4.41722 
         2.2463         26.2939         4.34518 
        2.26194         25.9926         4.27495 
        2.27765         25.6829         4.20593 
        2.29341         25.3543         4.13828 
        2.30914          25.276         4.07227 
        2.32486         24.9395         4.00775 
        2.34061         24.6838         3.94454 
        2.35635         24.3655         3.88276 
        2.37203         24.1863         3.82254 
        2.38768         23.9715         3.76374 
        2.40339         23.8311         3.70597 
        2.41914         23.5441          3.6493 
        2.43483         23.2217         3.59402 
         2.4505         22.9962            3.54 
        2.46622          22.773         3.48691 
        2.48195         22.5761         3.43493 
        2.49759         22.3026         3.38429 
        2.51328         22.1172         3.33455 
        2.52906         21.9556         3.28551 
        2.54479         21.6664         3.23765 
        2.56049         21.4215         3.19084 
        2.57618         21.2451         3.14502 
        2.59189         21.1123         3.10003 
        2.60758          20.923         3.05601 
        2.62325         20.7001          3.0129 
        2.63898         20.5664         2.97049 
        2.65468         20.3574         2.92898 
        2.67044         20.1096         2.88811 
        2.68618         19.9615         2.84812 
        2.70184         19.7782         2.80905 
        2.71755         19.5484         2.77062 
        2.73329         19.3939         2.73287 
        2.74897         19.1175         2.69595 
        2.76462         19.1944          2.6598 
        2.78034         18.8888         2.62417 
        2.79607         18.6927         2.58916 
        2.81179          18.577         2.55484 
        2.82749         18.4101         2.52119 
        2.84321         18.2345         2.48811 
        2.85893         18.0577         2.45565 
        2.87462         17.8622         2.42382 
        2.89033         17.7131         2.39254 
        2.90605         17.6004         2.36178 
        2.92176         17.3358         2.33159 
        2.93747         17.2515         2.30195 
        2.95318         17.0718         2.27282 
        2.96891         16.8963         2.24419 
        2.98456         16.7623         2.21618 
        3.00023         16.6515         2.18862 
        3.01596         16.4889         2.16145 
        3.03164         16.3537         2.13482 
        3.04738         16.1529         2.10856 
         3.0631          16.022         2.08276 
        3.07883         15.8867          2.0574 
        3.09456          15.756         2.03246 
        3.11026         15.6066         2.00799 
        3.12596          15.429         1.98392 
        3.14163         15.3875          1.9603 
        3.15734          15.161         1.93703 
        3.17308         15.0475         1.91407 
        3.18879          14.941         1.89156 
        3.20447          14.784         1.86944 
         3.2202         14.6565         1.84761 
         3.2359         14.5622         1.82618 
        3.25157         14.4617         1.80514 
        3.26729         14.2632         1.78437 
        3.28304         14.1743         1.76389 
        3.29877         14.0365         1.74376 
        3.31446         13.8914         1.72399 
        3.33014         13.7505         1.70455 
        3.34585         13.6545         1.68539 
        3.36158         13.5594         1.66649 
        3.37727         13.4234         1.64794 
        3.39294         13.3279          1.6297 
        3.40867         13.1809         1.61167 
        3.42439         13.0903         1.59393 
        3.44008         13.0028         1.57649 
        3.45578           12.89          1.5593 
        3.47153         12.7758         1.54233 
        3.48724         12.6703         1.52565 
        3.50292         12.5018         1.50926 
        3.51859         12.4494         1.49311 
        3.53431          12.351         1.47716 
        3.55007         12.2579          1.4614 
        3.56577         12.1477         1.44594 
        3.58146         12.0638         1.43071 
        3.59719         11.9126         1.41566 
        3.61292         11.8389         1.40084 
        3.62859         11.7038         1.38629 
        3.64429         11.6215         1.37192 
        3.66003         11.5196         1.35772 
        3.67578         11.4376         1.34372 
        3.69146         11.3482         1.32997 
        3.70712         11.2327         1.31645 
        3.72284         11.1481         1.30306 
        3.73853         11.0568         1.28988 
        3.75422         10.9927         1.27689 
        3.76993         10.8805         1.26406 
        3.78564         10.7629         1.25142 
        3.80137         10.7036         1.23893 
        3.81707         10.5892         1.22664 
        3.83279          10.524          1.2145 
        3.84853         10.4278         1.20252 
        3.86424         10.3437         1.19072 
        3.87992         10.2558          1.1791 
        3.89561         10.1912         1.16763 
        3.91134         10.1249          1.1563 
        3.92704         10.0102         1.14513 
        3.94273          9.9533         1.13412 
        3.95845         9.86712         1.12323 
        3.97418         9.77514         1.11249 
        3.98988         9.69798         1.10191 
        4.00554         9.62025         1.09149 
        4.02125         9.54311         1.08118 
        4.03698         9.46666         1.07099 
        4.05268         9.40708         1.06095 
        4.06839         9.29254         1.05103 
         4.0841            9.26         1.04125 
        4.09983         9.17184         1.03158 
        4.11555         9.09006         1.02204 
        4.13124         9.02688         1.01264 
        4.14693         8.93436         1.00336 
        4.16266         8.88873        0.994174 
        4.17839         8.80847        0.985109 
        4.19408         8.75324        0.976178 
        4.20977          8.6705        0.967356 
        4.22551         8.61183        0.958622 
        4.24123         8.54623        0.950007 
        4.25691         8.46298        0.941522 
        4.27259         8.40641        0.933138 
        4.28831          8.3349        0.924842 
        4.30404         8.27217        0.916639 
        4.31974         8.19788        0.908554 
        4.33543         8.12214        0.900573 
        4.35116         8.07017        0.892669 
        4.36688         8.01802        0.884864 
        4.38255         7.94953        0.877183 
        4.39825         7.86694        0.869577 
        4.41398         7.84586        0.862047 
         4.4297         7.76797        0.854615 
        4.44541         7.70593        0.847273 
        4.46111          7.6428        0.840024 
        4.47683         7.58192        0.832855 
        4.49251         7.53988        0.825785 
        4.50819         7.48767          0.8188 
         4.5239         7.43084        0.811886 
        4.53962         7.36433        0.805045 
        4.55535         7.30774         0.79828 
        4.57106         7.24635        0.791603 
        4.58678         7.19015        0.785002 
         4.6025         7.14173        0.778475 
        4.61821         7.07859        0.772025 
        4.63391         7.03203        0.765656 
         4.6496         6.97211        0.759363 
        4.66532         6.94342        0.753131 
        4.68103          6.8565        0.746973 
        4.69673          6.8184        0.740891 
        4.71241         6.78095        0.734882 
        4.72811         6.70147        0.728931 
        4.74384          6.6665         0.72304 
        4.75955         6.60091        0.717223 
        4.77525         6.58196        0.711473 
        4.79096         6.51654        0.705781 
        4.80669         6.47814        0.700148 
         4.8224         6.43268        0.694584 
        4.83809          6.3681        0.689087 
        4.85379         6.31558        0.683647 
         4.8695         6.27984        0.678262 
        4.88521         6.22976        0.672937 
        4.90093         6.18037         0.66767 
        4.91663          6.1413        0.662464 
        4.93234         6.09266        0.657309 
        4.94807         6.05458        0.652205 
        4.96377         6.01995        0.647166 
        4.97943         5.96778        0.642192 
        4.99514         5.92563        0.637257 
        5.01086         5.87558        0.632371 
        5.02654         5.83773        0.627549 
        5.04227         5.78911        0.622764 
          5.058          5.7657        0.618027 
        5.07371         5.71174        0.613349 
        5.08942         5.66677        0.608719 
        5.10513         5.62916        0.604137 
        5.12084         5.60378        0.599601 
        5.13656         5.56123        0.595112 
        5.15225         5.52619        0.590678 
        5.16796         5.48066        0.586281 
        5.18369          5.4395        0.581927 
         5.1994         5.40095        0.577624 
        5.21509           5.367         0.57337 
        5.23079         5.33259        0.569154 
        5.24649         5.28699        0.564983 
        5.26217         5.25907        0.560858 
        5.27788         5.20991        0.556769 
        5.29359         5.18875         0.55272 
        5.30933         5.15403        0.548706 
        5.32504         5.11436        0.544739 
        5.34073         5.07242        0.540816 
        5.35646         5.03204        0.536924 
        5.37218         5.00861        0.533071 
        5.38789         4.97295        0.529261 
        5.40357         4.92941        0.525493 
        5.41929         4.90749        0.521755 
        5.43502         4.87823        0.518052 
         5.4507         4.83424        0.514395 
        5.46639         4.79264        0.510772 
        5.48212         4.76594        0.507177 
        5.49786         4.73708        0.503612 
        5.51353          4.7041          0.5001 
        5.52921         4.67599        0.496617 
        5.54495         4.64045        0.493158 
        5.56066         4.61297        0.489736 
        5.57637         4.58081        0.486348 
        5.59207         4.54965        0.482995 
        5.60778          4.5229        0.479672 
        5.62346         4.49168        0.476385 
        5.63916         4.46133        0.473127 
        5.65487          4.4223        0.469898 
         5.6706         4.39289        0.466695 
        5.68633         4.37573        0.463521 
        5.70203           4.346        0.460384 
        5.71773         4.32302        0.457276 
        5.73344         4.29232        0.454196 
        5.74916         4.25618        0.451142 
        5.76486         4.22889         0.44812 
        5.78054         4.19953        0.445131 
        5.79626         4.17225        0.442161 
          5.812         4.14873        0.439215 
         5.8277         4.12684        0.436305 
        5.84339         4.09765        0.433422 
        5.85911          4.0732        0.430559 
        5.87484         4.04799        0.427724 
        5.89053         4.02625        0.424919 
        5.90623         3.99138        0.422139 
        5.92195         3.96461        0.419379 
        5.93767         3.94931        0.416645 
        5.95336         3.92033         0.41394 
        5.96905          3.8858        0.411261 
        5.98476         3.86657        0.408602 
        6.00048         3.84193        0.405966 
        6.01617         3.82665        0.403357 
        6.03185         3.79539        0.400774 
        6.04756         3.78639        0.398208 
        6.06331         3.74576        0.395659 
        6.07903         3.72806        0.393138 
        6.09473         3.70877        0.390641 
        6.11044         3.68003        0.388164 
        6.12616         3.66619        0.385709 
        6.14186         3.63479        0.383278 
        6.15755         3.61539        0.380869 
        6.17326         3.59596        0.378478 
        6.18898         3.56939        0.376107 
        6.20467         3.54572        0.373761 
        6.22036         3.53511        0.371435 
         6.2361         3.50061        0.369123 
         6.2518          3.4885        0.366835 
        6.26748         3.46498        0.364571 
        6.28319         3.44579         0.36232 
        6.29893         3.41913        0.360086 
        6.31463         3.40028        0.357876 
        6.33033         3.38008        0.355684 
        6.34604         3.35472         0.35351 
        6.36177         3.33473        0.351352 
        6.37747         3.32004        0.349216 
