# k  (h/Mpc)    Pcb(k)  (Mpc/h)^3    Pcb_linear(k) (Mpc/h)^3   ShotnoiseSubtracted = true
      0.0200456         14303.3         14629.2 
      0.0350414         10381.9         10768.6 
      0.0492313         8043.66         8183.31 
      0.0637834         7082.14            7008 
      0.0800726         5468.71         5395.85 
       0.096163         3831.88         3945.26 
       0.111083         3205.06         3353.06 
       0.126058         2976.97         2990.77 
       0.142273         2489.62         2407.56 
       0.158546         2143.22          1936.4 
        0.17375         1773.12         1735.27 
       0.188953         1719.05         1563.16 
       0.204907          1591.6         1324.17 
       0.220756         1374.38         1137.26 
        0.23588          1231.1         1036.12 
         0.2514         1075.82           940.8 
       0.267535         1056.72         826.722 
       0.283568         961.991         735.452 
       0.299022         906.007         674.817 
       0.314451         860.441         618.673 
       0.330372         793.552         558.932 
       0.346141         735.454         509.063 
       0.361624         707.781         470.602 
       0.377134         658.095         435.253 
       0.392932         632.943         400.383 
       0.408854         611.818         369.581 
       0.424564         576.056         343.821 
       0.440253         563.942         320.332 
       0.455999         533.095         298.208 
       0.471626         504.121          278.44 
        0.48727          488.81         260.919 
       0.502856         474.601         244.914 
       0.518488         469.726         229.993 
       0.534347         439.021         216.157 
       0.550082         419.635         203.702 
       0.565732         419.289         192.293 
       0.581496         394.789         181.629 
       0.597222         388.408         171.799 
       0.612804         376.458         162.832 
       0.628434         362.629         154.496 
       0.644267         352.309         146.647 
       0.660051         343.982         139.368 
       0.675724         339.917         132.631 
       0.691403          329.39         126.341 
       0.707174         317.439          120.43 
       0.722871         313.628         114.927 
        0.73838         308.756         109.832 
       0.754018         299.586         105.013 
       0.769845         289.414         100.435 
        0.78569         289.337         96.1307 
       0.801365          279.49          92.125 
       0.817031         271.447          88.354 
       0.832809         268.173         84.7733 
       0.848511         261.032         81.4103 
       0.864097         257.372         78.2556 
       0.879701         252.794         75.2677 
       0.895507         246.685         72.4028 
       0.911279         239.079         69.6953 
        0.92691         238.851         67.1508 
       0.942635         233.102         64.7211 
       0.958396         230.658         62.4082 
       0.974128         225.343         60.2143 
       0.989692         220.095         58.1492 
        1.00528         217.374         56.1794 
        1.02113         215.383         54.2713 
        1.03692         209.406         52.4604 
        1.05264         205.297         50.7417 
        1.06832         201.723         49.1039 
        1.08405         198.054         47.5352 
        1.09979         196.383         46.0352 
        1.11537         191.253         44.6158 
        1.13105         188.071         43.2487 
        1.14679         187.998         41.9345 
        1.16256         184.224         40.6732 
        1.17828         180.139         39.4687 
        1.19395         177.631         38.3178 
         1.2097         176.638         37.2077 
        1.22537          172.23         36.1475 
          1.241         170.607         35.1325 
        1.25666         167.077         34.1545 
        1.27241         164.308         33.2097 
        1.28819         162.355         32.2995 
        1.30392         159.933         31.4266 
        1.31957         158.583         30.5904 
        1.33529         154.354         29.7819 
        1.35108         153.086         28.9998 
        1.36674         151.683         28.2519 
         1.3824         148.347         27.5313 
        1.39811         148.228         26.8339 
        1.41389          144.75         26.1583 
        1.42964         141.752         25.5074 
        1.44531         139.648         24.8822 
        1.46101         138.266         24.2769 
        1.47667         135.651         23.6938 
        1.49229         134.176         23.1317 
        1.50793         132.939         22.5874 
        1.52367         131.197         22.0574 
        1.53953         128.494         21.5411 
        1.55526         126.961         21.0456 
        1.57092         125.372          20.568 
        1.58662         123.264         20.1043 
        1.60235         122.281         19.6542 
        1.61809         120.218         19.2178 
        1.63369         118.738         18.7987 
        1.64941         117.248         18.3893 
        1.66519         115.229         17.9908 
        1.68085         114.389         17.6071 
        1.69652         111.276         17.2346 
        1.71228         111.558         16.8709 
        1.72806         109.612         16.5175 
        1.74368         108.497          16.178 
        1.75933         106.751         15.8474 
        1.77505         105.181         15.5247 
        1.79081         103.941         15.2105 
         1.8065         102.596         14.9064 
        1.82218         100.726         14.6111 
        1.83797         99.4971         14.3218 
        1.85367         98.3547         14.0421 
        1.86928         97.3206         13.7716 
        1.88497         95.2099         13.5068 
        1.90073         95.0116         13.2481 
        1.91647         93.3088         12.9965 
        1.93218         92.2633         12.7521 
        1.94787         91.1847         12.5144 
        1.96363         89.8285         12.2818 
        1.97935         88.4162         12.0558 
        1.99499         87.6981         11.8368 
        2.01064          86.538         11.6229 
         2.0264         85.1368         11.4131 
        2.04216         84.2834         11.2086 
        2.05781         83.1648         11.0105 
        2.07353         81.6908         10.8165 
        2.08928         80.8215         10.6269 
        2.10499         79.7322         10.4423 
        2.12065          79.316         10.2627 
        2.13633         78.1713         10.0873 
        2.15211         77.1435         9.91487 
        2.16785         75.9006         9.74701 
        2.18349         74.8992         9.58413 
        2.19916         74.1802         9.42467 
        2.21489         73.2247         9.26836 
        2.23063         72.2744         9.11553 
         2.2463         71.5646         8.96688 
        2.26194         70.9532         8.82195 
        2.27765         69.8141         8.67952 
        2.29341         68.8709          8.5399 
        2.30914         67.8131         8.40368 
        2.32486         67.1644         8.27054 
        2.34061         66.3409          8.1401 
        2.35635          65.681         8.01262 
        2.37203          64.484         7.88834 
        2.38768          64.023         7.76699 
        2.40339          63.152         7.64778 
        2.41914         62.4678         7.53083 
        2.43483         62.0966         7.41676 
         2.4505         61.0486         7.30527 
        2.46622         60.3633         7.19572 
        2.48195         59.5765         7.08844 
        2.49759         58.6929         6.98394 
        2.51328         58.2597          6.8813 
        2.52906         57.6152          6.7801 
        2.54479         56.8267         6.68133 
        2.56049         56.0862         6.58475 
        2.57618         55.5791         6.49018 
        2.59189         54.8017         6.39734 
        2.60758         54.3462         6.30649 
        2.62325         53.7101         6.21754 
        2.63898         53.1371         6.13001 
        2.65468         52.5037         6.04436 
        2.67044         51.7984         5.96001 
        2.68618         51.5453         5.87748 
        2.70184         50.7008         5.79686 
        2.71755         50.4633         5.71756 
        2.73329         49.4662         5.63965 
        2.74897          48.952         5.56346 
        2.76462         48.5622         5.48886 
        2.78034         48.0329         5.41533 
        2.79607         47.2859         5.34309 
        2.81179         46.8123         5.27227 
        2.82749         46.2096         5.20282 
        2.84321          45.837         5.13456 
        2.85893         45.2102         5.06756 
        2.87462         44.6447         5.00189 
        2.89033         44.2738         4.93733 
        2.90605         43.6644         4.87386 
        2.92176         43.2608         4.81156 
        2.93747         42.7493         4.75039 
        2.95318         42.2016         4.69028 
        2.96891          41.573          4.6312 
        2.98456         41.4953          4.5734 
        3.00023         40.8917         4.51652 
        3.01596         40.6039         4.46044 
        3.03164          39.917         4.40549 
        3.04738          39.771          4.3513 
         3.0631         39.1938         4.29806 
        3.07883         38.8519         4.24572 
        3.09456         38.4093         4.19427 
        3.11026         37.9255         4.14375 
        3.12596         37.6228         4.09409 
        3.14163         37.1576         4.04536 
        3.15734         36.5574         3.99732 
        3.17308         36.4593         3.94995 
        3.18879         36.0896         3.90349 
        3.20447         35.5502         3.85785 
         3.2202         35.1554         3.81281 
         3.2359         34.8442         3.76857 
        3.25157         34.4155         3.72515 
        3.26729         34.1364         3.68229 
        3.28304         33.6739         3.64003 
        3.29877         33.4354         3.59849 
        3.31446         33.1271          3.5577 
        3.33014         32.7712         3.51758 
        3.34585         32.4261         3.47803 
        3.36158         32.1371         3.43903 
        3.37727          31.738         3.40076 
        3.39294         31.4407         3.36311 
        3.40867         31.0596         3.32591 
        3.42439         30.7875         3.28929 
        3.44008         30.6692          3.2533 
        3.45578         30.1304         3.21783 
        3.47153         29.8854         3.18282 
        3.48724         29.5948         3.14839 
        3.50292         29.3359         3.11456 
        3.51859         28.9467         3.08125 
        3.53431         28.7238         3.04832 
        3.55007         28.4837          3.0158 
        3.56577         28.1805         2.98389 
        3.58146         27.8786         2.95246 
        3.59719         27.6085         2.92142 
        3.61292         27.3963         2.89083 
        3.62859         27.0368         2.86081 
        3.64429         26.7452         2.83115 
        3.66003         26.5688         2.80184 
        3.67578         26.2989         2.77295 
        3.69146         26.0938         2.74458 
        3.70712         25.7804         2.71667 
        3.72284         25.6228         2.68904 
        3.73853         25.3376         2.66185 
        3.75422         25.0608         2.63503 
        3.76993         24.9443         2.60856 
        3.78564         24.6744         2.58247 
        3.80137         24.4386          2.5567 
        3.81707         24.1692         2.53133 
        3.83279         24.0135         2.50629 
        3.84853         23.6826         2.48156 
        3.86424         23.4545         2.45721 
        3.87992         23.2129         2.43323 
        3.89561         22.9564         2.40957 
        3.91134         22.8303         2.38617 
        3.92704         22.6389         2.36312 
        3.94273         22.3939          2.3404 
        3.95845         22.1653         2.31794 
        3.97418         22.0423         2.29578 
        3.98988         21.7184         2.27393 
        4.00554         21.5589         2.25244 
        4.02125         21.4387         2.23116 
        4.03698          21.147         2.21013 
        4.05268           21.01         2.18941 
        4.06839         20.8018         2.16896 
         4.0841         20.6174         2.14877 
        4.09983         20.4692         2.12881 
        4.11555         20.2791         2.10912 
        4.13124         20.0376         2.08973 
        4.14693         19.8497         2.07057 
        4.16266         19.6796         2.05162 
        4.17839         19.5241         2.03291 
        4.19408         19.3143         2.01448 
        4.20977         19.1948         1.99627 
        4.22551         18.9665         1.97825 
        4.24123         18.8178         1.96047 
        4.25691         18.6446         1.94296 
        4.27259         18.4956         1.92566 
        4.28831         18.3484         1.90854 
        4.30404         18.1711         1.89161 
        4.31974         18.0443         1.87493 
        4.33543         17.8591         1.85846 
        4.35116          17.747         1.84215 
        4.36688         17.5552         1.82604 
        4.38255         17.4234         1.81019 
        4.39825         17.2907         1.79449 
        4.41398         17.0966         1.77895 
         4.4297         16.9654         1.76362 
        4.44541         16.8455         1.74846 
        4.46111          16.658          1.7335 
        4.47683         16.5392         1.71871 
        4.49251         16.3996         1.70412 
        4.50819         16.2312         1.68971 
         4.5239         16.1233         1.67544 
        4.53962         15.9624         1.66132 
        4.55535           15.85         1.64736 
        4.57106          15.684         1.63358 
        4.58678         15.5954         1.61996 
         4.6025         15.4561         1.60649 
        4.61821         15.3349         1.59318 
        4.63391         15.2053         1.58004 
         4.6496         15.0652         1.56705 
        4.66532         14.9422         1.55419 
        4.68103         14.7911         1.54148 
        4.69673         14.7217         1.52893 
        4.71241         14.5955         1.51653 
        4.72811         14.4308         1.50425 
        4.74384         14.3482         1.49209 
        4.75955         14.2213         1.48009 
        4.77525         14.1072         1.46822 
        4.79096         13.9716         1.45648 
        4.80669         13.9267         1.44485 
         4.8224         13.7646         1.43337 
        4.83809          13.637         1.42203 
        4.85379         13.5429          1.4108 
         4.8695         13.4863         1.39969 
        4.88521         13.3252          1.3887 
        4.90093         13.2491         1.37783 
        4.91663         13.1432         1.36709 
        4.93234         13.0164         1.35645 
        4.94807         12.9323         1.34592 
        4.96377         12.8111         1.33552 
        4.97943         12.7295         1.32525 
        4.99514         12.5938         1.31507 
        5.01086         12.5201         1.30498 
        5.02654         12.4151         1.29503 
        5.04227         12.3132         1.28516 
          5.058          12.229         1.27538 
        5.07371         12.1285         1.26573 
        5.08942         12.0184         1.25618 
        5.10513         11.9409         1.24672 
        5.12084         11.8533         1.23736 
        5.13656          11.749          1.2281 
        5.15225         11.6578         1.21894 
        5.16796         11.5723         1.20987 
        5.18369         11.4806         1.20089 
         5.1994         11.4182         1.19201 
        5.21509         11.3067         1.18323 
        5.23079         11.2144         1.17453 
        5.24649         11.1396         1.16592 
        5.26217         11.0624         1.15741 
        5.27788         10.9568         1.14897 
        5.29359         10.8922         1.14061 
        5.30933         10.7926         1.13233 
        5.32504         10.7389         1.12414 
        5.34073         10.6423         1.11605 
        5.35646         10.5794         1.10802 
        5.37218         10.4941         1.10006 
        5.38789         10.4204          1.0922 
        5.40357         10.3387         1.08443 
        5.41929          10.256         1.07671 
        5.43502         10.1869         1.06907 
         5.4507         10.1061         1.06152 
        5.46639         10.0233         1.05405 
        5.48212          9.9628         1.04663 
        5.49786          9.8916         1.03927 
        5.51353         9.81448         1.03202 
        5.52921         9.73936         1.02484 
        5.54495         9.67263          1.0177 
        5.56066         9.59257         1.01064 
        5.57637         9.51804         1.00365 
        5.59207         9.45954        0.996726 
        5.60778         9.39306        0.989869 
        5.62346         9.33523        0.983087 
        5.63916         9.25202        0.976363 
        5.65487         9.17481        0.969698 
         5.6706         9.13033        0.963089 
        5.68633         9.06415         0.95654 
        5.70203         8.98908        0.950066 
        5.71773         8.93363        0.943653 
        5.73344         8.87867        0.937297 
        5.74916         8.79758        0.930993 
        5.76486         8.72897        0.924757 
        5.78054         8.67624        0.918589 
        5.79626         8.60864         0.91246 
          5.812         8.55873        0.906381 
         5.8277          8.4917        0.900376 
        5.84339         8.44139        0.894426 
        5.85911         8.37591        0.888519 
        5.87484         8.30929        0.882666 
        5.89053         8.25371        0.876879 
        5.90623         8.19225        0.871141 
        5.92195         8.14811        0.865445 
        5.93767          8.0807        0.859804 
        5.95336         8.03403        0.854223 
        5.96905         7.98059        0.848694 
        5.98476         7.93203        0.843207 
        6.00048         7.85577        0.837766 
        6.01617         7.81683        0.832382 
        6.03185         7.76616        0.827052 
        6.04756         7.71608        0.821756 
        6.06331         7.66894        0.816496 
        6.07903         7.60193        0.811294 
        6.09473          7.5665        0.806141 
        6.11044         7.50361         0.80103 
        6.12616         7.45251        0.795964 
        6.14186         7.40151        0.790948 
        6.15755         7.35773        0.785975 
        6.17326         7.31492        0.781042 
        6.18898         7.24815        0.776149 
        6.20467         7.21587        0.771307 
        6.22036         7.15005        0.766508 
         6.2361         7.11152        0.761736 
         6.2518         7.06616        0.757014 
        6.26748          7.0184        0.752342 
        6.28319         6.97034        0.747697 
        6.29893         6.92355        0.743088 
        6.31463         6.87453        0.738526 
        6.33033         6.84012        0.734004 
        6.34604         6.79735        0.729517 
        6.36177         6.73754        0.725063 
        6.37747         6.70467        0.720656 
