# k  (h/Mpc)    Pcb(k)  (Mpc/h)^3    Pcb_linear(k) (Mpc/h)^3   ShotnoiseSubtracted = true
      0.0200456         20.8587          21.159 
      0.0350414         15.6646         15.5751 
      0.0492313         11.8775         11.8359 
      0.0637834         10.0915          10.136 
      0.0800726         7.79992         7.80429 
       0.096163         5.75913         5.70624 
       0.111083          4.8736         4.84971 
       0.126058         4.30793          4.3257 
       0.142273         3.48616         3.48217 
       0.158546         2.81514         2.80072 
        0.17375         2.51417         2.50981 
       0.188953         2.25612         2.26088 
       0.204907         1.91112         1.91521 
       0.220756         1.64903         1.64488 
        0.23588         1.49764         1.49859 
         0.2514          1.3594         1.36073 
       0.267535         1.19761         1.19573 
       0.283568         1.06552         1.06372 
       0.299022        0.975834        0.976023 
       0.314451        0.897267        0.894819 
       0.330372        0.809853        0.808412 
       0.346141        0.737752        0.736283 
       0.361624        0.680864        0.680656 
       0.377134        0.629075        0.629528 
       0.392932        0.582495        0.579094 
       0.408854        0.534765        0.534544 
       0.424564        0.499231        0.497286 
       0.440253        0.464181        0.463312 
       0.455999        0.431149        0.431313 
       0.471626        0.402538        0.402722 
        0.48727         0.37855         0.37738 
       0.502856        0.355554        0.354232 
       0.518488        0.332429        0.332651 
       0.534347        0.311906        0.312639 
       0.550082        0.295338        0.294624 
       0.565732        0.279816        0.278123 
       0.581496        0.263306        0.262699 
       0.597222        0.248949        0.248482 
       0.612804        0.236016        0.235512 
       0.628434        0.223667        0.223455 
       0.644267          0.2128        0.212103 
       0.660051        0.202397        0.201575 
       0.675724        0.192202        0.191831 
       0.691403        0.182964        0.182734 
       0.707174        0.174505        0.174184 
       0.722871        0.167375        0.166225 
        0.73838        0.159095        0.158856 
       0.754018        0.152009        0.151886 
       0.769845        0.145177        0.145264 
        0.78569        0.139391        0.139039 
       0.801365        0.133773        0.133245 
       0.817031        0.128274        0.127791 
       0.832809        0.122936        0.122612 
       0.848511        0.118109        0.117748 
       0.864097        0.113797        0.113185 
       0.879701        0.109614        0.108864 
       0.895507        0.104913         0.10472 
       0.911279        0.101317        0.100804 
        0.92691       0.0978232       0.0971236 
       0.942635       0.0939537       0.0936094 
       0.958396       0.0907568       0.0902642 
       0.974128       0.0875587        0.087091 
       0.989692       0.0845816       0.0841041 
        1.00528       0.0814843       0.0812551 
        1.02113        0.079102       0.0784954 
        1.03692       0.0764439       0.0758761 
        1.05264       0.0738222       0.0733903 
        1.06832       0.0714658       0.0710215 
        1.08405       0.0691707       0.0687526 
        1.09979       0.0670902        0.066583 
        1.11537       0.0647853         0.06453 
        1.13105       0.0628131       0.0625527 
        1.14679       0.0609639       0.0606519 
        1.16256       0.0593268       0.0588277 
        1.17828       0.0575692       0.0570856 
        1.19395       0.0559109        0.055421 
         1.2097       0.0542412       0.0538153 
        1.22537        0.052611        0.052282 
          1.241       0.0511595       0.0508139 
        1.25666       0.0498297       0.0493994 
        1.27241       0.0483976       0.0480329 
        1.28819        0.047061       0.0467165 
        1.30392       0.0459126        0.045454 
        1.31957       0.0446177       0.0442444 
        1.33529       0.0435549       0.0430751 
        1.35108       0.0422759       0.0419439 
        1.36674       0.0413399       0.0408621 
         1.3824       0.0401529         0.03982 
        1.39811       0.0391242       0.0388113 
        1.41389       0.0382888       0.0378341 
        1.42964       0.0372412       0.0368927 
        1.44531        0.036364       0.0359884 
        1.46101       0.0354398       0.0351129 
        1.47667       0.0346327       0.0342695 
        1.49229        0.033862       0.0334565 
        1.50793       0.0330507       0.0326693 
        1.52367       0.0322802       0.0319027 
        1.53953       0.0314678        0.031156 
        1.55526       0.0307562       0.0304394 
        1.57092       0.0301755       0.0297486 
        1.58662       0.0294424       0.0290779 
        1.60235       0.0287574       0.0284268 
        1.61809       0.0281688       0.0277957 
        1.63369       0.0275403       0.0271895 
        1.64941       0.0269242       0.0265974 
        1.66519       0.0263623        0.026021 
        1.68085       0.0258153        0.025466 
        1.69652        0.025304       0.0249272 
        1.71228       0.0247077       0.0244012 
        1.72806       0.0242684       0.0238901 
        1.74368       0.0237368        0.023399 
        1.75933       0.0232636        0.022921 
        1.77505       0.0228262       0.0224542 
        1.79081       0.0223438       0.0219997 
         1.8065       0.0219207       0.0215599 
        1.82218       0.0214516       0.0211328 
        1.83797       0.0210563       0.0207144 
        1.85367       0.0206318       0.0203097 
        1.86928       0.0201912       0.0199185 
        1.88497       0.0198461       0.0195356 
        1.90073       0.0194272       0.0191614 
        1.91647       0.0191605       0.0187975 
        1.93218       0.0188347        0.018444 
        1.94787       0.0184163       0.0181002 
        1.96363       0.0180662       0.0177639 
        1.97935         0.01774       0.0174369 
        1.99499       0.0174525       0.0171201 
        2.01064       0.0171007       0.0168108 
         2.0264       0.0168213       0.0165073 
        2.04216       0.0165495       0.0162116 
        2.05781        0.016218       0.0159251 
        2.07353       0.0159559       0.0156445 
        2.08928       0.0156789       0.0153702 
        2.10499       0.0154476       0.0151032 
        2.12065       0.0151594       0.0148435 
        2.13633       0.0149085       0.0145898 
        2.15211       0.0146506       0.0143404 
        2.16785       0.0143574       0.0140976 
        2.18349       0.0141591        0.013862 
        2.19916       0.0139095       0.0136314 
        2.21489       0.0136854       0.0134053 
        2.23063       0.0134946       0.0131843 
         2.2463       0.0132814       0.0129693 
        2.26194       0.0130685       0.0127596 
        2.27765       0.0128658       0.0125536 
        2.29341       0.0126311       0.0123517 
        2.30914       0.0124398       0.0121547 
        2.32486       0.0122251       0.0119621 
        2.34061       0.0120491       0.0117734 
        2.35635       0.0118814       0.0115891 
        2.37203       0.0117319       0.0114093 
        2.38768       0.0115703       0.0112338 
        2.40339       0.0113567       0.0110614 
        2.41914       0.0111863       0.0108922 
        2.43483       0.0110482       0.0107272 
         2.4505       0.0108553        0.010566 
        2.46622       0.0106902       0.0104075 
        2.48195       0.0105376       0.0102524 
        2.49759       0.0103966       0.0101012 
        2.51328       0.0102232      0.00995278 
        2.52906       0.0100859       0.0098064 
        2.54479      0.00994947      0.00966355 
        2.56049      0.00978972      0.00952385 
        2.57618      0.00966326      0.00938707 
        2.59189      0.00951805       0.0092528 
        2.60758      0.00941858       0.0091214 
        2.62325      0.00925509      0.00899274 
        2.63898      0.00915164      0.00886614 
        2.65468      0.00900777      0.00874227 
        2.67044      0.00888095      0.00862026 
        2.68618      0.00875753       0.0085009 
        2.70184      0.00867944      0.00838429 
        2.71755      0.00854512       0.0082696 
        2.73329      0.00845249      0.00815691 
        2.74897       0.0083082      0.00804671 
        2.76462      0.00820556      0.00793882 
        2.78034      0.00810873      0.00783247 
        2.79607      0.00799981      0.00772799 
        2.81179      0.00789446      0.00762555 
        2.82749      0.00779988      0.00752511 
        2.84321      0.00769683      0.00742638 
        2.85893      0.00760383      0.00732948 
        2.87462      0.00750455      0.00723448 
        2.89033      0.00740647      0.00714111 
        2.90605       0.0073041      0.00704931 
        2.92176      0.00722244       0.0069592 
        2.93747      0.00713677      0.00687073 
        2.95318      0.00704025      0.00678379 
        2.96891      0.00694943      0.00669833 
        2.98456      0.00686656      0.00661474 
        3.00023      0.00681082      0.00653248 
        3.01596      0.00670833      0.00645136 
        3.03164      0.00662452      0.00637188 
        3.04738      0.00655659      0.00629351 
         3.0631       0.0064631      0.00621651 
        3.07883      0.00640871       0.0061408 
        3.09456      0.00631989      0.00606638 
        3.11026      0.00623482      0.00599332 
        3.12596       0.0061855      0.00592149 
        3.14163      0.00611014      0.00585101 
        3.15734      0.00605246      0.00578153 
        3.17308      0.00598289      0.00571302 
        3.18879      0.00589163      0.00564581 
        3.20447      0.00584572       0.0055798 
         3.2202      0.00576668      0.00551466 
         3.2359      0.00571119      0.00545068 
        3.25157       0.0056396      0.00538788 
        3.26729      0.00557338      0.00532588 
        3.28304      0.00552691      0.00526476 
        3.29877      0.00545619      0.00520468 
        3.31446      0.00539392      0.00514568 
        3.33014      0.00533542      0.00508766 
        3.34585      0.00529577      0.00503045 
        3.36158      0.00523534      0.00497405 
        3.37727      0.00516687      0.00491869 
        3.39294      0.00511234      0.00486424 
        3.40867      0.00506507      0.00481043 
        3.42439      0.00501201      0.00475747 
        3.44008      0.00495806      0.00470542 
        3.45578       0.0049072      0.00465411 
        3.47153      0.00485381      0.00460347 
        3.48724      0.00479927      0.00455368 
        3.50292      0.00475986      0.00450475 
        3.51859      0.00472948      0.00445656 
        3.53431      0.00467047      0.00440894 
        3.55007      0.00461513      0.00436191 
        3.56577      0.00456779      0.00431576 
        3.58146      0.00452848       0.0042703 
        3.59719      0.00449184      0.00422539 
        3.61292      0.00444121      0.00418116 
        3.62859      0.00438416      0.00413773 
        3.64429      0.00435843      0.00409484 
        3.66003      0.00431678      0.00405244 
        3.67578      0.00427076      0.00401066 
        3.69146      0.00424109      0.00396963 
        3.70712      0.00418684      0.00392925 
        3.72284      0.00415282       0.0038893 
        3.73853       0.0041026      0.00384997 
        3.75422      0.00407494      0.00381118 
        3.76993      0.00404119      0.00377289 
        3.78564       0.0040074      0.00373516 
        3.80137      0.00396456      0.00369788 
        3.81707      0.00392286      0.00366119 
        3.83279      0.00388442      0.00362498 
        3.84853      0.00385716       0.0035892 
        3.86424      0.00382172      0.00355399 
        3.87992      0.00378977       0.0035193 
        3.89561      0.00375716      0.00348508 
        3.91134      0.00372255      0.00345125 
        3.92704      0.00370075      0.00341791 
        3.94273      0.00366024      0.00338504 
        3.95845      0.00364118      0.00335256 
        3.97418       0.0036011       0.0033205 
        3.98988      0.00356389      0.00328891 
        4.00554      0.00353736      0.00325781 
        4.02125      0.00350325      0.00322704 
        4.03698      0.00345173      0.00319662 
        4.05268      0.00342642      0.00316666 
        4.06839      0.00339654      0.00313707 
         4.0841      0.00336751      0.00310787 
        4.09983      0.00334442      0.00307901 
        4.11555      0.00330351      0.00305053 
        4.13124      0.00329027      0.00302248 
        4.14693      0.00326005      0.00299478 
        4.16266      0.00323931      0.00296736 
        4.17839      0.00322059       0.0029403 
        4.19408      0.00318571      0.00291364 
        4.20977      0.00316351      0.00288731 
        4.22551      0.00314082      0.00286124 
        4.24123      0.00312671      0.00283553 
        4.25691      0.00311199       0.0028102 
        4.27259      0.00308578      0.00278518 
        4.28831      0.00307131      0.00276042 
        4.30404      0.00304712      0.00273593 
        4.31974      0.00303978       0.0027118 
        4.33543      0.00301654      0.00268798 
        4.35116      0.00300092      0.00266439 
        4.36688      0.00298459      0.00264109 
        4.38255      0.00297466      0.00261817 
        4.39825      0.00296506      0.00259546 
        4.41398      0.00295394      0.00257299 
         4.4297      0.00293216      0.00255081 
        4.44541      0.00292589      0.00252889 
        4.46111      0.00291642      0.00250726 
        4.47683      0.00290567      0.00248586 
        4.49251      0.00289685      0.00246476 
        4.50819      0.00288732      0.00244391 
         4.5239      0.00288181      0.00242327 
        4.53962      0.00288022      0.00240285 
        4.55535      0.00287039      0.00238266 
        4.57106      0.00287338      0.00236273 
        4.58678      0.00286632      0.00234303 
         4.6025      0.00286785      0.00232355 
        4.61821      0.00285805       0.0023043 
        4.63391      0.00286741      0.00228529 
         4.6496      0.00285214       0.0022665 
        4.66532      0.00286491       0.0022479 
        4.68103      0.00286113      0.00222952 
        4.69673      0.00286517      0.00221137 
        4.71241      0.00287239      0.00219344 
        4.72811      0.00287116      0.00217567 
        4.74384      0.00287653      0.00215809 
        4.75955      0.00289557      0.00214073 
        4.77525      0.00290316      0.00212357 
        4.79096      0.00290869      0.00210657 
        4.80669      0.00291175      0.00208976 
         4.8224      0.00292518      0.00207316 
        4.83809      0.00292985      0.00205675 
        4.85379      0.00294726      0.00204051 
         4.8695      0.00296703      0.00202444 
        4.88521      0.00298154      0.00200855 
        4.90093      0.00299254      0.00199282 
        4.91663      0.00301592      0.00197729 
        4.93234       0.0030291       0.0019619 
        4.94807      0.00304547      0.00194667 
        4.96377      0.00305888      0.00193163 
        4.97943      0.00309155      0.00191678 
        4.99514      0.00309787      0.00190205 
        5.01086      0.00313515      0.00188747 
        5.02654      0.00316622      0.00187307 
        5.04227      0.00318294      0.00185879 
          5.058      0.00321078      0.00184465 
        5.07371       0.0032323      0.00183069 
        5.08942      0.00328843      0.00181687 
        5.10513      0.00330213       0.0018032 
        5.12084      0.00333937      0.00178965 
        5.13656      0.00337553      0.00177626 
        5.15225      0.00341159      0.00176302 
        5.16796      0.00345898       0.0017499 
        5.18369      0.00347416       0.0017369 
         5.1994      0.00353959      0.00172406 
        5.21509      0.00355915      0.00171136 
        5.23079      0.00359992      0.00169878 
        5.24649      0.00365625      0.00168633 
        5.26217      0.00370804      0.00167402 
        5.27788      0.00374505      0.00166181 
        5.29359      0.00378891      0.00164973 
        5.30933      0.00384723      0.00163775 
        5.32504      0.00388757      0.00162591 
        5.34073      0.00395467       0.0016142 
        5.35646      0.00400966      0.00160258 
        5.37218      0.00406855      0.00159108 
        5.38789      0.00413387      0.00157971 
        5.40357      0.00417209      0.00156846 
        5.41929      0.00425519       0.0015573 
        5.43502      0.00432851      0.00154625 
         5.4507      0.00439315      0.00153534 
        5.46639      0.00443209      0.00152453 
        5.48212      0.00452239      0.00151379 
        5.49786      0.00461176      0.00150315 
        5.51353      0.00469501      0.00149267 
        5.52921      0.00474628      0.00148228 
        5.54495      0.00487825      0.00147195 
        5.56066      0.00494754      0.00146174 
        5.57637       0.0050298      0.00145162 
        5.59207       0.0051159      0.00144162 
        5.60778      0.00518966       0.0014317 
        5.62346      0.00528283      0.00142189 
        5.63916      0.00540052      0.00141216 
        5.65487       0.0055177      0.00140252 
         5.6706       0.0056086      0.00139297 
        5.68633       0.0057094      0.00138349 
        5.70203       0.0058513      0.00137413 
        5.71773      0.00589444      0.00136485 
        5.73344      0.00603898      0.00135566 
        5.74916       0.0062125      0.00134654 
        5.76486      0.00629732      0.00133752 
        5.78054      0.00641618       0.0013286 
        5.79626      0.00655226      0.00131974 
          5.812      0.00671011      0.00131095 
         5.8277      0.00682932      0.00130226 
        5.84339       0.0069746      0.00129365 
        5.85911      0.00715454      0.00128511 
        5.87484      0.00729187      0.00127665 
        5.89053      0.00748193      0.00126827 
        5.90623      0.00762792      0.00125998 
        5.92195      0.00779824      0.00125174 
        5.93767      0.00798124      0.00124358 
        5.95336      0.00815051      0.00123551 
        5.96905      0.00837077      0.00122751 
        5.98476      0.00854282      0.00121957 
        6.00048      0.00877545       0.0012117 
        6.01617        0.008949      0.00120392 
        6.03185      0.00913847      0.00119621 
        6.04756      0.00936547      0.00118855 
        6.06331      0.00956439      0.00118094 
        6.07903      0.00982624      0.00117342 
        6.09473       0.0100766      0.00116596 
        6.11044       0.0103529      0.00115857 
        6.12616       0.0105759      0.00115124 
        6.14186       0.0107775      0.00114399 
        6.15755       0.0111354       0.0011368 
        6.17326       0.0113361      0.00112966 
        6.18898       0.0116452      0.00112258 
        6.20467       0.0119576      0.00111558 
        6.22036       0.0121982      0.00110864 
         6.2361       0.0124612      0.00110174 
         6.2518       0.0128696      0.00109491 
        6.26748       0.0131316      0.00108815 
        6.28319       0.0135433      0.00108143 
        6.29893       0.0139029      0.00107477 
        6.31463       0.0142082      0.00106817 
        6.33033       0.0145766      0.00106163 
        6.34604       0.0149549      0.00105514 
        6.36177       0.0152822       0.0010487 
        6.37747       0.0158754      0.00104232 
