# k  (h/Mpc)    Pcb(k)  (Mpc/h)^3    Pcb_linear(k) (Mpc/h)^3   ShotnoiseSubtracted = true
      0.0200456         713.658          724.65 
      0.0350414         531.784         533.413 
      0.0492313         406.323         405.355 
      0.0637834           348.3         347.137 
      0.0800726          269.34          267.28 
       0.096163         195.461         195.426 
       0.111083          164.51         166.092 
       0.126058         148.122         148.146 
       0.142273         120.589         119.257 
       0.158546         97.1897         95.9183 
        0.17375         85.4214         85.9553 
       0.188953         77.7777         77.4302 
       0.204907         67.8656         65.5917 
       0.220756         57.4776         56.3334 
        0.23588         52.0723         51.3233 
         0.2514          46.911         46.6019 
       0.267535          41.664         40.9511 
       0.283568         37.2645         36.4301 
       0.299022         34.3034         33.4266 
       0.314451         30.9083         30.6456 
       0.330372         28.2933         27.6863 
       0.346141         25.7799         25.2161 
       0.361624         23.9668          23.311 
       0.377134         22.3969         21.5599 
       0.392932         19.9723         19.8327 
       0.408854         19.0349         18.3069 
       0.424564         17.6741         17.0309 
       0.440253         16.4141         15.8674 
       0.455999         15.4483         14.7715 
       0.471626         14.5265         13.7923 
        0.48727         13.5811         12.9244 
       0.502856         12.6956         12.1316 
       0.518488         12.1283         11.3926 
       0.534347         11.5495         10.7072 
       0.550082         10.6137         10.0902 
       0.565732         9.84433         9.52509 
       0.581496         9.60726         8.99687 
       0.597222          9.1822         8.50995 
       0.612804         8.58941         8.06576 
       0.628434         8.28397         7.65284 
       0.644267         7.88471         7.26406 
       0.660051         7.45211         6.90349 
       0.675724         7.10709          6.5698 
       0.691403         6.85248         6.25823 
       0.707174          6.5029         5.96543 
       0.722871         6.22204         5.69283 
        0.73838         5.99558         5.44047 
       0.754018         5.79936         5.20175 
       0.769845         5.50062         4.97499 
        0.78569          5.3112         4.76177 
       0.801365         5.08579         4.56335 
       0.817031         4.91598         4.37655 
       0.832809         4.73517         4.19919 
       0.848511         4.49311          4.0326 
       0.864097         4.32347         3.87634 
       0.879701         4.17884         3.72834 
       0.895507         4.02469         3.58643 
       0.911279         3.94828         3.45231 
        0.92691         3.79631         3.32627 
       0.942635         3.64157         3.20591 
       0.958396         3.51067         3.09135 
       0.974128         3.41003         2.98267 
       0.989692         3.33827         2.88038 
        1.00528         3.19698         2.78281 
        1.02113         3.07877         2.68829 
        1.03692         3.02871         2.59859 
        1.05264          2.9188         2.51345 
        1.06832         2.84704         2.43233 
        1.08405         2.71489         2.35462 
        1.09979         2.65852         2.28032 
        1.11537         2.59372         2.21001 
        1.13105         2.52974         2.14229 
        1.14679         2.46092         2.07719 
        1.16256         2.37656         2.01472 
        1.17828         2.32326         1.95505 
        1.19395         2.26019         1.89805 
         1.2097         2.16412         1.84306 
        1.22537         2.12726         1.79054 
          1.241         2.08041         1.74026 
        1.25666         2.05856         1.69182 
        1.27241         1.96615         1.64502 
        1.28819         1.92144         1.59994 
        1.30392         1.89036          1.5567 
        1.31957         1.84409         1.51527 
        1.33529         1.78941         1.47523 
        1.35108         1.74991         1.43649 
        1.36674         1.69397         1.39944 
         1.3824         1.66377         1.36375 
        1.39811         1.62282          1.3292 
        1.41389         1.59492         1.29573 
        1.42964         1.56034         1.26349 
        1.44531         1.52156         1.23252 
        1.46101         1.49616         1.20254 
        1.47667         1.43882         1.17366 
        1.49229         1.43029         1.14581 
        1.50793         1.39166         1.11885 
        1.52367           1.369          1.0926 
        1.53953         1.32638         1.06702 
        1.55526         1.30345         1.04248 
        1.57092         1.27679         1.01882 
        1.58662         1.25623        0.995853 
        1.60235         1.22808        0.973556 
        1.61809          1.1976         0.95194 
        1.63369         1.18991        0.931182 
        1.64941         1.15517        0.910902 
        1.66519         1.13622        0.891161 
        1.68085         1.10268        0.872154 
        1.69652         1.08617        0.853702 
        1.71228          1.0726        0.835687 
        1.72806         1.04263        0.818185 
        1.74368         1.03291        0.801366 
        1.75933         1.00714        0.784992 
        1.77505        0.991818        0.769005 
        1.79081        0.973463        0.753441 
         1.8065        0.948732        0.738381 
        1.82218        0.940169         0.72375 
        1.83797        0.922239        0.709421 
        1.85367        0.914333        0.695564 
        1.86928        0.894391        0.682165 
        1.88497        0.874398         0.66905 
        1.90073        0.857511        0.656236 
        1.91647        0.851213        0.643774 
        1.93218          0.8307        0.631666 
        1.94787        0.817225        0.619891 
        1.96363        0.802791        0.608373 
        1.97935        0.787854        0.597175 
        1.99499        0.775809        0.586326 
        2.01064         0.76334        0.575734 
         2.0264        0.751576         0.56534 
        2.04216        0.742415        0.555211 
        2.05781        0.728743        0.545398 
        2.07353         0.71641         0.53579 
        2.08928        0.701361        0.526394 
        2.10499        0.693884        0.517253 
        2.12065        0.688286        0.508358 
        2.13633        0.675091        0.499667 
        2.15211        0.662037        0.491126 
        2.16785        0.651459        0.482811 
        2.18349        0.641911        0.474743 
        2.19916        0.634624        0.466845 
        2.21489        0.622794        0.459102 
        2.23063        0.614695        0.451532 
         2.2463        0.609067        0.444168 
        2.26194        0.591561        0.436989 
        2.27765        0.587145        0.429934 
        2.29341         0.58157        0.423018 
        2.30914        0.575289        0.416271 
        2.32486        0.563552        0.409676 
        2.34061        0.555207        0.403214 
        2.35635        0.545604          0.3969 
        2.37203        0.540067        0.390744 
        2.38768         0.53241        0.384733 
        2.40339         0.52663        0.378828 
        2.41914        0.519092        0.373034 
        2.43483        0.511708        0.367384 
         2.4505        0.503398        0.361862 
        2.46622        0.497104        0.356435 
        2.48195        0.493744        0.351121 
        2.49759        0.485832        0.345945 
        2.51328        0.477394        0.340861 
        2.52906        0.473845        0.335848 
        2.54479         0.46586        0.330955 
        2.56049        0.457517        0.326171 
        2.57618        0.453639        0.321486 
        2.59189        0.449329        0.316888 
        2.60758        0.444292        0.312388 
        2.62325         0.43681        0.307981 
        2.63898        0.432581        0.303646 
        2.65468        0.425479        0.299403 
        2.67044        0.420987        0.295225 
        2.68618        0.415869        0.291137 
        2.70184        0.411224        0.287143 
        2.71755        0.404869        0.283216 
        2.73329        0.400307        0.279356 
        2.74897         0.39653        0.275582 
        2.76462        0.391609        0.271887 
        2.78034        0.386081        0.268245 
        2.79607        0.382545        0.264667 
        2.81179        0.377539        0.261158 
        2.82749        0.373328        0.257718 
        2.84321        0.369878        0.254337 
        2.85893         0.36506        0.251018 
        2.87462        0.360508        0.247765 
        2.89033        0.356241        0.244567 
        2.90605        0.353257        0.241423 
        2.92176        0.348405        0.238337 
        2.93747         0.34414        0.235307 
        2.95318        0.341059         0.23233 
        2.96891        0.337192        0.229403 
        2.98456        0.333409         0.22654 
        3.00023        0.330603        0.223723 
        3.01596        0.326175        0.220945 
        3.03164        0.323111        0.218223 
        3.04738        0.317932        0.215539 
         3.0631        0.316541        0.212902 
        3.07883        0.311745        0.210309 
        3.09456        0.308697         0.20776 
        3.11026        0.306479        0.205258 
        3.12596         0.30209        0.202798 
        3.14163        0.299708        0.200384 
        3.15734        0.297367        0.198004 
        3.17308        0.294289        0.195658 
        3.18879        0.291327        0.193357 
        3.20447        0.286255        0.191096 
         3.2202        0.285638        0.188865 
         3.2359        0.282015        0.186674 
        3.25157        0.279835        0.184523 
        3.26729        0.276664          0.1824 
        3.28304        0.274971        0.180306 
        3.29877        0.271204        0.178249 
        3.31446        0.269017        0.176228 
        3.33014        0.266823        0.174241 
        3.34585        0.265589        0.172282 
        3.36158        0.261832         0.17035 
        3.37727         0.26031        0.168454 
        3.39294        0.257082         0.16659 
        3.40867        0.254467        0.164747 
        3.42439        0.252905        0.162933 
        3.44008        0.250116         0.16115 
        3.45578        0.248933        0.159393 
        3.47153         0.24628        0.157659 
        3.48724        0.244413        0.155953 
        3.50292        0.242386        0.154278 
        3.51859        0.239228        0.152627 
        3.53431        0.237241        0.150997 
        3.55007        0.236107        0.149386 
        3.56577        0.233178        0.147805 
        3.58146        0.231413        0.146248 
        3.59719        0.229973         0.14471 
        3.61292        0.228682        0.143195 
        3.62859        0.225845        0.141708 
        3.64429        0.223644        0.140239 
        3.66003        0.222235        0.138787 
        3.67578        0.220618        0.137356 
        3.69146         0.21878        0.135951 
        3.70712        0.217523        0.134568 
        3.72284        0.215322          0.1332 
        3.73853        0.214109        0.131853 
        3.75422        0.212266        0.130524 
        3.76993        0.210494        0.129213 
        3.78564        0.208467        0.127921 
        3.80137         0.20717        0.126644 
        3.81707        0.205711        0.125388 
        3.83279        0.204102        0.124148 
        3.84853        0.202133        0.122922 
        3.86424        0.200756        0.121716 
        3.87992        0.199484        0.120528 
        3.89561        0.197555        0.119356 
        3.91134        0.196559        0.118198 
        3.92704        0.194486        0.117056 
        3.94273        0.192777         0.11593 
        3.95845        0.191676        0.114818 
        3.97418        0.190747         0.11372 
        3.98988        0.188395        0.112638 
        4.00554        0.187546        0.111573 
        4.02125        0.185912        0.110519 
        4.03698        0.183435        0.109477 
        4.05268        0.182272        0.108451 
        4.06839        0.179929        0.107438 
         4.0841        0.177873        0.106438 
        4.09983        0.176129        0.105449 
        4.11555        0.174216        0.104474 
        4.13124        0.171963        0.103513 
        4.14693        0.171064        0.102564 
        4.16266          0.1689        0.101625 
        4.17839        0.167517        0.100699 
        4.19408        0.166065       0.0997858 
        4.20977        0.164913        0.098884 
        4.22551        0.163307       0.0979912 
        4.24123        0.161738       0.0971105 
        4.25691        0.160268       0.0962432 
        4.27259        0.158858       0.0953862 
        4.28831        0.157446       0.0945381 
        4.30404        0.156352       0.0936996 
        4.31974        0.155763       0.0928732 
        4.33543        0.154236       0.0920574 
        4.35116        0.152705       0.0912494 
        4.36688        0.151957       0.0904516 
        4.38255        0.150387       0.0896664 
        4.39825        0.150118       0.0888889 
        4.41398        0.148999       0.0881192 
         4.4297        0.148267       0.0873595 
        4.44541        0.147403        0.086609 
        4.46111        0.146146       0.0858679 
        4.47683        0.145781       0.0851351 
        4.49251        0.144793       0.0844125 
        4.50819        0.144013       0.0836984 
         4.5239        0.143352       0.0829917 
        4.53962        0.142867       0.0822924 
        4.55535        0.142088       0.0816009 
        4.57106        0.141683       0.0809184 
        4.58678        0.140711       0.0802436 
         4.6025        0.140535       0.0795764 
        4.61821        0.140312        0.078917 
        4.63391        0.139807       0.0782661 
         4.6496        0.139445       0.0776227 
        4.66532         0.13931       0.0769858 
        4.68103        0.138904       0.0763563 
        4.69673        0.138045       0.0757345 
        4.71241        0.138421       0.0751203 
        4.72811        0.137933        0.074512 
        4.74384        0.137836       0.0739097 
        4.75955        0.138124       0.0733151 
        4.77525        0.138076       0.0727274 
        4.79096        0.137468       0.0721455 
        4.80669        0.137651       0.0715698 
         4.8224        0.137865        0.071001 
        4.83809        0.137605       0.0704391 
        4.85379        0.137594        0.069883 
         4.8695        0.137744       0.0693325 
        4.88521        0.138026       0.0687883 
        4.90093        0.138332       0.0682498 
        4.91663        0.138359       0.0677177 
        4.93234        0.138133       0.0671907 
        4.94807        0.138898        0.066669 
        4.96377        0.139461       0.0661539 
        4.97943         0.14018       0.0656454 
        4.99514        0.139943        0.065141 
        5.01086        0.140886       0.0646415 
        5.02654        0.140973       0.0641486 
        5.04227        0.141704       0.0636595 
          5.058        0.142107       0.0631753 
        5.07371        0.143097       0.0626971 
        5.08942        0.143304       0.0622238 
        5.10513        0.144265       0.0617555 
        5.12084        0.145014       0.0612917 
        5.13656        0.145227       0.0608329 
        5.15225        0.146501       0.0603796 
        5.16796        0.147022       0.0599302 
        5.18369        0.147756        0.059485 
         5.1994        0.149191       0.0590453 
        5.21509        0.149769       0.0586104 
        5.23079         0.15078       0.0581794 
        5.24649        0.152431       0.0577531 
        5.26217        0.153131       0.0573314 
        5.27788        0.154224       0.0569134 
        5.29359        0.154938       0.0564996 
        5.30933        0.156558       0.0560892 
        5.32504         0.15777       0.0556837 
        5.34073        0.158749       0.0552827 
        5.35646        0.159285       0.0548849 
        5.37218        0.161601       0.0544909 
        5.38789        0.162261       0.0541015 
        5.40357        0.163509       0.0537164 
        5.41929        0.165511       0.0533342 
        5.43502        0.166834       0.0529557 
         5.4507        0.168695       0.0525819 
        5.46639        0.169703       0.0522116 
        5.48212        0.171666       0.0518441 
        5.49786        0.173458       0.0514797 
        5.51353        0.174889       0.0511206 
        5.52921        0.175864       0.0507647 
        5.54495        0.178513       0.0504111 
        5.56066        0.179859       0.0500613 
        5.57637        0.181823       0.0497149 
        5.59207        0.183931       0.0493721 
        5.60778        0.186018       0.0490325 
        5.62346        0.188195       0.0486965 
        5.63916         0.19036       0.0483635 
        5.65487        0.191873       0.0480334 
         5.6706        0.194309        0.047706 
        5.68633        0.195801       0.0473816 
        5.70203        0.198006       0.0470609 
        5.71773        0.201018       0.0467432 
        5.73344        0.201943       0.0464283 
        5.74916         0.20518       0.0461161 
        5.76486        0.207429       0.0458072 
        5.78054        0.209171       0.0455017 
        5.79626        0.211757       0.0451981 
          5.812        0.214672        0.044897 
         5.8277        0.217018       0.0445995 
        5.84339        0.219227       0.0443048 
        5.85911        0.222578       0.0440122 
        5.87484          0.2246       0.0437223 
        5.89053        0.227905       0.0434356 
        5.90623        0.229797       0.0431514 
        5.92195        0.232382       0.0428692 
        5.93767        0.234704       0.0425898 
        5.95336        0.238852       0.0423134 
        5.96905        0.240311       0.0420395 
        5.98476         0.24243       0.0417677 
        6.00048        0.246934       0.0414982 
        6.01617        0.248649       0.0412315 
        6.03185        0.252063       0.0409675 
        6.04756        0.255659       0.0407051 
        6.06331        0.257293       0.0404446 
        6.07903        0.260483       0.0401869 
        6.09473        0.263397       0.0399317 
        6.11044        0.266748       0.0396785 
        6.12616        0.268564       0.0394276 
        6.14186        0.273023       0.0391791 
        6.15755        0.275745       0.0389327 
        6.17326        0.279633       0.0386884 
        6.18898        0.281402        0.038446 
        6.20467        0.285866       0.0382062 
        6.22036        0.288626       0.0379684 
         6.2361        0.290801       0.0377321 
         6.2518        0.295241       0.0374982 
        6.26748         0.29685       0.0372667 
        6.28319        0.301022       0.0370367 
        6.29893        0.304216       0.0368084 
        6.31463        0.307677       0.0365824 
        6.33033        0.310555       0.0363584 
        6.34604        0.313347       0.0361361 
        6.36177        0.317466       0.0359155 
        6.37747        0.321813       0.0356972 
