# k  (h/Mpc)    Pcb(k)  (Mpc/h)^3    Pcb_linear(k) (Mpc/h)^3   ShotnoiseSubtracted = true
      0.0200456         23518.7         23986.2 
      0.0350414         18198.3         17656.2 
      0.0492313         13028.9         13417.4 
      0.0637834         10758.5         11490.4 
      0.0800726         8249.62         8847.08 
       0.096163         6676.66         6468.69 
       0.111083         5688.54         5497.71 
       0.126058         4717.44         4903.69 
       0.142273         4039.35         3947.45 
       0.158546         3348.21         3174.94 
        0.17375         3077.13         2845.16 
       0.188953         2928.68         2562.98 
       0.204907         2504.74         2171.12 
       0.220756         2277.52         1864.66 
        0.23588         2053.86         1698.82 
         0.2514         1870.72         1542.54 
       0.267535         1796.66          1355.5 
       0.283568         1614.18         1205.85 
       0.299022          1544.2         1106.44 
       0.314451         1608.35         1014.38 
       0.330372         1442.08          916.43 
       0.346141          1326.3         834.664 
       0.361624         1272.68         771.604 
       0.377134         1224.65         713.644 
       0.392932         1166.04         656.471 
       0.408854         1121.62         605.968 
       0.424564         1100.38         563.732 
       0.440253         1028.75         525.219 
       0.455999         984.734         488.944 
       0.471626          996.37         456.533 
        0.48727          944.95         427.805 
       0.502856         914.345         401.563 
       0.518488         883.047         377.099 
       0.534347         851.076         354.414 
       0.550082         814.084         333.992 
       0.565732         799.319         315.285 
       0.581496         781.557         297.801 
       0.597222         768.892         281.683 
       0.612804         749.954          266.98 
       0.628434         720.279         253.312 
       0.644267          700.68         240.444 
       0.660051         693.067         228.509 
       0.675724          680.02         217.463 
       0.691403         656.125          207.15 
       0.707174         638.915         197.459 
       0.722871         632.638         188.435 
        0.73838         617.949         180.082 
       0.754018         606.181          172.18 
       0.769845         594.906         164.674 
        0.78569         581.303         157.617 
       0.801365         563.491         151.049 
       0.817031         556.991         144.866 
       0.832809         546.844         138.995 
       0.848511         537.109         133.481 
       0.864097         528.999         128.309 
       0.879701         527.922          123.41 
       0.895507         506.395         118.712 
       0.911279         501.794         114.273 
        0.92691         492.647         110.101 
       0.942635          486.29         106.117 
       0.958396         473.168         102.325 
       0.974128         465.489         98.7279 
       0.989692         452.834         95.3419 
        1.00528         448.108         92.1122 
        1.02113         439.193         88.9838 
        1.03692          432.73         86.0145 
        1.05264         426.249         83.1965 
        1.06832         416.282         80.5112 
        1.08405         414.345         77.9391 
        1.09979         404.488         75.4797 
        1.11537         394.327         73.1524 
        1.13105         389.691         70.9109 
        1.14679          382.14         68.7561 
        1.16256         379.785         66.6881 
        1.17828          372.82         64.7132 
        1.19395         364.546         62.8262 
         1.2097         360.025          61.006 
        1.22537         353.681         59.2678 
          1.241         347.343         57.6036 
        1.25666         342.915              56 
        1.27241         338.707         54.4509 
        1.28819         329.859         52.9586 
        1.30392         328.475         51.5274 
        1.31957         320.969         50.1562 
        1.33529         316.083         48.8306 
        1.35108         314.526         47.5484 
        1.36674         305.678          46.322 
         1.3824         301.375         45.1407 
        1.39811         297.163         43.9971 
        1.41389         291.325         42.8894 
        1.42964         287.163         41.8222 
        1.44531         281.926         40.7971 
        1.46101         276.058         39.8046 
        1.47667         274.801         38.8486 
        1.49229         270.348         37.9269 
        1.50793         265.268         37.0345 
        1.52367         260.517         36.1655 
        1.53953         256.501         35.3189 
        1.55526         252.851         34.5066 
        1.57092         249.592         33.7235 
        1.58662         244.756         32.9632 
        1.60235         241.516         32.2252 
        1.61809         238.821         31.5097 
        1.63369          234.47         30.8226 
        1.64941         231.268         30.1513 
        1.66519         227.382         29.4979 
        1.68085          223.36         28.8687 
        1.69652         220.599          28.258 
        1.71228         217.144         27.6616 
        1.72806         213.918         27.0823 
        1.74368          210.94         26.5256 
        1.75933         208.934         25.9836 
        1.77505         205.446         25.4544 
        1.79081         202.751         24.9393 
         1.8065         200.643         24.4407 
        1.82218         195.882         23.9565 
        1.83797         193.986         23.4822 
        1.85367          190.63         23.0235 
        1.86928         187.363           22.58 
        1.88497         185.333         22.1459 
        1.90073         183.847         21.7217 
        1.91647         180.112         21.3092 
        1.93218          177.54         20.9084 
        1.94787         174.222         20.5187 
        1.96363         173.074         20.1374 
        1.97935         170.909         19.7668 
        1.99499         168.517         19.4077 
        2.01064         164.468         19.0571 
         2.0264         163.733          18.713 
        2.04216         160.691         18.3778 
        2.05781         158.939         18.0529 
        2.07353         157.779         17.7349 
        2.08928         155.526         17.4239 
        2.10499         152.414         17.1213 
        2.12065         150.751         16.8269 
        2.13633         148.625         16.5392 
        2.15211         146.487         16.2565 
        2.16785         144.744         15.9813 
        2.18349         142.978         15.7142 
        2.19916         140.857         15.4528 
        2.21489         138.985         15.1965 
        2.23063         137.384         14.9459 
         2.2463         135.355         14.7022 
        2.26194         133.469         14.4646 
        2.27765         131.534          14.231 
        2.29341         130.213         14.0021 
        2.30914          128.44         13.7788 
        2.32486         126.667         13.5605 
        2.34061          124.52         13.3466 
        2.35635          123.42         13.1376 
        2.37203          122.11         12.9338 
        2.38768         120.923         12.7348 
        2.40339         118.523         12.5394 
        2.41914         117.077         12.3476 
        2.43483         115.726         12.1606 
         2.4505         114.621         11.9778 
        2.46622         112.487         11.7982 
        2.48195         111.566         11.6223 
        2.49759         109.472         11.4509 
        2.51328         108.474         11.2826 
        2.52906         107.562         11.1167 
        2.54479         105.899         10.9548 
        2.56049         104.729         10.7964 
        2.57618         103.473         10.6414 
        2.59189         102.475         10.4891 
        2.60758         100.938         10.3402 
        2.62325         99.3873         10.1943 
        2.63898         98.2696         10.0508 
        2.65468         97.1661         9.91039 
        2.67044         96.3472         9.77209 
        2.68618          94.677         9.63677 
        2.70184         93.7011         9.50458 
        2.71755         92.4478         9.37457 
        2.73329         91.1585         9.24682 
        2.74897         90.4324          9.1219 
        2.76462         89.5761         8.99958 
        2.78034         88.5249         8.87903 
        2.79607         87.3698         8.76059 
        2.81179         86.3503         8.64446 
        2.82749          85.521          8.5306 
        2.84321         84.1523         8.41868 
        2.85893         82.9939         8.30882 
        2.87462          82.238         8.20114 
        2.89033          81.417         8.09529 
        2.90605          80.293         7.99123 
        2.92176         79.5486         7.88908 
        2.93747         78.7365         7.78878 
        2.95318         77.5496         7.69023 
        2.96891         76.8665         7.59335 
        2.98456         75.7101         7.49859 
        3.00023         75.0073         7.40533 
        3.01596         74.4317         7.31338 
        3.03164         73.5129         7.22328 
        3.04738         72.9535         7.13444 
         3.0631          71.935         7.04714 
        3.07883         71.1767         6.96132 
        3.09456         70.2474         6.87696 
        3.11026         69.6882         6.79414 
        3.12596         68.6714          6.7127 
        3.14163         68.1386         6.63281 
        3.15734         67.2782         6.55404 
        3.17308         66.6494         6.47638 
        3.18879         66.0513          6.4002 
        3.20447         65.2977         6.32537 
         3.2202          64.239         6.25151 
         3.2359         63.9554         6.17899 
        3.25157         63.3536         6.10779 
        3.26729         62.4308         6.03752 
        3.28304         61.7788         5.96822 
        3.29877         61.1177         5.90012 
        3.31446         60.4448         5.83323 
        3.33014         59.9105         5.76746 
        3.34585         59.2457         5.70261 
        3.36158         58.7337         5.63867 
        3.37727         58.1275         5.57592 
        3.39294         57.4644         5.51419 
        3.40867         56.7794         5.45319 
        3.42439         56.0578         5.39315 
        3.44008         55.5745         5.33415 
        3.45578         55.2123         5.27599 
        3.47153         54.5721         5.21858 
        3.48724          54.019         5.16213 
        3.50292          53.508         5.10666 
        3.51859         52.9609         5.05204 
        3.53431         52.4233         4.99806 
        3.55007         51.8375         4.94474 
        3.56577         51.3993         4.89242 
        3.58146         50.7208         4.84088 
        3.59719         50.3369         4.78998 
        3.61292         49.8245         4.73984 
        3.62859         49.3118         4.69061 
        3.64429         48.9028         4.64199 
        3.66003         48.1865         4.59392 
        3.67578         47.8478         4.54655 
        3.69146         47.3487         4.50004 
        3.70712          46.825         4.45427 
        3.72284         46.3953         4.40897 
        3.73853         46.0331         4.36439 
        3.75422         45.6643         4.32042 
        3.76993         45.1903         4.27702 
        3.78564         44.7565         4.23424 
        3.80137         44.2404         4.19198 
        3.81707         43.9363         4.15039 
        3.83279         43.5199         4.10934 
        3.84853         43.0729         4.06879 
        3.86424         42.6427         4.02886 
        3.87992         42.1539         3.98954 
        3.89561         41.9599         3.95075 
        3.91134         41.4054         3.91239 
        3.92704         41.1245          3.8746 
        3.94273         40.6496         3.83735 
        3.95845         40.3013         3.80052 
        3.97418         39.8599         3.76418 
        3.98988         39.5465         3.72836 
        4.00554          39.075         3.69312 
        4.02125         38.7579         3.65823 
        4.03698         38.4088         3.62374 
        4.05268         38.0645         3.58978 
        4.06839         37.7651         3.55624 
         4.0841         37.4682         3.52314 
        4.09983         37.1026         3.49042 
        4.11555           36.76         3.45813 
        4.13124         36.3134         3.42634 
        4.14693         36.1633         3.39493 
        4.16266         35.8003         3.36385 
        4.17839         35.3619         3.33317 
        4.19408         35.0518         3.30296 
        4.20977         34.7475         3.27311 
        4.22551         34.4673         3.24356 
        4.24123         34.1706          3.2144 
        4.25691         33.8302         3.18569 
        4.27259         33.5741         3.15733 
        4.28831         33.2955         3.12926 
        4.30404         32.9531          3.1015 
        4.31974         32.6274         3.07415 
        4.33543         32.3417         3.04714 
        4.35116         32.1121          3.0204 
        4.36688         31.7793         2.99399 
        4.38255         31.5418           2.968 
        4.39825          31.287         2.94227 
        4.41398         31.1637         2.91679 
         4.4297         30.7371         2.89164 
        4.44541         30.5049          2.8668 
        4.46111         30.2938         2.84227 
        4.47683         30.0505         2.81801 
        4.49251         29.7383         2.79409 
        4.50819         29.4506         2.77046 
         4.5239         29.1427         2.74707 
        4.53962          28.953         2.72392 
        4.55535         28.6433         2.70103 
        4.57106         28.4135         2.67844 
        4.58678         28.2273          2.6561 
         4.6025         27.9727         2.63402 
        4.61821         27.6843         2.61219 
        4.63391         27.5261         2.59064 
         4.6496         27.2664         2.56935 
        4.66532         27.0543         2.54826 
        4.68103         26.7707         2.52743 
        4.69673         26.6021         2.50685 
        4.71241         26.3645         2.48652 
        4.72811         26.1386         2.46638 
        4.74384         25.9424         2.44645 
        4.75955         25.7864         2.42677 
        4.77525         25.5509         2.40731 
        4.79096         25.3537         2.38805 
        4.80669         25.1002         2.36899 
         4.8224         24.9047         2.35017 
        4.83809         24.6962         2.33157 
        4.85379         24.5424         2.31316 
         4.8695         24.3011         2.29494 
        4.88521         24.0812         2.27692 
        4.90093         23.8949          2.2591 
        4.91663         23.7705         2.24149 
        4.93234         23.5623         2.22404 
        4.94807         23.3736         2.20678 
        4.96377         23.2081         2.18973 
        4.97943         22.9793         2.17289 
        4.99514          22.792          2.1562 
        5.01086         22.6511         2.13967 
        5.02654         22.4683         2.12335 
        5.04227         22.2695         2.10716 
          5.058         22.1081         2.09113 
        5.07371         21.9939          2.0753 
        5.08942         21.7685         2.05964 
        5.10513         21.5948         2.04413 
        5.12084         21.4255         2.02878 
        5.13656         21.2228          2.0136 
        5.15225         21.0898         1.99859 
        5.16796          20.951         1.98372 
        5.18369         20.7336         1.96898 
         5.1994         20.5799         1.95443 
        5.21509          20.418         1.94003 
        5.23079         20.2524         1.92576 
        5.24649         20.0983         1.91165 
        5.26217         19.9813          1.8977 
        5.27788         19.8059         1.88386 
        5.29359         19.6185         1.87016 
        5.30933         19.4885         1.85658 
        5.32504         19.3954         1.84316 
        5.34073         19.2304         1.82988 
        5.35646         19.0725         1.81672 
        5.37218         18.9406         1.80368 
        5.38789         18.8224         1.79079 
        5.40357         18.6166         1.77804 
        5.41929         18.5078         1.76539 
        5.43502          18.371         1.75286 
         5.4507         18.2594         1.74048 
        5.46639         18.0949         1.72823 
        5.48212         17.9571         1.71606 
        5.49786         17.8316           1.704 
        5.51353         17.6671         1.69212 
        5.52921          17.555         1.68033 
        5.54495         17.4154         1.66863 
        5.56066          17.286         1.65705 
        5.57637         17.1859         1.64559 
        5.59207         17.0361         1.63424 
        5.60778         16.9182           1.623 
        5.62346         16.8102         1.61188 
        5.63916         16.6769         1.60085 
        5.65487         16.5843         1.58993 
         5.6706         16.4539         1.57909 
        5.68633         16.3184         1.56835 
        5.70203         16.1915         1.55774 
        5.71773         16.0718         1.54722 
        5.73344         15.9787          1.5368 
        5.74916         15.8601         1.52647 
        5.76486         15.7524         1.51624 
        5.78054         15.5836         1.50613 
        5.79626         15.5341         1.49608 
          5.812         15.3589         1.48611 
         5.8277         15.2717         1.47626 
        5.84339         15.1687         1.46651 
        5.85911         15.0473         1.45682 
        5.87484         14.9446         1.44723 
        5.89053         14.8574         1.43774 
        5.90623          14.758         1.42833 
        5.92195         14.6218         1.41899 
        5.93767         14.5262         1.40974 
        5.95336         14.4294         1.40059 
        5.96905         14.3253         1.39153 
        5.98476         14.2164         1.38253 
        6.00048         14.1458         1.37361 
        6.01617         14.0284         1.36478 
        6.03185          13.917         1.35604 
        6.04756         13.8517         1.34736 
        6.06331         13.7399         1.33873 
        6.07903         13.6536          1.3302 
        6.09473         13.5379         1.32176 
        6.11044         13.4813         1.31338 
        6.12616         13.3775         1.30507 
        6.14186         13.2854         1.29685 
        6.15755         13.1939         1.28869 
        6.17326         13.1076          1.2806 
        6.18898         12.9886         1.27258 
        6.20467          12.924         1.26464 
        6.22036         12.8251         1.25677 
         6.2361         12.7359         1.24895 
         6.2518         12.6623         1.24121 
        6.26748         12.5641         1.23355 
        6.28319         12.4734         1.22593 
        6.29893         12.3917         1.21837 
        6.31463         12.2902         1.21089 
        6.33033         12.2242         1.20348 
        6.34604         12.1424         1.19612 
        6.36177          12.074         1.18882 
        6.37747         11.9821         1.18159 
