# k  (h/Mpc)    Pcb(k)  (Mpc/h)^3    Pcb_linear(k) (Mpc/h)^3   ShotnoiseSubtracted = true
      0.0200456         4388.18         4465.82 
      0.0350414         3235.64         3287.28 
      0.0492313         2491.29         2498.09 
      0.0637834         2160.95         2139.31 
      0.0800726         1671.36         1647.17 
       0.096163          1191.5         1204.36 
       0.111083         997.599         1023.58 
       0.126058         916.231         912.982 
       0.142273         755.477         734.946 
       0.158546         619.061         591.118 
        0.17375         529.389         529.719 
       0.188953         496.662         477.181 
       0.204907         448.812         404.224 
       0.220756         379.009         347.167 
        0.23588         340.826         316.291 
         0.2514         302.902         287.195 
       0.267535         279.684          252.37 
       0.283568         253.817         224.509 
       0.299022         235.705         205.999 
       0.314451         214.363          188.86 
       0.330372          198.31         170.623 
       0.346141         179.504           155.4 
       0.361624         170.308         143.659 
       0.377134         160.903         132.868 
       0.392932         145.043         122.223 
       0.408854         139.713         112.821 
       0.424564         133.961         104.957 
       0.440253         124.829         97.7866 
       0.455999         117.856         91.0328 
       0.471626         109.355         84.9984 
        0.48727         106.195         79.6497 
       0.502856         100.939          74.764 
       0.518488         97.3534         70.2093 
       0.534347         93.5268         65.9856 
       0.550082         86.3543         62.1834 
       0.565732         82.2848         58.7005 
       0.581496         79.6884         55.4452 
       0.597222          77.217         52.4445 
       0.612804         72.9604          49.707 
       0.628434         71.2138         47.1623 
       0.644267         69.2123         44.7664 
       0.660051         66.7168         42.5443 
       0.675724         63.8037         40.4879 
       0.691403         61.9597         38.5677 
       0.707174         60.2212         36.7633 
       0.722871         58.1457         35.0834 
        0.73838         56.6911         33.5281 
       0.754018         54.1244         32.0569 
       0.769845         52.9098         30.6595 
        0.78569         51.4745         29.3455 
       0.801365         49.7108         28.1227 
       0.817031         48.6016         26.9715 
       0.832809         47.8129         25.8784 
       0.848511         45.2422         24.8518 
       0.864097         44.3875         23.8888 
       0.879701         43.7172         22.9767 
       0.895507         42.9998         22.1022 
       0.911279         41.7326         21.2756 
        0.92691         40.6962         20.4989 
       0.942635          39.313         19.7572 
       0.958396         38.9394         19.0511 
       0.974128         37.8036         18.3814 
       0.989692         37.3466          17.751 
        1.00528         36.5432         17.1497 
        1.02113         35.2715         16.5672 
        1.03692         34.6627         16.0144 
        1.05264         34.0687         15.4897 
        1.06832         33.3469         14.9898 
        1.08405         32.7111         14.5109 
        1.09979         32.0316          14.053 
        1.11537         31.2736         13.6197 
        1.13105         31.0482         13.2024 
        1.14679         30.6294         12.8012 
        1.16256         29.6365         12.4161 
        1.17828         29.4141         12.0485 
        1.19395         28.6237         11.6971 
         1.2097         28.4451         11.3582 
        1.22537          27.833         11.0346 
          1.241         27.3837         10.7248 
        1.25666         26.6636         10.4262 
        1.27241          26.372         10.1378 
        1.28819         25.7626         9.85996 
        1.30392          25.577          9.5935 
        1.31957         25.3266         9.33821 
        1.33529         24.9894         9.09141 
        1.35108         24.3918         8.85268 
        1.36674         24.0303         8.62435 
         1.3824         23.5848          8.4044 
        1.39811         23.2984         8.19149 
        1.41389         23.0894         7.98525 
        1.42964         22.7521         7.78656 
        1.44531         22.5803          7.5957 
        1.46101         21.9527         7.41092 
        1.47667         21.7013         7.23292 
        1.49229         21.5045         7.06133 
        1.50793         21.1874         6.89518 
        1.52367         20.9621         6.73338 
        1.53953         20.7062         6.57577 
        1.55526         20.3525         6.42452 
        1.57092         20.0776         6.27872 
        1.58662         19.8397         6.13717 
        1.60235         19.5809         5.99976 
        1.61809         19.3723         5.86655 
        1.63369         19.1098         5.73862 
        1.64941          18.755         5.61364 
        1.66519         18.6815         5.49198 
        1.68085         18.4042         5.37484 
        1.69652         18.1445         5.26113 
        1.71228         17.9531         5.15011 
        1.72806         17.8184         5.04225 
        1.74368         17.5573          4.9386 
        1.75933         17.3465         4.83769 
        1.77505         17.1258         4.73917 
        1.79081         16.9031         4.64325 
         1.8065         16.8051         4.55044 
        1.82218         16.5098         4.46027 
        1.83797         16.3432         4.37197 
        1.85367         16.1601         4.28657 
        1.86928         16.0893         4.20399 
        1.88497         15.7941         4.12317 
        1.90073         15.7389          4.0442 
        1.91647         15.5598          3.9674 
        1.93218         15.4106         3.89278 
        1.94787         15.2203         3.82021 
        1.96363         15.1033         3.74923 
        1.97935         14.8964         3.68022 
        1.99499         14.6997         3.61336 
        2.01064         14.5436         3.54809 
         2.0264          14.398         3.48404 
        2.04216         14.2649         3.42162 
        2.05781          14.041         3.36114 
        2.07353         13.9559         3.30192 
        2.08928         13.8286         3.24402 
        2.10499         13.7206         3.18769 
        2.12065         13.4994         3.13287 
        2.13633         13.4725         3.07931 
        2.15211         13.2898         3.02668 
        2.16785         13.2406         2.97543 
        2.18349         13.1271         2.92571 
        2.19916         12.9251         2.87704 
        2.21489          12.836         2.82932 
        2.23063         12.6862         2.78267 
         2.2463         12.5416         2.73729 
        2.26194         12.4382         2.69305 
        2.27765          12.382         2.64957 
        2.29341         12.2352         2.60695 
        2.30914         12.0453         2.56536 
        2.32486         12.0175         2.52472 
        2.34061         11.8816          2.4849 
        2.35635         11.8003         2.44598 
        2.37203         11.6848         2.40805 
        2.38768         11.5298           2.371 
        2.40339         11.4174         2.33461 
        2.41914         11.2989         2.29891 
        2.43483         11.2788         2.26409 
         2.4505         11.1835         2.23005 
        2.46622         11.0496         2.19661 
        2.48195         10.9784         2.16386 
        2.49759         10.8723         2.13196 
        2.51328         10.7515         2.10063 
        2.52906         10.6626         2.06974 
        2.54479          10.569         2.03959 
        2.56049         10.4839          2.0101 
        2.57618         10.4446         1.98123 
        2.59189          10.295         1.95289 
        2.60758         10.2627         1.92516 
        2.62325         10.1725           1.898 
        2.63898         10.0039         1.87128 
        2.65468         9.92631         1.84514 
        2.67044         9.87072         1.81939 
        2.68618         9.78376          1.7942 
        2.70184         9.70931         1.76959 
        2.71755          9.6045         1.74538 
        2.73329         9.53699          1.7216 
        2.74897          9.4518         1.69834 
        2.76462         9.41626         1.67556 
        2.78034         9.28694         1.65312 
        2.79607         9.23105         1.63107 
        2.81179         9.15692         1.60945 
        2.82749         9.09938         1.58825 
        2.84321         9.05686         1.56741 
        2.85893         8.95163         1.54696 
        2.87462         8.85367         1.52691 
        2.89033         8.78335          1.5072 
        2.90605         8.71277         1.48783 
        2.92176         8.63752         1.46881 
        2.93747         8.57059         1.45013 
        2.95318         8.55198         1.43178 
        2.96891         8.45799         1.41375 
        2.98456         8.37946         1.39611 
        3.00023         8.30344         1.37874 
        3.01596          8.2824         1.36162 
        3.03164         8.20548         1.34485 
        3.04738         8.16241         1.32831 
         3.0631         8.05655         1.31205 
        3.07883         7.99177         1.29608 
        3.09456         7.95073         1.28037 
        3.11026         7.88446         1.26495 
        3.12596         7.83232         1.24979 
        3.14163         7.74804         1.23491 
        3.15734         7.69815         1.22025 
        3.17308         7.64624         1.20579 
        3.18879         7.56469          1.1916 
        3.20447         7.53441         1.17767 
         3.2202         7.44646         1.16392 
         3.2359         7.42559         1.15042 
        3.25157         7.36196         1.13716 
        3.26729         7.32862         1.12408 
        3.28304         7.24647         1.11118 
        3.29877         7.18456          1.0985 
        3.31446          7.1439         1.08605 
        3.33014         7.09459          1.0738 
        3.34585         7.03956         1.06173 
        3.36158         6.99417         1.04982 
        3.37727         6.94952         1.03814 
        3.39294         6.90207         1.02665 
        3.40867         6.82255         1.01529 
        3.42439         6.80059         1.00411 
        3.44008         6.73745        0.993124 
        3.45578         6.68897        0.982296 
        3.47153         6.64086        0.971607 
        3.48724         6.60543        0.961098 
        3.50292         6.54845         0.95077 
        3.51859         6.49902        0.940601 
        3.53431         6.44169         0.93055 
        3.55007         6.41083        0.920624 
        3.56577         6.38155        0.910882 
        3.58146         6.33856        0.901287 
        3.59719         6.28294         0.89181 
        3.61292         6.24698        0.882474 
        3.62859         6.18575        0.873308 
        3.64429         6.15134        0.864256 
        3.66003         6.09967        0.855307 
        3.67578         6.06402        0.846488 
        3.69146         5.99025        0.837828 
        3.70712         5.97644        0.829307 
        3.72284         5.93157        0.820873 
        3.73853         5.89731        0.812573 
        3.75422         5.84703        0.804386 
        3.76993         5.82288        0.796306 
        3.78564          5.7587        0.788341 
        3.80137         5.73301        0.780473 
        3.81707          5.6915         0.77273 
        3.83279         5.65605        0.765087 
        3.84853         5.59316        0.757537 
        3.86424         5.55999        0.750104 
        3.87992         5.53533        0.742782 
        3.89561         5.49776        0.735559 
        3.91134         5.45224        0.728419 
        3.92704         5.40626        0.721382 
        3.94273         5.38147        0.714447 
        3.95845         5.35698         0.70759 
        3.97418         5.31147        0.700824 
        3.98988          5.2788        0.694155 
        4.00554         5.24384        0.687593 
        4.02125         5.21317        0.681098 
        4.03698         5.15351        0.674677 
        4.05268         5.12121        0.668354 
        4.06839          5.1007        0.662109 
         4.0841         5.05003        0.655946 
        4.09983         5.01644        0.649854 
        4.11555         4.97272        0.643843 
        4.13124         4.93792        0.637925 
        4.14693          4.9017        0.632077 
        4.16266         4.88092        0.626289 
        4.17839         4.84525        0.620578 
        4.19408         4.80525        0.614953 
        4.20977         4.77058        0.609395 
        4.22551         4.73978        0.603893 
        4.24123         4.71179        0.598465 
        4.25691         4.68055         0.59312 
        4.27259         4.65655        0.587839 
        4.28831          4.6198        0.582612 
        4.30404          4.5841        0.577445 
        4.31974         4.55131        0.572352 
        4.33543         4.50185        0.567324 
        4.35116         4.48268        0.562345 
        4.36688         4.44967        0.557428 
        4.38255         4.42097        0.552589 
        4.39825         4.41098        0.547798 
        4.41398         4.38596        0.543054 
         4.4297         4.34908        0.538373 
        4.44541         4.31402        0.533747 
        4.46111         4.28797        0.529181 
        4.47683         4.24987        0.524664 
        4.49251         4.22853        0.520211 
        4.50819         4.20466         0.51581 
         4.5239         4.18695        0.511455 
        4.53962          4.1532        0.507145 
        4.55535         4.12667        0.502884 
        4.57106         4.09644        0.498678 
        4.58678         4.06643        0.494519 
         4.6025         4.05093        0.490408 
        4.61821         4.02148        0.486344 
        4.63391         3.99432        0.482332 
         4.6496          3.9776        0.478368 
        4.66532         3.93203        0.474442 
        4.68103         3.90961        0.470563 
        4.69673         3.89053        0.466731 
        4.71241         3.86179        0.462946 
        4.72811         3.83642        0.459197 
        4.74384         3.82191        0.455485 
        4.75955         3.79531        0.451821 
        4.77525         3.76645        0.448199 
        4.79096         3.73914        0.444613 
        4.80669         3.71627        0.441065 
         4.8224         3.70558         0.43756 
        4.83809          3.6756        0.434097 
        4.85379          3.6472         0.43067 
         4.8695         3.62514        0.427277 
        4.88521         3.60879        0.423923 
        4.90093          3.5815        0.420605 
        4.91663         3.56583        0.417325 
        4.93234         3.54579        0.414078 
        4.94807         3.51993        0.410863 
        4.96377         3.49813        0.407688 
        4.97943         3.47359        0.404555 
        4.99514         3.44448        0.401446 
        5.01086         3.43061        0.398368 
        5.02654         3.40794         0.39533 
        5.04227         3.39549        0.392316 
          5.058         3.37676        0.389332 
        5.07371         3.34935        0.386385 
        5.08942         3.33657        0.383468 
        5.10513          3.3121        0.380582 
        5.12084         3.29361        0.377724 
        5.13656         3.27384        0.374896 
        5.15225         3.25167        0.372103 
        5.16796         3.22563        0.369333 
        5.18369         3.21503         0.36659 
         5.1994          3.1923         0.36388 
        5.21509         3.17075          0.3612 
        5.23079         3.15347        0.358543 
        5.24649         3.14205        0.355917 
        5.26217         3.12137        0.353318 
        5.27788          3.0946        0.350742 
        5.29359         3.08236        0.348191 
        5.30933         3.06705        0.345663 
        5.32504         3.03749        0.343164 
        5.34073         3.02535        0.340692 
        5.35646         3.01194        0.338241 
        5.37218         2.99024        0.335813 
        5.38789         2.97668        0.333413 
        5.40357         2.95787        0.331039 
        5.41929         2.93768        0.328684 
        5.43502         2.92311        0.326352 
         5.4507         2.90569        0.324048 
        5.46639         2.88808        0.321766 
        5.48212         2.87463        0.319501 
        5.49786         2.85596        0.317255 
        5.51353         2.83883        0.315042 
        5.52921         2.82899        0.312849 
        5.54495         2.81034         0.31067 
        5.56066         2.78986        0.308514 
        5.57637         2.77242        0.306379 
        5.59207         2.76047        0.304267 
        5.60778          2.7455        0.302174 
        5.62346         2.72766        0.300103 
        5.63916         2.71123        0.298051 
        5.65487         2.70023        0.296016 
         5.6706         2.68305        0.293999 
        5.68633         2.66857           0.292 
        5.70203         2.65441        0.290023 
        5.71773         2.63894        0.288066 
        5.73344         2.61749        0.286125 
        5.74916         2.61114        0.284201 
        5.76486         2.59589        0.282297 
        5.78054         2.58396        0.280414 
        5.79626         2.57412        0.278543 
          5.812         2.54698        0.276688 
         5.8277          2.5397        0.274854 
        5.84339         2.52491        0.273038 
        5.85911         2.51359        0.271235 
        5.87484         2.49656        0.269448 
        5.89053         2.48521        0.267682 
        5.90623         2.47399         0.26593 
        5.92195         2.45594        0.264191 
        5.93767         2.44663        0.262469 
        5.95336         2.42898        0.260766 
        5.96905         2.41649        0.259078 
        5.98476         2.40144        0.257403 
        6.00048         2.38998        0.255742 
        6.01617         2.38295        0.254098 
        6.03185          2.3641        0.252471 
        6.04756         2.35285        0.250855 
        6.06331         2.33713        0.249249 
        6.07903         2.32767        0.247661 
        6.09473         2.32182        0.246088 
        6.11044         2.30374        0.244528 
        6.12616         2.28931        0.242981 
        6.14186         2.28315         0.24145 
        6.15755         2.27148        0.239932 
        6.17326          2.2562        0.238426 
        6.18898         2.24939        0.236932 
        6.20467         2.23594        0.235454 
        6.22036          2.2238        0.233989 
         6.2361         2.20822        0.232532 
         6.2518         2.19919        0.231091 
        6.26748         2.19039        0.229665 
        6.28319         2.17611        0.228247 
        6.29893         2.16791         0.22684 
        6.31463         2.15613        0.225447 
        6.33033         2.14362        0.224067 
        6.34604         2.13519        0.222697 
        6.36177         2.12387        0.221338 
        6.37747         2.11211        0.219992 
