#  k  (h/Mpc)          P(k)  (Mpc/h)^3     P_linear(k) (Mpc/h)^3
      0.0200456         22108.3         22560.9 
      0.0350414         18899.7         18497.2 
      0.0492313         14029.2         14563.1 
      0.0637834         11688.6         12581.5 
      0.0800726         9400.25         10275.7 
       0.096163         7804.95         7809.27 
       0.111083         6586.78         6484.71 
       0.126058          5481.3          5819.6 
       0.142273         4842.73         4951.97 
       0.158546         4053.39         4021.67 
        0.17375         3712.61         3495.12 
       0.188953         3557.88          3188.2 
       0.204907         3093.39         2817.86 
       0.220756         2817.67         2421.78 
        0.23588         2545.45         2155.84 
         0.2514         2336.88         1977.46 
       0.267535         2249.28         1787.93 
       0.283568         2036.16         1590.37 
       0.299022         1958.45          1440.2 
       0.314451          2034.1         1328.88 
       0.330372         1855.98         1221.24 
       0.346141         1717.26         1114.02 
       0.361624         1645.86         1023.32 
       0.377134         1589.65         949.759 
       0.392932         1524.91         882.113 
       0.408854         1464.13         816.394 
       0.424564         1440.44          757.82 
       0.440253         1365.54          707.57 
       0.455999         1308.69         662.237 
       0.471626         1314.57         619.875 
        0.48727         1263.41         580.869 
       0.502856         1228.14          546.06 
       0.518488         1181.75         514.386 
       0.534347         1139.91         484.535 
       0.550082         1100.57         457.041 
       0.565732         1080.94         432.012 
       0.581496          1055.8         408.867 
       0.597222         1046.19         387.436 
       0.612804            1020         367.659 
       0.628434         982.561         349.238 
       0.644267         959.288         331.954 
       0.660051         946.719          315.92 
       0.675724         937.044         301.054 
       0.691403         899.321         287.148 
       0.707174         880.377         274.055 
       0.722871         868.964         261.845 
        0.73838         850.613         250.522 
       0.754018         840.824         239.792 
       0.769845         822.141         229.584 
        0.78569         802.523          219.97 
       0.801365         781.749         211.012 
       0.817031         770.951         202.567 
       0.832809         754.492          194.54 
       0.848511         739.614         186.993 
       0.864097         735.098         179.906 
       0.879701         733.195         173.186 
       0.895507         705.746         166.737 
       0.911279         701.549         160.637 
        0.92691         686.153         154.898 
       0.942635         678.457         149.413 
       0.958396         666.222         144.187 
       0.974128         652.561         139.225 
       0.989692         636.319         134.551 
        1.00528          632.63         130.088 
        1.02113         616.823         125.761 
        1.03692         605.448         121.651 
        1.05264         599.919         117.747 
        1.06832         588.589         114.024 
        1.08405          582.28         110.455 
        1.09979         569.636         107.039 
        1.11537          558.53         103.804 
        1.13105          549.73         100.686 
        1.14679         540.385         97.6861 
        1.16256         534.937          94.805 
        1.17828         526.387         92.0517 
        1.19395         518.128         89.4189 
         1.2097         509.565         86.8776 
        1.22537         500.916         84.4491 
          1.241             493         82.1224 
        1.25666         485.647         79.8792 
        1.27241         479.805         77.7106 
        1.28819         469.193         75.6203 
        1.30392         468.183         73.6144 
        1.31957          456.64         71.6914 
        1.33529         453.914         69.8313 
        1.35108         449.877         68.0309 
        1.36674         438.852          66.308 
         1.3824         429.903         64.6474 
        1.39811          427.38         63.0391 
        1.41389          421.21         61.4803 
        1.42964          413.82         59.9778 
        1.44531         407.963         58.5337 
        1.46101         398.162         57.1348 
        1.47667         398.481         55.7866 
        1.49229         389.749         54.4863 
        1.50793          383.21         53.2266 
        1.52367         375.686         51.9993 
        1.53953         372.021         50.8031 
        1.55526         365.728         49.6547 
        1.57092          359.19         48.5472 
        1.58662         354.927         47.4713 
        1.60235         350.009         46.4266 
        1.61809         344.987         45.4132 
        1.63369         342.982         44.4396 
        1.64941         335.378          43.488 
        1.66519         331.428         42.5613 
        1.68085         325.081         41.6687 
        1.69652         320.814         40.8018 
        1.71228         315.596          39.955 
        1.72806         313.288          39.132 
        1.74368         310.516         38.3408 
        1.75933         305.288         37.5702 
        1.77505         300.509         36.8176 
        1.79081         296.259         36.0845 
         1.8065         293.645         35.3749 
        1.82218         286.805         34.6853 
        1.83797         283.551         34.0096 
        1.85367         278.776         33.3559 
        1.86928         274.755         32.7236 
        1.88497         271.379         32.1045 
        1.90073         269.419         31.4994 
        1.91647         265.676         30.9106 
        1.93218         261.961         30.3384 
        1.94787          256.04         29.7818 
        1.96363         253.741         29.2371 
        1.97935         249.319         28.7073 
        1.99499         246.628         28.1939 
        2.01064          241.66         27.6925 
         2.0264         239.245         27.2003 
        2.04216         236.979         26.7205 
        2.05781         233.037         26.2555 
        2.07353         232.351         25.8001 
        2.08928         228.868         25.3546 
        2.10499         225.623          24.921 
        2.12065         221.417          24.499 
        2.13633         219.344         24.0865 
        2.15211         216.069         23.6811 
        2.16785          213.89         23.2862 
        2.18349         211.796         22.9029 
        2.19916          208.69         22.5276 
        2.21489         206.676         22.1596 
        2.23063         204.326         21.7997 
         2.2463         201.167         21.4495 
        2.26194         197.983         21.1079 
        2.27765         195.289         20.7722 
        2.29341         193.148          20.443 
        2.30914         191.379         20.1218 
        2.32486         189.186         19.8077 
        2.34061         185.918         19.4999 
        2.35635         183.982          19.199 
        2.37203         181.886         18.9055 
        2.38768          180.38          18.619 
        2.40339         177.047         18.3374 
        2.41914         175.478          18.061 
        2.43483         174.077         17.7914 
         2.4505         170.756         17.5278 
        2.46622         168.947         17.2688 
        2.48195         167.742          17.015 
        2.49759         164.094         16.7678 
        2.51328         163.205         16.5249 
        2.52906         161.337         16.2854 
        2.54479         159.606         16.0515 
        2.56049         157.435         15.8228 
        2.57618         156.317         15.5988 
        2.59189         154.164         15.3788 
        2.60758         153.224         15.1635 
        2.62325         151.084         14.9527 
        2.63898         148.536         14.7451 
        2.65468         147.405          14.542 
        2.67044         146.161         14.3419 
        2.68618         143.664         14.1461 
        2.70184         142.568         13.9548 
        2.71755         140.404         13.7666 
        2.73329         138.502         13.5816 
        2.74897          137.41         13.4006 
        2.76462         135.908         13.2234 
        2.78034         134.271         13.0488 
        2.79607         133.139         12.8771 
        2.81179         131.676         12.7088 
        2.82749         129.605         12.5437 
        2.84321         128.753         12.3814 
        2.85893         127.141          12.222 
        2.87462         125.804         12.0658 
        2.89033         124.747         11.9122 
        2.90605         122.808         11.7612 
        2.92176         121.287         11.6129 
        2.93747         120.327         11.4672 
        2.95318         119.365         11.3241 
        2.96891         117.701         11.1834 
        2.98456         116.523         11.0457 
        3.00023         115.129         10.9102 
        3.01596         114.176         10.7765 
        3.03164         113.147         10.6456 
        3.04738         111.463         10.5164 
         3.0631         110.393         10.3894 
        3.07883         109.232         10.2646 
        3.09456          107.96         10.1419 
        3.11026         106.905         10.0214 
        3.12596         105.647         9.90285 
        3.14163         104.837         9.78656 
        3.15734         103.503         9.67188 
        3.17308         102.774         9.55879 
        3.18879         101.996         9.44784 
        3.20447         100.716         9.33884 
         3.2202         99.3851         9.23124 
         3.2359         98.5911         9.12556 
        3.25157         97.8065          9.0218 
        3.26729         96.4179         8.91936 
        3.28304         95.7643         8.81833 
        3.29877         94.5127         8.71902 
        3.31446         93.8683         8.62147 
        3.33014         93.0034         8.52553 
        3.34585         91.8216         8.43092 
        3.36158          90.805         8.33762 
        3.37727          90.048         8.24604 
        3.39294         89.0712         8.15594 
        3.40867         88.0973         8.06688 
        3.42439         87.4868         7.97922 
        3.44008         86.1952         7.89304 
        3.45578         85.6234         7.80809 
        3.47153          84.636         7.72423 
        3.48724         84.0218         7.64175 
        3.50292         83.3101         7.56069 
        3.51859         82.3389         7.48086 
        3.53431         81.6693         7.40195 
        3.55007         80.8169           7.324 
        3.56577         80.1778         7.24749 
        3.58146         79.1953         7.17212 
        3.59719         78.6022         7.09767 
        3.61292          77.821         7.02431 
        3.62859         76.9711         6.95228 
        3.64429         76.4331         6.88113 
        3.66003          75.571         6.81078 
        3.67578         75.2314         6.74144 
        3.69146          74.226         6.67335 
        3.70712         73.5122         6.60633 
        3.72284         73.0588            6.54 
        3.73853         72.1983          6.4747 
        3.75422         71.4701         6.41028 
        3.76993         70.8041          6.3467 
        3.78564         70.3547         6.28401 
        3.80137         69.5131         6.22208 
        3.81707         68.9901         6.16112 
        3.83279         68.1336         6.10095 
        3.84853         67.7264         6.04149 
        3.86424         67.1895         5.98294 
        3.87992         66.4542         5.92527 
        3.89561          65.992         5.86837 
        3.91134         65.4184         5.81211 
        3.92704         64.5719         5.75666 
        3.94273         63.9893           5.702 
        3.95845         63.5599         5.64795 
        3.97418         62.9163         5.59461 
        3.98988         62.3911         5.54203 
        4.00554         61.7047         5.49029 
        4.02125         61.1937         5.43906 
        4.03698         60.7776         5.38841 
        4.05268         60.3168         5.33854 
        4.06839         59.5087         5.28926 
         4.0841         59.0216         5.24064 
        4.09983          58.568         5.19256 
        4.11555         58.1761         5.14511 
        4.13124         57.4316         5.09839 
        4.14693         57.2169         5.05222 
        4.16266         56.4948         5.00653 
        4.17839          56.046         4.96143 
        4.19408         55.5644           4.917 
        4.20977         55.1575          4.8731 
        4.22551         54.6467         4.82963 
        4.24123         54.0829         4.78675 
        4.25691         53.7142         4.74452 
        4.27259         53.3279         4.70278 
        4.28831         52.8346         4.66147 
        4.30404         52.3461         4.62062 
        4.31974         51.9448         4.58036 
        4.33543         51.4678         4.54061 
        4.35116          50.898         4.50124 
        4.36688          50.602         4.46235 
        4.38255         50.1069         4.42408 
        4.39825         49.6673         4.38618 
        4.41398         49.2661         4.34865 
         4.4297         48.8696          4.3116 
        4.44541         48.4784           4.275 
        4.46111         48.0611         4.23886 
        4.47683         47.6859         4.20312 
        4.49251         47.3308         4.16786 
        4.50819         46.7885         4.13303 
         4.5239         46.5578         4.09854 
        4.53962         46.1463         4.06441 
        4.55535         45.7367         4.03066 
        4.57106         45.5185         3.99735 
        4.58678         45.0542         3.96441 
         4.6025         44.7237         3.93184 
        4.61821         44.2003         3.89964 
        4.63391          43.798         3.86785 
         4.6496         43.3649         3.83644 
        4.66532         43.2303         3.80532 
        4.68103         42.8575         3.77457 
        4.69673         42.4172          3.7442 
        4.71241         42.1482         3.71419 
        4.72811         41.8076         3.68447 
        4.74384         41.4946         3.65503 
        4.75955         41.0715         3.62597 
        4.77525         40.7465         3.59724 
        4.79096         40.5421          3.5688 
        4.80669         40.0504         3.54065 
         4.8224         39.9067         3.51284 
        4.83809          39.593         3.48536 
        4.85379         39.1435         3.45817 
         4.8695         38.9638         3.43124 
        4.88521         38.6098         3.40462 
        4.90093         38.2286         3.37828 
        4.91663         37.9072         3.35224 
        4.93234         37.6747         3.32646 
        4.94807          37.327         3.30093 
        4.96377         37.0637         3.27572 
        4.97943         36.9286         3.25083 
        4.99514         36.4698         3.22614 
        5.01086         36.1314         3.20169 
        5.02654          36.026         3.17756 
        5.04227         35.7551         3.15361 
          5.058         35.3849         3.12989 
        5.07371         35.1291         3.10648 
        5.08942         34.7957          3.0833 
        5.10513         34.6557         3.06035 
        5.12084         34.3245         3.03764 
        5.13656         34.1467         3.01516 
        5.15225         33.8043         2.99295 
        5.16796         33.5058         2.97093 
        5.18369         33.2521         2.94911 
         5.1994         32.9863         2.92755 
        5.21509         32.7569         2.90624 
        5.23079         32.4891         2.88511 
        5.24649         32.2056         2.86421 
        5.26217         32.0145         2.84354 
        5.27788         31.7743         2.82304 
        5.29359         31.6002         2.80275 
        5.30933         31.3545         2.78262 
        5.32504         31.0743         2.76273 
        5.34073         30.8619         2.74306 
        5.35646         30.6714         2.72355 
        5.37218          30.374         2.70422 
        5.38789         30.1574         2.68511 
        5.40357         29.9287         2.66621 
        5.41929          29.668         2.64746 
        5.43502         29.5276         2.62888 
         5.4507         29.2271         2.61053 
        5.46639         29.0607         2.59236 
        5.48212         28.8511         2.57431 
        5.49786         28.6181         2.55642 
        5.51353         28.4293         2.53879 
        5.52921         28.2394         2.52131 
        5.54495         27.9885         2.50395 
        5.56066         27.7927         2.48677 
        5.57637         27.5716         2.46975 
        5.59207         27.4506         2.45292 
        5.60778         27.1825         2.43623 
        5.62346         26.9714         2.41973 
        5.63916          26.804         2.40336 
        5.65487         26.6555         2.38714 
         5.6706         26.4056         2.37105 
        5.68633         26.2394         2.35511 
        5.70203         25.9659         2.33934 
        5.71773         25.7806         2.32373 
        5.73344         25.6826         2.30825 
        5.74916          25.479          2.2929 
        5.76486         25.3334         2.27771 
        5.78054         25.1276         2.26269 
        5.79626         24.9331         2.24776 
          5.812         24.7285         2.23295 
         5.8277         24.5376         2.21832 
        5.84339         24.4117         2.20382 
        5.85911         24.2204         2.18943 
        5.87484         24.0282         2.17517 
        5.89053         23.9155         2.16106 
        5.90623         23.6833         2.14708 
        5.92195         23.5006         2.13319 
        5.93767         23.4032         2.11944 
        5.95336         23.2172         2.10583 
        5.96905         23.0835         2.09235 
        5.98476         22.8953         2.07897 
        6.00048         22.7246         2.06571 
        6.01617         22.5561         2.05258 
        6.03185         22.4098         2.03958 
        6.04756         22.2192         2.02666 
        6.06331          22.047         2.01383 
        6.07903         21.9873         2.00114 
        6.09473         21.7823         1.98857 
        6.11044         21.6402          1.9761 
        6.12616          21.504         1.96374 
        6.14186         21.3357          1.9515 
        6.15755          21.201         1.93936 
        6.17326          21.051         1.92732 
        6.18898         20.8685         1.91538 
        6.20467         20.7512         1.90356 
        6.22036         20.6118         1.89185 
         6.2361         20.4406          1.8802 
         6.2518         20.3368         1.86867 
        6.26748         20.1983         1.85726 
        6.28319         20.0952         1.84592 
        6.29893         19.9496         1.83466 
        6.31463         19.7498         1.82352 
        6.33033         19.6382         1.81248 
        6.34604         19.4988         1.80152 
        6.36177         19.3821         1.79064 
        6.37747         19.2692         1.77987 
