# k  (h/Mpc)    Pcb(k)  (Mpc/h)^3    Pcb_linear(k) (Mpc/h)^3   ShotnoiseSubtracted = true
      0.0200456         15050.4         15267.3 
      0.0350414         10083.2         9720.19 
      0.0492313         6666.81          6710.1 
      0.0637834         5364.16         5565.22 
      0.0800726         4027.99         4183.99 
       0.096163         3033.97          2861.1 
       0.111083         2479.28         2317.57 
       0.126058         2079.17         2081.18 
       0.142273          1731.7         1671.25 
       0.158546         1387.35         1275.65 
        0.17375         1229.78         1107.58 
       0.188953         1147.29         1010.23 
       0.204907         958.168         856.792 
       0.220756         851.166         709.164 
        0.23588         759.861         631.078 
         0.2514         678.027         577.303 
       0.267535         651.734          507.69 
       0.283568         565.773         440.826 
       0.299022          538.54         397.689 
       0.314451         545.929         365.373 
       0.330372         465.564         329.747 
       0.346141          429.12         295.857 
       0.361624         408.418         270.212 
       0.377134         382.484         249.455 
       0.392932          367.56          228.91 
       0.408854         350.022         209.291 
       0.424564         337.557         193.012 
       0.440253         304.934         179.178 
       0.455999         290.303         166.236 
       0.471626         291.355         154.235 
        0.48727         274.488         143.574 
       0.502856         252.751         134.219 
       0.518488         252.395         125.583 
       0.534347         235.119         117.451 
       0.550082         226.551          110.12 
       0.565732           225.3         103.532 
       0.581496         212.944         97.4302 
       0.597222         206.619         91.7905 
       0.612804         199.713         86.6342 
       0.628434         193.312         81.8875 
       0.644267         184.048         77.4487 
       0.660051         181.309         73.3464 
       0.675724          177.53         69.5629 
       0.691403         173.424          66.042 
       0.707174          166.65         62.7442 
       0.722871         163.502         59.6841 
        0.73838         161.841         56.8603 
       0.754018          153.58         54.1977 
       0.769845         153.418         51.6767 
        0.78569         148.318         49.3138 
       0.801365         143.527         47.1222 
       0.817031         141.158         45.0657 
       0.832809         138.038         43.1191 
       0.848511         134.446         41.2965 
       0.864097         131.156         39.5919 
       0.879701          130.16         37.9821 
       0.895507         126.943          36.443 
       0.911279         123.165         34.9925 
        0.92691         120.614         33.6329 
       0.942635         118.767         32.3382 
       0.958396         116.825          31.109 
       0.974128         114.541         29.9459 
       0.989692         110.816         28.8538 
        1.00528         110.088         27.8146 
        1.02113         107.309         26.8103 
        1.03692         105.932         25.8594 
        1.05264          104.41          24.959 
        1.06832         102.473         24.1029 
        1.08405         100.294         23.2847 
        1.09979         99.5097          22.504 
        1.11537         97.2266          21.767 
        1.13105         95.8096         21.0585 
        1.14679         94.3222         20.3789 
        1.16256         92.2811          19.728 
        1.17828         91.3988         19.1077 
        1.19395         89.4822         18.5162 
         1.2097         88.2123         17.9467 
        1.22537         87.0872         17.4039 
          1.241         85.6574         16.8853 
        1.25666         83.7678         16.3865 
        1.27241         82.3031         15.9055 
        1.28819         81.6911          15.443 
        1.30392         80.4731         15.0003 
        1.31957         79.1482         14.5769 
        1.33529         77.8545         14.1683 
        1.35108         77.1899         13.7738 
        1.36674         75.9041          13.397 
         1.3824          75.249         13.0348 
        1.39811         73.7555         12.6847 
        1.41389         72.6873         12.3461 
        1.42964         71.3666         12.0205 
        1.44531         70.8358         11.7082 
        1.46101         69.8373         11.4063 
        1.47667         69.1521          11.116 
        1.49229         68.2062         10.8366 
        1.50793         67.1192         10.5664 
        1.52367         66.3954         10.3037 
        1.53953         65.7723         10.0482 
        1.55526         64.4304         9.80338 
        1.57092         63.9877         9.56772 
        1.58662         63.1705         9.33924 
        1.60235         62.4105         9.11779 
        1.61809         61.3239          8.9034 
        1.63369         60.6602          8.6978 
        1.64941         60.3748         8.49722 
        1.66519         59.1076         8.30224 
        1.68085         58.1368         8.11476 
        1.69652         57.3618         7.93301 
        1.71228         56.6703         7.75579 
        1.72806         56.5057         7.58385 
        1.74368         55.3533         7.41883 
        1.75933         54.8473          7.2584 
        1.77505          54.413         7.10195 
        1.79081         53.4012         6.94984 
         1.8065         52.9452         6.80283 
        1.82218         52.1899          6.6602 
        1.83797         51.5174         6.52067 
        1.85367          50.935         6.38591 
        1.86928         50.3039         6.25577 
        1.88497         49.7878         6.12854 
        1.90073         49.1413         6.00437 
        1.91647         48.6994         5.88376 
        1.93218         47.9899          5.7667 
        1.94787         47.4512           5.653 
        1.96363         46.8744         5.54192 
        1.97935         46.4057         5.43404 
        1.99499         45.7906         5.32964 
        2.01064         45.2934         5.22783 
         2.0264         44.8326         5.12804 
        2.04216         44.1878         5.03089 
        2.05781         43.5966         4.93688 
        2.07353         43.1356         4.84493 
        2.08928         42.7871         4.75511 
        2.10499         42.1334         4.66781 
        2.12065          41.839         4.58296 
        2.13633          41.349         4.50015 
        2.15211          40.878         4.41884 
        2.16785         40.1685         4.33977 
        2.18349         39.7681         4.26312 
        2.19916          39.419         4.18816 
        2.21489         39.0737         4.11476 
        2.23063         38.6377         4.04306 
         2.2463         38.1448         3.97338 
        2.26194         37.8804         3.90552 
        2.27765         37.3338          3.8389 
        2.29341         36.8559         3.77365 
        2.30914         36.3347         3.71006 
        2.32486         36.0808         3.64796 
        2.34061          35.708         3.58717 
        2.35635         35.2809         3.52783 
        2.37203         34.6875         3.47003 
        2.38768         34.6191         3.41364 
        2.40339         34.1495          3.3583 
        2.41914         33.7753         3.30405 
        2.43483         33.3841         3.25119 
         2.4505         33.1822         3.19958 
        2.46622         32.7349          3.1489 
        2.48195         32.3325         3.09932 
        2.49759         31.9979         3.05107 
        2.51328         31.6601         3.00372 
        2.52906         31.4447         2.95707 
        2.54479         31.2086         2.91158 
        2.56049         30.5677         2.86714 
        2.57618         30.3448         2.82366 
        2.59189         30.1536         2.78102 
        2.60758         29.6186         2.73932 
        2.62325         29.5812         2.69853 
        2.63898         29.2256         2.65842 
        2.65468         28.8234         2.61921 
        2.67044         28.7131         2.58062 
        2.68618         28.3642          2.5429 
        2.70184         27.9293         2.50608 
        2.71755         27.7084         2.46989 
        2.73329         27.3782         2.43437 
        2.74897         27.1549         2.39965 
        2.76462         26.8141         2.36569 
        2.78034         26.6442         2.33225 
        2.79607         26.2976         2.29941 
        2.81179         26.0278         2.26724 
        2.82749          25.847         2.23573 
        2.84321         25.4981         2.20477 
        2.85893         25.2658         2.17441 
        2.87462         24.9947         2.14467 
        2.89033         24.7852         2.11546 
        2.90605         24.5044         2.08677 
        2.92176         24.3855         2.05863 
        2.93747         24.1318         2.03101 
        2.95318         23.9098          2.0039 
        2.96891         23.5932         1.97726 
        2.98456         23.4565         1.95123 
        3.00023         23.2205         1.92563 
        3.01596         22.9152          1.9004 
        3.03164         22.6599          1.8757 
        3.04738         22.4833         1.85137 
         3.0631         22.2946         1.82747 
        3.07883         21.9954         1.80399 
        3.09456         21.7916         1.78093 
        3.11026         21.5501         1.75831 
        3.12596         21.3659         1.73608 
        3.14163         21.1775         1.71428 
        3.15734         20.9893         1.69281 
        3.17308         20.7473         1.67165 
        3.18879         20.5825         1.65092 
        3.20447         20.3948         1.63056 
         3.2202         20.1831         1.61048 
         3.2359         19.9633         1.59078 
        3.25157         19.8019         1.57145 
        3.26729         19.7076         1.55238 
        3.28304         19.3675         1.53359 
        3.29877         19.2544         1.51514 
        3.31446         19.0819         1.49703 
        3.33014         18.8368         1.47923 
        3.34585          18.715         1.46169 
        3.36158         18.5352         1.44441 
        3.37727         18.3438         1.42746 
        3.39294         18.1816          1.4108 
        3.40867         18.0048         1.39434 
        3.42439         17.8571         1.37816 
        3.44008         17.6707         1.36226 
        3.45578         17.5057          1.3466 
        3.47153         17.3688         1.33115 
        3.48724         17.1867         1.31597 
        3.50292         17.0467         1.30107 
        3.51859         16.9021         1.28639 
        3.53431         16.7412          1.2719 
        3.55007         16.5781          1.2576 
        3.56577         16.4113         1.24357 
        3.58146         16.2724         1.22977 
        3.59719          16.129         1.21614 
        3.61292         16.0209         1.20272 
        3.62859         15.7923         1.18955 
        3.64429         15.6031         1.17655 
        3.66003         15.6088         1.16371 
        3.67578         15.3728         1.15107 
        3.69146         15.3415         1.13865 
        3.70712         15.1245         1.12645 
        3.72284         14.9728         1.11438 
        3.73853         14.8983          1.1025 
        3.75422         14.7019         1.09079 
        3.76993          14.567         1.07925 
        3.78564         14.4705         1.06787 
        3.80137         14.3499         1.05664 
        3.81707         14.1952         1.04559 
        3.83279         14.0976         1.03469 
        3.84853         13.9076         1.02393 
        3.86424         13.8392         1.01335 
        3.87992         13.7326         1.00293 
        3.89561         13.5898        0.992649 
        3.91134         13.5074        0.982495 
        3.92704         13.3678        0.972495 
        3.94273         13.2442        0.962643 
        3.95845         13.1468         0.95291 
        3.97418         13.0098        0.943308 
        3.98988         12.9132        0.933852 
        4.00554         12.8073        0.924551 
        4.02125          12.652        0.915349 
        4.03698         12.5477        0.906258 
        4.05268         12.4331        0.897311 
        4.06839         12.3402        0.888477 
         4.0841          12.245        0.879765 
        4.09983         12.1327        0.871158 
        4.11555         12.0367        0.862668 
        4.13124         11.9069        0.854315 
        4.14693         11.8772        0.846065 
        4.16266         11.7553        0.837904 
        4.17839         11.6343        0.829856 
        4.19408         11.5132        0.821931 
        4.20977         11.4458        0.814106 
        4.22551         11.3584        0.806364 
        4.24123         11.2282        0.798731 
        4.25691         11.1321        0.791217 
        4.27259         11.0674        0.783796 
        4.28831         10.9976        0.776456 
        4.30404         10.8772        0.769202 
        4.31974         10.7993        0.762057 
        4.33543         10.7155        0.755006 
        4.35116         10.6051        0.748028 
        4.36688         10.4888        0.741139 
        4.38255         10.4384        0.734364 
        4.39825         10.3473        0.727657 
        4.41398         10.2517        0.721021 
         4.4297         10.1693        0.714475 
        4.44541         10.0627        0.708011 
        4.46111         10.0204        0.701631 
        4.47683         9.90957        0.695326 
        4.49251         9.83304         0.68911 
        4.50819         9.74305        0.682972 
         4.5239         9.67649        0.676899 
        4.53962         9.59296        0.670893 
        4.55535         9.51912        0.664956 
        4.57106         9.46689          0.6591 
        4.58678         9.37592        0.653313 
         4.6025         9.29464        0.647593 
        4.61821         9.21229        0.641943 
        4.63391         9.14712        0.636367 
         4.6496         9.06504         0.63086 
        4.66532         9.01486        0.625409 
        4.68103         8.90548        0.620025 
        4.69673         8.86753        0.614709 
        4.71241         8.77744         0.60946 
        4.72811         8.72719        0.604264 
        4.74384         8.65568        0.599122 
        4.75955         8.55755        0.594047 
        4.77525         8.51323        0.589034 
        4.79096         8.44458        0.584072 
        4.80669         8.38294        0.579165 
         4.8224          8.3198         0.57432 
        4.83809         8.27128        0.569535 
        4.85379         8.17284        0.564801 
         4.8695         8.11471        0.560118 
        4.88521         8.04544        0.555489 
        4.90093         8.00502        0.550912 
        4.91663         7.91761         0.54639 
        4.93234         7.89106        0.541914 
        4.94807         7.79734        0.537485 
        4.96377          7.7404        0.533114 
        4.97943         7.68979          0.5288 
        4.99514         7.63534        0.524523 
        5.01086         7.55576         0.52029 
        5.02654         7.51878        0.516114 
        5.04227         7.45203        0.511971 
          5.058         7.40575        0.507872 
        5.07371         7.33115        0.503826 
        5.08942         7.27582        0.499823 
        5.10513         7.24638        0.495863 
        5.12084         7.18553        0.491944 
        5.13656         7.13445        0.488068 
        5.15225         7.07225         0.48424 
        5.16796         7.01476        0.480447 
        5.18369         6.96076        0.476691 
         5.1994         6.91432        0.472982 
        5.21509          6.8549        0.469316 
        5.23079         6.79965        0.465684 
        5.24649         6.76523        0.462093 
        5.26217         6.71185        0.458542 
        5.27788         6.65539        0.455024 
        5.29359         6.62572        0.451542 
        5.30933         6.57788        0.448091 
        5.32504         6.52956        0.444682 
        5.34073         6.47161        0.441311 
        5.35646          6.4148        0.437969 
        5.37218          6.3887        0.434661 
        5.38789         6.33823        0.431393 
        5.40357          6.2945        0.428161 
        5.41929         6.25051        0.424955 
        5.43502         6.18949        0.421782 
         5.4507         6.15905        0.418649 
        5.46639         6.10488        0.415547 
        5.48212         6.05699        0.412469 
        5.49786         6.01813        0.409418 
        5.51353           5.974        0.406413 
        5.52921         5.93332        0.403436 
        5.54495         5.90593        0.400479 
        5.56066          5.8413        0.397555 
        5.57637         5.80639        0.394661 
        5.59207         5.78136        0.391798 
        5.60778         5.72904        0.388962 
        5.62346         5.69144        0.386158 
        5.63916         5.65756        0.383379 
        5.65487         5.62344        0.380626 
         5.6706         5.57413        0.377896 
        5.68633         5.54673        0.375193 
        5.70203         5.50047        0.372521 
        5.71773         5.47597        0.369876 
        5.73344         5.42379        0.367254 
        5.74916         5.38728        0.364656 
        5.76486          5.3431        0.362086 
        5.78054         5.32262        0.359545 
        5.79626         5.28459        0.357022 
          5.812         5.24133        0.354519 
         5.8277         5.20538        0.352048 
        5.84339         5.16658        0.349601 
        5.85911         5.12755        0.347172 
        5.87484          5.0947        0.344766 
        5.89053         5.07278        0.342388 
        5.90623         5.03225        0.340031 
        5.92195          5.0008        0.337693 
        5.93767         4.96082        0.335377 
        5.95336         4.93398        0.333087 
        5.96905         4.90115        0.330819 
        5.98476         4.86185        0.328569 
        6.00048         4.83636        0.326339 
        6.01617         4.80217        0.324133 
        6.03185         4.76991         0.32195 
        6.04756         4.73783        0.319781 
        6.06331         4.71206        0.317628 
        6.07903         4.67736        0.315499 
        6.09473         4.64218        0.313392 
        6.11044         4.62252        0.311302 
        6.12616         4.58737        0.309231 
        6.14186         4.56268        0.307181 
        6.15755         4.53379         0.30515 
        6.17326         4.50667        0.303135 
        6.18898         4.47788        0.301138 
        6.20467         4.44502        0.299162 
        6.22036         4.41714        0.297204 
         6.2361         4.38757        0.295258 
         6.2518          4.3562        0.293333 
        6.26748         4.33636        0.291429 
        6.28319         4.30772        0.289537 
        6.29893         4.28048         0.28766 
        6.31463         4.25649        0.285802 
        6.33033         4.23105        0.283962 
        6.34604         4.19996        0.282136 
        6.36177         4.18287        0.280325 
        6.37747          4.1407        0.278533 
