# k  (h/Mpc)    Pcb(k)  (Mpc/h)^3    Pcb_linear(k) (Mpc/h)^3   ShotnoiseSubtracted = true
      0.0200456         1152.65         1167.57 
      0.0350414         743.165         743.355 
      0.0492313         515.697         513.157 
      0.0637834         428.157         425.602 
      0.0800726          323.03         319.972 
       0.096163         219.085         218.804 
       0.111083           176.2         177.237 
       0.126058         159.451         159.159 
       0.142273         129.544          127.81 
       0.158546         99.6369          97.556 
        0.17375         84.6301         84.7026 
       0.188953         77.9742         77.2574 
       0.204907         68.2123         65.5235 
       0.220756         55.8329         54.2336 
        0.23588         49.4196         48.2619 
         0.2514         44.6615         44.1495 
       0.267535         39.7637         38.8258 
       0.283568          34.812         33.7123 
       0.299022         31.5989         30.4135 
       0.314451         28.3937          27.942 
       0.330372         25.9809         25.2175 
       0.346141         23.3453         22.6258 
       0.361624         21.4738         20.6645 
       0.377134         20.0362         19.0772 
       0.392932         17.7666          17.506 
       0.408854          16.831         16.0056 
       0.424564         15.5145         14.7607 
       0.440253         14.3397         13.7027 
       0.455999         13.4125         12.7129 
       0.471626          12.553         11.7952 
        0.48727         11.6896         10.9799 
       0.502856         10.8736         10.2645 
       0.518488         10.3365         9.60401 
       0.534347         9.82695         8.98212 
       0.550082         8.95164         8.42148 
       0.565732          8.2616         7.91765 
       0.581496         8.04146         7.45102 
       0.597222         7.66495         7.01971 
       0.612804          7.1339         6.62538 
       0.628434         6.85439         6.26238 
       0.644267         6.51276         5.92292 
       0.660051         6.12336         5.60919 
       0.675724         5.81156         5.31985 
       0.691403         5.58933         5.05059 
       0.707174         5.28851         4.79839 
       0.722871         5.04693         4.56437 
        0.73838         4.82866         4.34841 
       0.754018         4.66985         4.14479 
       0.769845          4.4112         3.95199 
        0.78569         4.24683         3.77129 
       0.801365         4.05168         3.60369 
       0.817031         3.89912         3.44642 
       0.832809         3.75477         3.29755 
       0.848511         3.54531         3.15817 
       0.864097         3.40539         3.02781 
       0.879701         3.28479          2.9047 
       0.895507         3.13636         2.78699 
       0.911279          3.0802         2.67606 
        0.92691         2.95452         2.57209 
       0.942635         2.82345         2.47308 
       0.958396         2.71717         2.37907 
       0.974128         2.63107         2.29013 
       0.989692         2.56849         2.20661 
        1.00528         2.45159         2.12713 
        1.02113         2.35893         2.05033 
        1.03692         2.30711          1.9776 
        1.05264          2.2215         1.90875 
        1.06832         2.16385         1.84328 
        1.08405          2.0581         1.78071 
        1.09979           2.012         1.72101 
        1.11537         1.95461         1.66464 
        1.13105          1.8992         1.61046 
        1.14679          1.8433         1.55848 
        1.16256         1.77717         1.50871 
        1.17828         1.73265         1.46127 
        1.19395         1.68325         1.41603 
         1.2097         1.60874         1.37248 
        1.22537         1.57416         1.33097 
          1.241         1.53703         1.29131 
        1.25666         1.51978         1.25316 
        1.27241          1.4442         1.21638 
        1.28819         1.41325         1.18101 
        1.30392           1.383         1.14715 
        1.31957         1.34861         1.11477 
        1.33529         1.30285         1.08353 
        1.35108         1.27224         1.05335 
        1.36674         1.23164         1.02454 
         1.3824         1.20237        0.996839 
        1.39811         1.17134        0.970067 
        1.41389         1.15044        0.944176 
        1.42964         1.12145        0.919273 
        1.44531         1.09183         0.89539 
        1.46101         1.06766        0.872305 
        1.47667         1.02871        0.850102 
        1.49229         1.02062        0.828731 
        1.50793        0.990504         0.80807 
        1.52367        0.970609        0.787981 
        1.53953         0.93939         0.76844 
        1.55526        0.921022        0.749717 
        1.57092        0.900211        0.731695 
        1.58662        0.884018        0.714222 
        1.60235        0.859895        0.697286 
        1.61809        0.839664        0.680891 
        1.63369        0.832091        0.665167 
        1.64941        0.805855        0.649828 
        1.66519        0.790291        0.634917 
        1.68085        0.767363        0.620579 
        1.69652        0.753782         0.60668 
        1.71228        0.741803        0.593127 
        1.72806        0.720616        0.579978 
        1.74368         0.71101        0.567358 
        1.75933        0.692735        0.555089 
        1.77505        0.681275        0.543125 
        1.79081        0.667381        0.531492 
         1.8065        0.649306        0.520249 
        1.82218        0.641252        0.509341 
        1.83797        0.628376        0.498671 
        1.85367        0.621641        0.488365 
        1.86928        0.607606        0.478412 
        1.88497        0.591694        0.468682 
        1.90073        0.578357        0.459187 
        1.91647         0.57351        0.449962 
        1.93218        0.560729        0.441011 
        1.94787        0.548534        0.432316 
        1.96363         0.53724         0.42382 
        1.97935        0.527861         0.41557 
        1.99499        0.518134        0.407586 
        2.01064        0.508495          0.3998 
         2.0264        0.501396        0.392169 
        2.04216        0.491444         0.38474 
        2.05781        0.481801         0.37755 
        2.07353        0.474051        0.370518 
        2.08928        0.463687        0.363649 
        2.10499        0.456945        0.356973 
        2.12065        0.451569        0.350484 
        2.13633        0.443437        0.344151 
        2.15211        0.434485        0.337933 
        2.16785        0.425102        0.331885 
        2.18349        0.419739        0.326024 
        2.19916        0.412929        0.320291 
        2.21489        0.404905        0.314678 
        2.23063        0.397745        0.309194 
         2.2463         0.39432        0.303866 
        2.26194        0.382735        0.298677 
        2.27765        0.378072        0.293581 
        2.29341         0.37385        0.288592 
        2.30914        0.369526        0.283728 
        2.32486        0.362534        0.278979 
        2.34061        0.356198         0.27433 
        2.35635        0.348071        0.269792 
        2.37203        0.344297        0.265372 
        2.38768        0.339477        0.261059 
        2.40339        0.335028        0.256827 
        2.41914        0.329737        0.252679 
        2.43483        0.324127        0.248636 
         2.4505        0.318191        0.244689 
        2.46622        0.313597        0.240814 
        2.48195         0.31109        0.237022 
        2.49759         0.30517        0.233332 
        2.51328        0.299208         0.22971 
        2.52906        0.295719        0.226143 
        2.54479        0.291346        0.222664 
        2.56049        0.286186        0.219266 
        2.57618        0.283038        0.215941 
        2.59189        0.279165        0.212679 
        2.60758        0.276459        0.209491 
        2.62325        0.271219        0.206371 
        2.63898        0.267685        0.203304 
        2.65468        0.263573        0.200305 
        2.67044        0.259805        0.197354 
        2.68618        0.255894        0.194469 
        2.70184        0.252356        0.191653 
        2.71755        0.248148        0.188886 
        2.73329        0.245336        0.186169 
        2.74897        0.242527        0.183514 
        2.76462        0.238754        0.180917 
        2.78034         0.23597        0.178359 
        2.79607        0.232409        0.175848 
        2.81179        0.229527        0.173388 
        2.82749        0.226234        0.170978 
        2.84321        0.223663        0.168611 
        2.85893        0.220591        0.166289 
        2.87462        0.217279        0.164015 
        2.89033        0.214837        0.161781 
        2.90605         0.21224        0.159587 
        2.92176        0.209201        0.157434 
        2.93747        0.206668        0.155322 
        2.95318        0.204107        0.153249 
        2.96891        0.201676        0.151212 
        2.98456          0.1991        0.149221 
        3.00023        0.196808        0.147263 
        3.01596        0.193779        0.145334 
        3.03164        0.192417        0.143445 
        3.04738        0.189005        0.141584 
         3.0631        0.187171        0.139756 
        3.07883        0.184313        0.137961 
        3.09456        0.182578        0.136197 
        3.11026        0.180594        0.134467 
        3.12596        0.177797        0.132767 
        3.14163        0.176163        0.131101 
        3.15734        0.174601        0.129458 
        3.17308        0.172229         0.12784 
        3.18879        0.170533        0.126254 
        3.20447        0.167988        0.124698 
         3.2202         0.16659        0.123162 
         3.2359         0.16457        0.121655 
        3.25157         0.16275        0.120177 
        3.26729        0.160969        0.118719 
        3.28304        0.159727        0.117282 
        3.29877        0.157562        0.115871 
        3.31446        0.155955        0.114486 
        3.33014        0.154213        0.113124 
        3.34585        0.153514        0.111783 
        3.36158        0.151167        0.110462 
        3.37727        0.149914        0.109165 
        3.39294        0.148143        0.107891 
        3.40867        0.146398        0.106633 
        3.42439        0.145415        0.105395 
        3.44008        0.143451        0.104179 
        3.45578        0.142474        0.102982 
        3.47153        0.140859          0.1018 
        3.48724        0.140139         0.10064 
        3.50292        0.138393       0.0994994 
        3.51859        0.136574       0.0983775 
        3.53431        0.135303       0.0972694 
        3.55007        0.134451       0.0961756 
        3.56577        0.133027       0.0951029 
        3.58146        0.131454       0.0940469 
        3.59719        0.130522       0.0930045 
        3.61292        0.129537       0.0919782 
        3.62859        0.127703       0.0909712 
        3.64429        0.126931       0.0899774 
        3.66003        0.125956       0.0889953 
        3.67578        0.124653       0.0880282 
        3.69146        0.123654       0.0870791 
        3.70712        0.122782       0.0861456 
        3.72284        0.121458       0.0852223 
        3.73853        0.120794       0.0843142 
        3.75422        0.119425       0.0834189 
        3.76993        0.118611       0.0825358 
        3.78564        0.117341       0.0816658 
        3.80137        0.116358       0.0808069 
        3.81707         0.11554       0.0799621 
        3.83279        0.114589       0.0791287 
        3.84853        0.113461       0.0783058 
        3.86424        0.112497       0.0774961 
        3.87992        0.111875       0.0766991 
        3.89561        0.110663       0.0759132 
        3.91134        0.110037       0.0751367 
        3.92704        0.108842       0.0743719 
        3.94273        0.107681       0.0736185 
        3.95845        0.106785       0.0728741 
        3.97418        0.106186       0.0721399 
        3.98988        0.105077       0.0714167 
        4.00554        0.103994       0.0707054 
        4.02125        0.103076       0.0700017 
        4.03698        0.101868       0.0693064 
        4.05268        0.101099       0.0686222 
        4.06839       0.0995634       0.0679466 
         4.0841       0.0983302       0.0672804 
        4.09983       0.0970443       0.0666221 
        4.11555       0.0959648       0.0659729 
        4.13124        0.094628        0.065334 
        4.14693       0.0941889       0.0647031 
        4.16266       0.0928649        0.064079 
        4.17839       0.0918159       0.0634635 
        4.19408       0.0910132       0.0628575 
        4.20977       0.0901964       0.0622591 
        4.22551       0.0893215        0.061667 
        4.24123       0.0883758       0.0610832 
        4.25691       0.0875046       0.0605086 
        4.27259       0.0866837       0.0599411 
        4.28831       0.0859371       0.0593798 
        4.30404        0.085135        0.058825 
        4.31974       0.0848397       0.0582786 
        4.33543        0.083838       0.0577394 
        4.35116       0.0829878       0.0572057 
        4.36688       0.0825415       0.0566789 
        4.38255       0.0816799       0.0561607 
        4.39825       0.0815905       0.0556479 
        4.41398       0.0808697       0.0551404 
         4.4297       0.0802928       0.0546398 
        4.44541       0.0797933       0.0541454 
        4.46111       0.0794835       0.0536575 
        4.47683       0.0788727       0.0531753 
        4.49251       0.0784666          0.0527 
        4.50819       0.0782388       0.0522305 
         4.5239       0.0779024       0.0517661 
        4.53962       0.0774128       0.0513068 
        4.55535       0.0772335       0.0508528 
        4.57106       0.0768807       0.0504049 
        4.58678       0.0765952       0.0499623 
         4.6025       0.0766066       0.0495249 
        4.61821       0.0763365       0.0490928 
        4.63391       0.0760827       0.0486664 
         4.6496        0.076059       0.0482453 
        4.66532        0.075915       0.0478284 
        4.68103       0.0760013       0.0474166 
        4.69673         0.07575       0.0470101 
        4.71241       0.0755655       0.0466087 
        4.72811       0.0756634       0.0462113 
        4.74384        0.075676       0.0458181 
        4.75955       0.0759481         0.04543 
        4.77525       0.0760143       0.0450466 
        4.79096       0.0759155       0.0446672 
        4.80669       0.0760235       0.0442919 
         4.8224       0.0761999       0.0439213 
        4.83809       0.0762436       0.0435554 
        4.85379       0.0765069       0.0431934 
         4.8695       0.0766947       0.0428352 
        4.88521       0.0769433       0.0424812 
        4.90093       0.0772011       0.0421312 
        4.91663       0.0775264       0.0417854 
        4.93234       0.0777992       0.0414431 
        4.94807       0.0782723       0.0411044 
        4.96377       0.0786942       0.0407701 
        4.97943       0.0793735       0.0404402 
        4.99514       0.0793132       0.0401131 
        5.01086       0.0801689       0.0397894 
        5.02654       0.0804968         0.03947 
        5.04227       0.0810684       0.0391532 
          5.058       0.0817483       0.0388397 
        5.07371       0.0823042       0.0385303 
        5.08942       0.0829498       0.0382242 
        5.10513       0.0834856       0.0379214 
        5.12084        0.084045       0.0376216 
        5.13656       0.0847461       0.0373252 
        5.15225        0.085904       0.0370325 
        5.16796       0.0866213       0.0367424 
        5.18369       0.0868978       0.0364552 
         5.1994       0.0880603       0.0361715 
        5.21509       0.0889632       0.0358911 
        5.23079        0.090172       0.0356133 
        5.24649       0.0911471       0.0353387 
        5.26217       0.0920403       0.0350672 
        5.27788        0.092738       0.0347981 
        5.29359       0.0936702       0.0345318 
        5.30933       0.0951767       0.0342679 
        5.32504       0.0961894       0.0340072 
        5.34073       0.0973434       0.0337495 
        5.35646        0.098563       0.0334939 
        5.37218       0.0993114       0.0332409 
        5.38789        0.101002       0.0329909 
        5.40357        0.102241       0.0327438 
        5.41929        0.103709       0.0324986 
        5.43502        0.104819        0.032256 
         5.4507        0.106539       0.0320163 
        5.46639         0.10768       0.0317791 
        5.48212        0.109292       0.0315437 
        5.49786        0.111047       0.0313104 
        5.51353        0.112454       0.0310806 
        5.52921        0.113784       0.0308529 
        5.54495         0.11585       0.0306268 
        5.56066        0.117685       0.0304032 
        5.57637        0.119602       0.0301818 
        5.59207        0.121414       0.0299629 
        5.60778        0.123098        0.029746 
        5.62346        0.125498       0.0295316 
        5.63916        0.127131       0.0293191 
        5.65487         0.12914       0.0291085 
         5.6706        0.131043       0.0288998 
        5.68633        0.133742        0.028693 
        5.70203        0.135653       0.0284887 
        5.71773        0.138015       0.0282864 
        5.73344        0.139181       0.0280859 
        5.74916        0.141978       0.0278872 
        5.76486        0.144525       0.0276907 
        5.78054         0.14738       0.0274964 
        5.79626        0.149205       0.0273034 
          5.812        0.151455        0.027112 
         5.8277        0.154449        0.026923 
        5.84339        0.157202       0.0267359 
        5.85911        0.160224       0.0265501 
        5.87484        0.161877       0.0263661 
        5.89053        0.165891       0.0261843 
        5.90623        0.168122        0.026004 
        5.92195        0.170471       0.0258252 
        5.93767        0.173902       0.0256481 
        5.95336        0.177049        0.025473 
        5.96905        0.180343       0.0252995 
        5.98476        0.182526       0.0251275 
        6.00048        0.186201       0.0249569 
        6.01617        0.189621       0.0247882 
        6.03185        0.191865       0.0246212 
        6.04756        0.195827       0.0244554 
        6.06331        0.198535       0.0242907 
        6.07903        0.201512       0.0241279 
        6.09473        0.205817       0.0239668 
        6.11044        0.209099       0.0238069 
        6.12616        0.212057       0.0236486 
        6.14186        0.216229       0.0234918 
        6.15755        0.218792       0.0233365 
        6.17326        0.223702       0.0231824 
        6.18898        0.226986       0.0230296 
        6.20467        0.231342       0.0228785 
        6.22036        0.234077       0.0227288 
         6.2361        0.237797         0.02258 
         6.2518        0.242342       0.0224328 
        6.26748        0.244605       0.0222872 
        6.28319        0.248706       0.0221424 
        6.29893        0.253825       0.0219989 
        6.31463        0.259044       0.0218568 
        6.33033        0.261517       0.0217161 
        6.34604        0.264634       0.0215765 
        6.36177        0.270414       0.0214379 
        6.37747        0.273349       0.0213009 
