# k  (h/Mpc)    Pcb(k)  (Mpc/h)^3    Pcb_linear(k) (Mpc/h)^3   ShotnoiseSubtracted = true
      0.0200456         26028.7         26468.2 
      0.0350414         17588.4         16851.4 
      0.0492313         11452.2           11633 
      0.0637834         9194.05         9648.16 
      0.0800726         6895.33         7253.59 
       0.096163         5338.51         4960.15 
       0.111083         4358.91         4017.86 
       0.126058         3624.17         3608.04 
       0.142273         3082.08         2897.37 
       0.158546         2473.15         2211.54 
        0.17375         2227.06         1920.16 
       0.188953         2117.47         1751.38 
       0.204907         1788.93         1485.38 
       0.220756            1611         1229.44 
        0.23588         1436.98         1094.07 
         0.2514         1295.58         1000.84 
       0.267535         1243.21         880.157 
       0.283568         1102.62         764.239 
       0.299022         1044.11         689.455 
       0.314451         1090.33          633.43 
       0.330372          954.43         571.667 
       0.346141         874.004         512.913 
       0.361624         836.517         468.453 
       0.377134         802.334         432.469 
       0.392932           756.8         396.851 
       0.408854         728.631         362.837 
       0.424564         710.358         334.616 
       0.440253         655.552         310.632 
       0.455999         624.163         288.195 
       0.471626          636.48          267.39 
        0.48727          596.04         248.908 
       0.502856         574.922          232.69 
       0.518488         553.249         217.717 
       0.534347         533.625          203.62 
       0.550082         507.079          190.91 
       0.565732         498.115         179.488 
       0.581496         486.106          168.91 
       0.597222         475.019         159.133 
       0.612804         461.832         150.194 
       0.628434         442.671         141.964 
       0.644267          429.18         134.269 
       0.660051         424.657         127.157 
       0.675724         413.205         120.598 
       0.691403          402.53         114.494 
       0.707174           389.3         108.777 
       0.722871         386.963         103.472 
        0.73838         375.208         98.5761 
       0.754018         365.014           93.96 
       0.769845         362.056         89.5894 
        0.78569         352.758          85.493 
       0.801365         340.411         81.6936 
       0.817031          338.01         78.1283 
       0.832809         331.973         74.7536 
       0.848511         327.131         71.5938 
       0.864097          316.26         68.6387 
       0.879701         316.704         65.8478 
       0.895507         304.396         63.1795 
       0.911279         299.244         60.6648 
        0.92691         296.523         58.3078 
       0.942635         291.619         56.0633 
       0.958396         282.722         53.9322 
       0.974128         278.782         51.9158 
       0.989692         271.278         50.0225 
        1.00528         267.451         48.2208 
        1.02113         265.016         46.4797 
        1.03692         260.357         44.8311 
        1.05264         256.124         43.2702 
        1.06832         250.312          41.786 
        1.08405         248.762         40.3676 
        1.09979         243.032         39.0142 
        1.11537         238.231         37.7363 
        1.13105         234.635         36.5082 
        1.14679         231.269           35.33 
        1.16256         229.445         34.2015 
        1.17828         225.616         33.1261 
        1.19395         219.831         32.1006 
         1.2097         218.968         31.1133 
        1.22537         215.881         30.1724 
          1.241         209.353         29.2732 
        1.25666         208.405         28.4085 
        1.27241         205.532         27.5746 
        1.28819         201.003         26.7729 
        1.30392         200.733         26.0053 
        1.31957         195.195         25.2713 
        1.33529         191.134         24.5629 
        1.35108         191.237         23.8789 
        1.36674         185.504         23.2258 
         1.3824         183.595         22.5978 
        1.39811         182.025         21.9909 
        1.41389         178.366         21.4039 
        1.42964         174.847         20.8394 
        1.44531         174.233          20.298 
        1.46101          170.63         19.7746 
        1.47667         168.575         19.2713 
        1.49229         166.854         18.7869 
        1.50793         163.886         18.3185 
        1.52367         160.919         17.8631 
        1.53953         158.957         17.4201 
        1.55526         156.592         16.9957 
        1.57092         155.713         16.5871 
        1.58662         152.677          16.191 
        1.60235         150.876         15.8071 
        1.61809         148.327         15.4354 
        1.63369         145.736          15.079 
        1.64941         144.632         14.7312 
        1.66519         141.744         14.3932 
        1.68085         139.926         14.0682 
        1.69652         138.835         13.7531 
        1.71228         136.482         13.4459 
        1.72806         135.024         13.1478 
        1.74368         132.821         12.8617 
        1.75933         131.696         12.5835 
        1.77505         130.005         12.3123 
        1.79081         127.695         12.0486 
         1.8065         126.228         11.7937 
        1.82218         123.461         11.5465 
        1.83797         122.621         11.3046 
        1.85367         120.996          11.071 
        1.86928         119.577         10.8453 
        1.88497         118.929         10.6248 
        1.90073         117.278         10.4095 
        1.91647         115.246         10.2004 
        1.93218         113.311         9.99746 
        1.94787         111.784         9.80035 
        1.96363          111.13         9.60776 
        1.97935         110.079         9.42074 
        1.99499         108.152         9.23975 
        2.01064         106.537         9.06324 
         2.0264          105.29         8.89024 
        2.04216          103.48         8.72182 
        2.05781         102.295         8.55883 
        2.07353         101.457         8.39942 
        2.08928         99.6906         8.24371 
        2.10499         99.3365         8.09237 
        2.12065          97.597         7.94527 
        2.13633         96.6282         7.80169 
        2.15211         95.0271         7.66074 
        2.16785         93.9731         7.52365 
        2.18349         92.6903         7.39077 
        2.19916         92.4374         7.26082 
        2.21489         90.4449         7.13356 
        2.23063         89.1783         7.00926 
         2.2463         88.4865         6.88847 
        2.26194         87.3179         6.77082 
        2.27765         86.5163         6.65532 
        2.29341         85.1902         6.54221 
        2.30914         84.1437         6.43195 
        2.32486         83.3627         6.32429 
        2.34061         81.9844         6.21891 
        2.35635         81.3148         6.11603 
        2.37203         80.0336         6.01582 
        2.38768         79.0898         5.91806 
        2.40339          78.134         5.82212 
        2.41914         77.3259         5.72808 
        2.43483         76.5214         5.63644 
         2.4505         75.4691         5.54695 
        2.46622         74.6621          5.4591 
        2.48195          73.901         5.37315 
        2.49759         72.6352         5.28949 
        2.51328         72.1205          5.2074 
        2.52906         71.1556         5.12653 
        2.54479         70.2789         5.04767 
        2.56049         69.2532         4.97062 
        2.57618         68.6102         4.89525 
        2.59189          67.438         4.82132 
        2.60758         66.5365         4.74903 
        2.62325         65.9344         4.67831 
        2.63898         65.6072         4.60877 
        2.65468         64.7514          4.5408 
        2.67044         63.9527          4.4739 
        2.68618         63.0835          4.4085 
        2.70184           62.58         4.34467 
        2.71755          61.813         4.28194 
        2.73329          60.979         4.22035 
        2.74897         60.5328         4.16017 
        2.76462         59.7551         4.10129 
        2.78034         58.9066         4.04331 
        2.79607           58.41         3.98638 
        2.81179         57.7314         3.93061 
        2.82749         57.3565         3.87598 
        2.84321         56.4054         3.82231 
        2.85893         55.8063         3.76968 
        2.87462         55.4167         3.71812 
        2.89033         54.4276         3.66748 
        2.90605         54.0488         3.61774 
        2.92176         53.5584         3.56894 
        2.93747         53.0987         3.52107 
        2.95318         52.4572         3.47406 
        2.96891         51.7888         3.42789 
        2.98456         51.2138         3.38276 
        3.00023         50.7987         3.33837 
        3.01596         50.1628         3.29464 
        3.03164          49.605         3.25182 
        3.04738         49.2912         3.20963 
         3.0631         48.5054          3.1682 
        3.07883         47.9628          3.1275 
        3.09456         47.4244         3.08752 
        3.11026         47.1599         3.04829 
        3.12596         46.4814         3.00976 
        3.14163         45.9755         2.97197 
        3.15734         45.4217         2.93475 
        3.17308         44.8864         2.89807 
        3.18879         44.4915         2.86212 
        3.20447         44.1421         2.82682 
         3.2202         43.6248         2.79201 
         3.2359         43.1123         2.75785 
        3.25157         42.8221         2.72434 
        3.26729         42.4125         2.69129 
        3.28304         41.8955         2.65871 
        3.29877            41.5         2.62672 
        3.31446         40.9155         2.59532 
        3.33014         40.5754         2.56446 
        3.34585         40.1432         2.53406 
        3.36158         39.8333          2.5041 
        3.37727          39.297         2.47472 
        3.39294         38.9511         2.44583 
        3.40867         38.5748          2.4173 
        3.42439         38.2446         2.38924 
        3.44008         37.9393         2.36168 
        3.45578          37.386         2.33454 
        3.47153         36.9704         2.30776 
        3.48724         36.6996         2.28144 
        3.50292         36.3633         2.25559 
        3.51859         35.9866         2.23016 
        3.53431         35.5214         2.20504 
        3.55007         35.2907         2.18025 
        3.56577          34.986         2.15593 
        3.58146         34.6263         2.13199 
        3.59719         34.3245         2.10836 
        3.61292         33.9203         2.08509 
        3.62859         33.6134         2.06227 
        3.64429         33.2742         2.03974 
        3.66003         32.9213         2.01747 
        3.67578         32.7413         1.99555 
        3.69146         32.3317         1.97403 
        3.70712         32.0597         1.95287 
        3.72284         31.8175         1.93194 
        3.73853         31.4382         1.91135 
        3.75422          31.058         1.89106 
        3.76993         30.9161         1.87104 
        3.78564         30.5689         1.85132 
        3.80137         30.3653         1.83185 
        3.81707          29.916         1.81269 
        3.83279         29.7239          1.7938 
        3.84853         29.4795         1.77515 
        3.86424         29.1735         1.75679 
        3.87992         28.9146         1.73872 
        3.89561         28.6368         1.72091 
        3.91134         28.4323         1.70331 
        3.92704         28.1648         1.68597 
        3.94273         27.8767         1.66889 
        3.95845         27.6141         1.65201 
        3.97418         27.4102         1.63537 
        3.98988         27.0719         1.61898 
        4.00554         26.8468         1.60285 
        4.02125         26.6453          1.5869 
        4.03698         26.3628         1.57114 
        4.05268         26.1167         1.55563 
        4.06839         25.9043         1.54031 
         4.0841         25.6244         1.52521 
        4.09983         25.4586         1.51028 
        4.11555          25.152         1.49557 
        4.13124         24.9707         1.48109 
        4.14693          24.721         1.46678 
        4.16266         24.5475         1.45263 
        4.17839          24.303         1.43868 
        4.19408         24.0723         1.42494 
        4.20977         23.8955         1.41138 
        4.22551         23.6104         1.39796 
        4.24123         23.4662         1.38472 
        4.25691         23.3004         1.37169 
        4.27259         23.0772         1.35883 
        4.28831         22.8812          1.3461 
        4.30404         22.6407         1.33353 
        4.31974         22.4969         1.32114 
        4.33543         22.2628         1.30892 
        4.35116         22.1289         1.29682 
        4.36688         21.8729         1.28488 
        4.38255         21.7073         1.27313 
        4.39825         21.4959         1.26151 
        4.41398         21.3779            1.25 
         4.4297         21.2102         1.23865 
        4.44541         20.9916         1.22745 
        4.46111          20.781         1.21639 
        4.47683         20.6501         1.20545 
        4.49251         20.4597         1.19468 
        4.50819         20.3168         1.18404 
         4.5239         20.0637         1.17351 
        4.53962         19.9455          1.1631 
        4.55535         19.8009          1.1528 
        4.57106         19.6214         1.14265 
        4.58678         19.4365         1.13262 
         4.6025         19.3306          1.1227 
        4.61821         19.1135         1.11291 
        4.63391         18.9799         1.10324 
         4.6496         18.8132         1.09369 
        4.66532         18.6782         1.08424 
        4.68103         18.5541         1.07491 
        4.69673         18.3803         1.06569 
        4.71241         18.2499         1.05659 
        4.72811         18.0592         1.04758 
        4.74384         17.9293         1.03867 
        4.75955         17.7174         1.02987 
        4.77525         17.6277         1.02118 
        4.79096         17.4774         1.01258 
        4.80669         17.3714         1.00407 
         4.8224         17.2185        0.995671 
        4.83809         17.0707        0.987376 
        4.85379         16.9317        0.979169 
         4.8695          16.835        0.971049 
        4.88521         16.6494        0.963025 
        4.90093         16.5259         0.95509 
        4.91663         16.3938         0.94725 
        4.93234         16.2491         0.93949 
        4.94807         16.1746        0.931812 
        4.96377          15.982        0.924234 
        4.97943         15.8704        0.916756 
        4.99514         15.7929        0.909341 
        5.01086         15.6369        0.902002 
        5.02654         15.5198        0.894762 
        5.04227         15.3876        0.887581 
          5.058         15.2795        0.880474 
        5.07371         15.1349         0.87346 
        5.08942         15.0319         0.86652 
        5.10513         14.9149        0.859655 
        5.12084         14.8051        0.852861 
        5.13656         14.7094        0.846141 
        5.15225         14.5867        0.839505 
        5.16796          14.503        0.832929 
        5.18369         14.3711        0.826417 
         5.1994         14.2405        0.819987 
        5.21509         14.1527        0.813631 
        5.23079         14.0727        0.807334 
        5.24649         13.9309        0.801109 
        5.26217         13.8077        0.794953 
        5.27788         13.7004        0.788853 
        5.29359         13.6356        0.782816 
        5.30933         13.5157        0.776834 
        5.32504         13.4114        0.770923 
        5.34073         13.3152        0.765081 
        5.35646         13.2088        0.759287 
        5.37218         13.0868        0.753552 
        5.38789         13.0485        0.747885 
        5.40357          12.961        0.742283 
        5.41929         12.8245        0.736725 
        5.43502         12.7174        0.731224 
         5.4507         12.6561        0.725792 
        5.46639         12.5586        0.720414 
        5.48212         12.4601        0.715078 
        5.49786         12.3409        0.709789 
        5.51353         12.2836         0.70458 
        5.52921         12.2032        0.699418 
        5.54495         12.1157        0.694292 
        5.56066         11.9827        0.689223 
        5.57637         11.9236        0.684205 
        5.59207         11.8522        0.679241 
        5.60778         11.7284        0.674325 
        5.62346         11.6652        0.669464 
        5.63916         11.5801        0.664646 
        5.65487         11.5102        0.659873 
         5.6706         11.4071        0.655141 
        5.68633         11.3376        0.650454 
        5.70203         11.2705        0.645822 
        5.71773         11.1855        0.641236 
        5.73344         11.0927        0.636692 
        5.74916         11.0222        0.632187 
        5.76486         10.9226        0.627732 
        5.78054         10.8403        0.623327 
        5.79626         10.7992        0.618951 
          5.812         10.7072        0.614613 
         5.8277          10.661         0.61033 
        5.84339          10.572        0.606087 
        5.85911         10.4946        0.601875 
        5.87484         10.3915        0.597705 
        5.89053         10.3353        0.593582 
        5.90623         10.2755        0.589497 
        5.92195         10.2012        0.585442 
        5.93767         10.1193        0.581428 
        5.95336         10.0494        0.577457 
        5.96905          9.9734        0.573526 
        5.98476         9.92581        0.569625 
        6.00048         9.83606        0.565759 
        6.01617         9.78496        0.561934 
        6.03185         9.69098        0.558149 
        6.04756         9.65194         0.55439 
        6.06331         9.57531        0.550657 
        6.07903         9.51532        0.546967 
        6.09473         9.45864        0.543313 
        6.11044         9.39844        0.539689 
        6.12616         9.34161        0.536099 
        6.14186         9.25327        0.532546 
        6.15755         9.20135        0.529024 
        6.17326         9.13454        0.525532 
        6.18898         9.07531        0.522069 
        6.20467         9.02634        0.518643 
        6.22036         8.94379        0.515249 
         6.2361         8.89892        0.511875 
         6.2518         8.84606        0.508538 
        6.26748         8.77892        0.505237 
        6.28319         8.71519        0.501956 
        6.29893         8.65619        0.498702 
        6.31463         8.59668        0.495482 
        6.33033         8.55743        0.492291 
        6.34604         8.46676        0.489126 
        6.36177         8.43382        0.485986 
        6.37747         8.37142        0.482879 
