# k  (h/Mpc)    Pcb(k)  (Mpc/h)^3    Pcb_linear(k) (Mpc/h)^3   ShotnoiseSubtracted = true
      0.0200456         214.885         217.553 
      0.0350414         139.231         138.509 
      0.0492313         96.1516         95.6161 
      0.0637834         79.3785          79.302 
      0.0800726         59.8491         59.6201 
       0.096163         40.9916         40.7695 
       0.111083         33.0192         33.0244 
       0.126058         29.5933         29.6559 
       0.142273         23.9209         23.8147 
       0.158546         18.3564         18.1775 
        0.17375          15.756         15.7825 
       0.188953         14.3717         14.3953 
       0.204907         12.3716         12.2089 
       0.220756         10.1966         10.1053 
        0.23588         9.03944         8.99259 
         0.2514         8.21857         8.22633 
       0.267535         7.25463         7.23436 
       0.283568         6.32006         6.28158 
       0.299022         5.70676         5.66691 
       0.314451         5.18196         5.20641 
       0.330372         4.70599         4.69876 
       0.346141         4.22764         4.21584 
       0.361624         3.86878          3.8504 
       0.377134         3.58249         3.55463 
       0.392932         3.23276         3.26187 
       0.408854         3.00546          2.9823 
       0.424564         2.75391         2.75034 
       0.440253         2.55928         2.55321 
       0.455999         2.38503         2.36879 
       0.471626         2.22058         2.19779 
        0.48727         2.05511         2.04587 
       0.502856         1.91418         1.91257 
       0.518488         1.81007         1.78951 
       0.534347         1.70405         1.67363 
       0.550082         1.57338         1.56917 
       0.565732         1.46306         1.47529 
       0.581496         1.39809         1.38834 
       0.597222          1.3202         1.30798 
       0.612804         1.24022          1.2345 
       0.628434         1.18167         1.16686 
       0.644267         1.11202         1.10361 
       0.660051         1.04931         1.04516 
       0.675724        0.998463        0.991241 
       0.691403        0.951698         0.94107 
       0.707174        0.900802        0.894079 
       0.722871        0.852396        0.850473 
        0.73838        0.818093        0.810236 
       0.754018        0.784526        0.772295 
       0.769845        0.745143         0.73637 
        0.78569         0.70985        0.702701 
       0.801365        0.676771        0.671472 
       0.817031        0.648558        0.642167 
       0.832809        0.620523         0.61443 
       0.848511        0.592622        0.588458 
       0.864097        0.565234        0.564168 
       0.879701        0.541926        0.541229 
       0.895507        0.524068        0.519297 
       0.911279        0.503933        0.498628 
        0.92691        0.482708        0.479255 
       0.942635         0.46451        0.460806 
       0.958396        0.445181         0.44329 
       0.974128        0.428356        0.426717 
       0.989692        0.414335        0.411155 
        1.00528         0.39995        0.396346 
        1.02113        0.382007        0.382035 
        1.03692        0.370814        0.368485 
        1.05264        0.357902        0.355655 
        1.06832        0.345924        0.343456 
        1.08405        0.331939        0.331797 
        1.09979        0.320884        0.320673 
        1.11537        0.312805         0.31017 
        1.13105        0.302131        0.300075 
        1.14679        0.293622        0.290391 
        1.16256        0.281448        0.281116 
        1.17828        0.272603        0.272276 
        1.19395        0.263607        0.263847 
         1.2097        0.254691        0.255733 
        1.22537        0.249501        0.247999 
          1.241        0.241162        0.240608 
        1.25666         0.23526          0.2335 
        1.27241        0.226793        0.226647 
        1.28819        0.220055        0.220057 
        1.30392         0.21392        0.213748 
        1.31957        0.208196        0.207715 
        1.33529         0.20155        0.201892 
        1.35108        0.195858         0.19627 
        1.36674        0.189058        0.190902 
         1.3824        0.186354         0.18574 
        1.39811        0.180191        0.180752 
        1.41389        0.175642        0.175927 
        1.42964        0.171596        0.171287 
        1.44531        0.165657        0.166837 
        1.46101        0.162041        0.162536 
        1.47667        0.156659        0.158399 
        1.49229        0.153752        0.154417 
        1.50793        0.149026        0.150567 
        1.52367        0.145768        0.146824 
        1.53953        0.142371        0.143183 
        1.55526        0.138826        0.139694 
        1.57092        0.134388        0.136336 
        1.58662        0.131936         0.13308 
        1.60235        0.129233        0.129925 
        1.61809        0.124797         0.12687 
        1.63369        0.123153         0.12394 
        1.64941        0.119909        0.121082 
        1.66519        0.116666        0.118303 
        1.68085        0.113794        0.115632 
        1.69652        0.111095        0.113042 
        1.71228         0.10933        0.110517 
        1.72806        0.105777        0.108067 
        1.74368        0.104231        0.105715 
        1.75933        0.101866        0.103429 
        1.77505       0.0993625          0.1012 
        1.79081       0.0976417       0.0990323 
         1.8065       0.0948129       0.0969374 
        1.82218       0.0931413        0.094905 
        1.83797       0.0909316       0.0929168 
        1.85367       0.0890494       0.0909966 
        1.86928       0.0874464       0.0891421 
        1.88497        0.085731       0.0873291 
        1.90073       0.0836602       0.0855598 
        1.91647       0.0817984        0.083841 
        1.93218       0.0801011       0.0821731 
        1.94787       0.0783543       0.0805529 
        1.96363       0.0770225         0.07897 
        1.97935        0.075111       0.0774328 
        1.99499       0.0738939       0.0759451 
        2.01064       0.0725313       0.0744944 
         2.0264       0.0710715       0.0730724 
        2.04216        0.069753       0.0716881 
        2.05781       0.0683721       0.0703484 
        2.07353       0.0665912       0.0690382 
        2.08928       0.0654433       0.0677583 
        2.10499       0.0640419       0.0665144 
        2.12065       0.0632269       0.0653053 
        2.13633       0.0615838       0.0641252 
        2.15211        0.060981       0.0629666 
        2.16785        0.059613       0.0618399 
        2.18349       0.0582387       0.0607477 
        2.19916        0.057649       0.0596796 
        2.21489       0.0565893       0.0586335 
        2.23063       0.0555156       0.0576118 
         2.2463       0.0542874        0.056619 
        2.26194       0.0532398       0.0556521 
        2.27765       0.0522842       0.0547027 
        2.29341       0.0516413        0.053773 
        2.30914       0.0504815       0.0528667 
        2.32486       0.0496146       0.0519818 
        2.34061       0.0488741       0.0511157 
        2.35635       0.0478644       0.0502701 
        2.37203       0.0471379       0.0494464 
        2.38768       0.0462423       0.0486429 
        2.40339        0.045425       0.0478543 
        2.41914       0.0448675       0.0470813 
        2.43483       0.0438831       0.0463281 
         2.4505       0.0430865       0.0455926 
        2.46622       0.0424107       0.0448705 
        2.48195       0.0416419        0.044164 
        2.49759       0.0412052       0.0434764 
        2.51328        0.040581       0.0428017 
        2.52906       0.0398182        0.042137 
        2.54479        0.039145       0.0414888 
        2.56049       0.0384951       0.0408555 
        2.57618       0.0379163        0.040236 
        2.59189       0.0373004       0.0396283 
        2.60758       0.0368314       0.0390341 
        2.62325       0.0361365       0.0384528 
        2.63898       0.0355658       0.0378813 
        2.65468       0.0348525       0.0373226 
        2.67044       0.0345918       0.0367728 
        2.68618        0.033935       0.0362352 
        2.70184       0.0333856       0.0357106 
        2.71755       0.0327842       0.0351949 
        2.73329       0.0323751       0.0346887 
        2.74897       0.0319666        0.034194 
        2.76462       0.0313805       0.0337101 
        2.78034       0.0309753       0.0332335 
        2.79607       0.0305198       0.0327656 
        2.81179       0.0300781       0.0323073 
        2.82749       0.0295308       0.0318582 
        2.84321       0.0291974       0.0314171 
        2.85893       0.0287364       0.0309845 
        2.87462       0.0284412       0.0305607 
        2.89033         0.02797       0.0301445 
        2.90605       0.0274592       0.0297356 
        2.92176       0.0272096       0.0293345 
        2.93747       0.0267576        0.028941 
        2.95318       0.0263104       0.0285547 
        2.96891       0.0260261       0.0281752 
        2.98456       0.0257253       0.0278042 
        3.00023       0.0252823       0.0274394 
        3.01596       0.0248704       0.0270799 
        3.03164       0.0246726        0.026728 
        3.04738       0.0242805       0.0263812 
         3.0631       0.0238428       0.0260407 
        3.07883       0.0235285       0.0257061 
        3.09456       0.0233563       0.0253775 
        3.11026       0.0229558       0.0250551 
        3.12596       0.0227674       0.0247384 
        3.14163       0.0224091       0.0244278 
        3.15734       0.0221387       0.0241218 
        3.17308        0.021801       0.0238204 
        3.18879       0.0214904       0.0235249 
        3.20447       0.0213015       0.0232348 
         3.2202       0.0210087       0.0229487 
         3.2359       0.0207957       0.0226679 
        3.25157       0.0204459       0.0223925 
        3.26729       0.0202319       0.0221208 
        3.28304        0.019977        0.021853 
        3.29877       0.0197446       0.0215901 
        3.31446       0.0194668        0.021332 
        3.33014       0.0192291       0.0210783 
        3.34585       0.0190279       0.0208284 
        3.36158        0.018722       0.0205822 
        3.37727       0.0185861       0.0203407 
        3.39294       0.0183491       0.0201033 
        3.40867       0.0181359       0.0198688 
        3.42439        0.017938       0.0196381 
        3.44008       0.0177108       0.0194116 
        3.45578       0.0175507       0.0191885 
        3.47153       0.0173144       0.0189684 
        3.48724       0.0172354       0.0187521 
        3.50292       0.0168956       0.0185396 
        3.51859       0.0167008       0.0183306 
        3.53431       0.0165984       0.0181241 
        3.55007       0.0163969       0.0179203 
        3.56577       0.0162629       0.0177204 
        3.58146       0.0159967       0.0175237 
        3.59719       0.0158908       0.0173294 
        3.61292       0.0156328       0.0171382 
        3.62859       0.0154994       0.0169506 
        3.64429       0.0153835       0.0167654 
        3.66003       0.0152003       0.0165824 
        3.67578       0.0150441       0.0164022 
        3.69146       0.0149185       0.0162253 
        3.70712       0.0147901       0.0160514 
        3.72284       0.0145935       0.0158794 
        3.73853       0.0144407       0.0157102 
        3.75422       0.0143639       0.0155434 
        3.76993       0.0141675       0.0153788 
        3.78564       0.0140925       0.0152167 
        3.80137       0.0139245       0.0150567 
        3.81707       0.0137493       0.0148993 
        3.83279       0.0136659        0.014744 
        3.84853       0.0135354       0.0145906 
        3.86424       0.0133939       0.0144398 
        3.87992       0.0132947       0.0142913 
        3.89561        0.013177       0.0141448 
        3.91134       0.0130757       0.0140001 
        3.92704       0.0128994       0.0138576 
        3.94273       0.0128035       0.0137173 
        3.95845       0.0126747       0.0135786 
        3.97418       0.0125932       0.0134417 
        3.98988       0.0124429        0.013307 
        4.00554       0.0122954       0.0131745 
        4.02125        0.012159       0.0130433 
        4.03698        0.012046       0.0129138 
        4.05268       0.0118768       0.0127863 
        4.06839       0.0117106       0.0126604 
         4.0841       0.0115688       0.0125363 
        4.09983       0.0113993       0.0124136 
        4.11555       0.0112954       0.0122927 
        4.13124       0.0111607       0.0121736 
        4.14693        0.010991       0.0120561 
        4.16266       0.0108514       0.0119398 
        4.17839       0.0107448       0.0118251 
        4.19408       0.0106525       0.0117122 
        4.20977       0.0105069       0.0116007 
        4.22551       0.0103794       0.0114904 
        4.24123       0.0102729       0.0113816 
        4.25691       0.0101747       0.0112745 
        4.27259       0.0100771       0.0111688 
        4.28831       0.0100248       0.0110642 
        4.30404      0.00991116       0.0109608 
        4.31974      0.00980103        0.010859 
        4.33543      0.00975238       0.0107585 
        4.35116      0.00967084       0.0106591 
        4.36688      0.00959506       0.0105609 
        4.38255      0.00952617       0.0104644 
        4.39825      0.00949001       0.0103688 
        4.41398      0.00945438       0.0102743 
         4.4297      0.00938315        0.010181 
        4.44541      0.00933308       0.0100889 
        4.46111      0.00928094      0.00999795 
        4.47683      0.00924775       0.0099081 
        4.49251       0.0091955      0.00981953 
        4.50819      0.00915534      0.00973206 
         4.5239      0.00914322      0.00964553 
        4.53962      0.00913064      0.00955994 
        4.55535      0.00911638      0.00947535 
        4.57106      0.00913416       0.0093919 
        4.58678      0.00908456      0.00930943 
         4.6025      0.00909973      0.00922793 
        4.61821      0.00912345      0.00914742 
        4.63391      0.00911455      0.00906797 
         4.6496      0.00909452      0.00898949 
        4.66532      0.00911279      0.00891182 
        4.68103      0.00914339      0.00883509 
        4.69673      0.00914542      0.00875934 
        4.71241      0.00918938      0.00868455 
        4.72811      0.00919809      0.00861051 
        4.74384      0.00923556      0.00853724 
        4.75955      0.00928533      0.00846493 
        4.77525      0.00934407      0.00839349 
        4.79096      0.00939891      0.00832278 
        4.80669      0.00940432      0.00825286 
         4.8224      0.00950439      0.00818382 
        4.83809      0.00952481      0.00811563 
        4.85379      0.00962019      0.00804818 
         4.8695      0.00964794      0.00798144 
        4.88521      0.00971391      0.00791548 
        4.90093      0.00983036      0.00785026 
        4.91663      0.00994015      0.00778583 
        4.93234      0.00998016      0.00772204 
        4.94807       0.0100785      0.00765893 
        4.96377       0.0101607      0.00759665 
        4.97943       0.0103077      0.00753518 
        4.99514       0.0103811      0.00747423 
        5.01086       0.0104706      0.00741391 
        5.02654       0.0106279      0.00735441 
        5.04227        0.010734      0.00729538 
          5.058       0.0108477      0.00723697 
        5.07371        0.010985      0.00717931 
        5.08942       0.0112164      0.00712227 
        5.10513       0.0113028      0.00706585 
        5.12084       0.0113779         0.00701 
        5.13656       0.0115749      0.00695477 
        5.15225       0.0117497      0.00690022 
        5.16796       0.0119658      0.00684617 
        5.18369       0.0120823      0.00679265 
         5.1994       0.0122426       0.0067398 
        5.21509       0.0124429      0.00668755 
        5.23079       0.0125896       0.0066358 
        5.24649       0.0128091      0.00658463 
        5.26217       0.0130127      0.00653403 
        5.27788       0.0132431       0.0064839 
        5.29359       0.0134711      0.00643428 
        5.30933        0.013656       0.0063851 
        5.32504       0.0138797      0.00633652 
        5.34073       0.0142257       0.0062885 
        5.35646        0.014429      0.00624088 
        5.37218       0.0146502      0.00619374 
        5.38789       0.0150118      0.00614716 
        5.40357       0.0152156      0.00610111 
        5.41929       0.0154053      0.00605544 
        5.43502       0.0157949      0.00601022 
         5.4507       0.0160966      0.00596557 
        5.46639       0.0163989      0.00592136 
        5.48212       0.0165965      0.00587751 
        5.49786       0.0169872      0.00583404 
        5.51353       0.0173887      0.00579122 
        5.52921       0.0177318      0.00574879 
        5.54495       0.0180978      0.00570666 
        5.56066       0.0184563      0.00566499 
        5.57637       0.0188487      0.00562375 
        5.59207       0.0191843      0.00558295 
        5.60778       0.0196043      0.00554254 
        5.62346        0.020011      0.00550259 
        5.63916        0.020362      0.00546299 
        5.65487       0.0209153      0.00542376 
         5.6706       0.0212873      0.00538487 
        5.68633       0.0217968      0.00534634 
        5.70203       0.0222667      0.00530827 
        5.71773       0.0228229      0.00527057 
        5.73344       0.0232701      0.00523322 
        5.74916        0.023865       0.0051962 
        5.76486       0.0243365      0.00515958 
        5.78054       0.0247504      0.00512337 
        5.79626       0.0254521      0.00508741 
          5.812       0.0259501      0.00505175 
         5.8277       0.0268393      0.00501654 
        5.84339       0.0271343      0.00498167 
        5.85911       0.0279473      0.00494705 
        5.87484       0.0285998      0.00491277 
        5.89053        0.029267      0.00487889 
        5.90623       0.0299091      0.00484531 
        5.92195       0.0307739      0.00481198 
        5.93767       0.0314565      0.00477898 
        5.95336       0.0322252      0.00474635 
        5.96905       0.0330116      0.00471404 
        5.98476       0.0335576      0.00468197 
        6.00048       0.0345082       0.0046502 
        6.01617       0.0352518      0.00461876 
        6.03185        0.036189      0.00458765 
        6.04756       0.0371652      0.00455675 
        6.06331       0.0382941      0.00452607 
        6.07903       0.0390986      0.00449573 
        6.09473       0.0401471       0.0044657 
        6.11044       0.0413479      0.00443592 
        6.12616       0.0424149      0.00440641 
        6.14186       0.0434116       0.0043772 
        6.15755       0.0444637      0.00434826 
        6.17326       0.0454132      0.00431955 
        6.18898       0.0468267      0.00429109 
        6.20467        0.048325      0.00426294 
        6.22036       0.0495983      0.00423503 
         6.2361        0.050647      0.00420731 
         6.2518       0.0524207      0.00417987 
        6.26748        0.053255      0.00415274 
        6.28319       0.0551158      0.00412578 
        6.29893       0.0566326      0.00409903 
        6.31463       0.0580678      0.00407256 
        6.33033       0.0595808      0.00404633 
        6.34604       0.0611209      0.00402032 
        6.36177       0.0631138      0.00399451 
        6.37747       0.0646938      0.00396897 
