# k  (h/Mpc)    Pcb(k)  (Mpc/h)^3    Pcb_linear(k) (Mpc/h)^3   ShotnoiseSubtracted = true
      0.0200456         591.324         598.808 
      0.0350414         382.192         381.242 
      0.0492313         264.583         263.181 
      0.0637834         219.035         218.277 
      0.0800726         165.197         164.103 
       0.096163         112.569         112.217 
       0.111083          90.596         90.8989 
       0.126058         81.5968         81.6273 
       0.142273         66.1092         65.5493 
       0.158546         50.7562         50.0332 
        0.17375         43.3464         43.4411 
       0.188953         39.7214         39.6227 
       0.204907          34.471         33.6048 
       0.220756         28.2922         27.8146 
        0.23588         25.0632         24.7519 
         0.2514         22.7239         22.6428 
       0.267535         20.1288         19.9124 
       0.283568         17.5704         17.2899 
       0.299022         15.9037          15.598 
       0.314451         14.3544         14.3305 
       0.330372         13.0864         12.9332 
       0.346141         11.7593          11.604 
       0.361624          10.784         10.5981 
       0.377134         10.0226         9.78404 
       0.392932          8.9545         8.97823 
       0.408854         8.41095         8.20872 
       0.424564          7.7152         7.57026 
       0.440253         7.15393         7.02764 
       0.455999         6.68126         6.52004 
       0.471626         6.23912         6.04936 
        0.48727         5.78092         5.63121 
       0.502856         5.37656          5.2643 
       0.518488         5.10375         4.92557 
       0.534347         4.82858         4.60663 
       0.550082         4.42191         4.31909 
       0.565732          4.0894         4.06069 
       0.581496         3.94947         3.82137 
       0.597222         3.74456         3.60017 
       0.612804         3.49994         3.39793 
       0.628434          3.3529         3.21176 
       0.644267         3.16198         3.03766 
       0.660051         2.97677         2.87677 
       0.675724           2.831         2.72837 
       0.691403         2.71062         2.59027 
       0.707174         2.56089         2.46093 
       0.722871         2.43164         2.34091 
        0.73838          2.3316         2.23015 
       0.754018         2.24795         2.12572 
       0.769845         2.12477         2.02684 
        0.78569         2.03414         1.93417 
       0.801365         1.93915         1.84821 
       0.817031         1.86256         1.76755 
       0.832809         1.78396          1.6912 
       0.848511         1.69503         1.61972 
       0.864097         1.61899         1.55286 
       0.879701          1.5569         1.48972 
       0.895507         1.49853         1.42935 
       0.911279         1.45614         1.37246 
        0.92691         1.39432         1.31914 
       0.942635         1.33691         1.26836 
       0.958396         1.28211         1.22015 
       0.974128         1.23658         1.17453 
       0.989692          1.2015         1.13169 
        1.00528         1.15218         1.09093 
        1.02113         1.10354         1.05154 
        1.03692         1.07752         1.01425 
        1.05264         1.03715        0.978931 
        1.06832         1.00606        0.945353 
        1.08405        0.958988        0.913264 
        1.09979        0.932312        0.882646 
        1.11537        0.906881        0.853736 
        1.13105        0.879584        0.825949 
        1.14679        0.854673        0.799294 
        1.16256        0.819117        0.773764 
        1.17828        0.795927        0.749435 
        1.19395        0.770902        0.726234 
         1.2097        0.738922        0.703898 
        1.22537        0.725917         0.68261 
          1.241        0.704383        0.662268 
        1.25666        0.692259        0.642704 
        1.27241        0.660567         0.62384 
        1.28819        0.642825        0.605701 
        1.30392        0.628208        0.588337 
        1.31957        0.611372         0.57173 
        1.33529        0.591113        0.555704 
        1.35108        0.574728        0.540229 
        1.36674        0.554219        0.525454 
         1.3824        0.545964        0.511245 
        1.39811        0.529208        0.497515 
        1.41389        0.517387        0.484236 
        1.42964        0.504591        0.471464 
        1.44531        0.487793        0.459215 
        1.46101        0.478434        0.447376 
        1.47667        0.459646        0.435988 
        1.49229        0.454933        0.425028 
        1.50793        0.439984        0.414432 
        1.52367        0.430842        0.404129 
        1.53953        0.418346        0.394107 
        1.55526        0.409374        0.384504 
        1.57092        0.397927        0.375262 
        1.58662        0.390473          0.3663 
        1.60235         0.38108        0.357615 
        1.61809        0.368951        0.349206 
        1.63369        0.366862        0.341142 
        1.64941        0.354217        0.333275 
        1.66519         0.34578        0.325627 
        1.68085        0.336636        0.318274 
        1.69652          0.3297        0.311146 
        1.71228        0.324121        0.304195 
        1.72806        0.313764        0.297451 
        1.74368        0.310565        0.290979 
        1.75933        0.301863        0.284686 
        1.77505        0.295562         0.27855 
        1.79081        0.289769        0.272584 
         1.8065        0.281126        0.266818 
        1.82218        0.277056        0.261224 
        1.83797        0.270433        0.255751 
        1.85367        0.267073        0.250466 
        1.86928        0.260342        0.245361 
        1.88497        0.254811        0.240371 
        1.90073        0.249072        0.235501 
        1.91647        0.244991         0.23077 
        1.93218        0.238914         0.22618 
        1.94787        0.234516         0.22172 
        1.96363        0.229573        0.217363 
        1.97935        0.224393        0.213132 
        1.99499        0.220422        0.209037 
        2.01064        0.216131        0.205044 
         2.0264        0.211376         0.20113 
        2.04216         0.20901         0.19732 
        2.05781        0.204301        0.193632 
        2.07353        0.199008        0.190026 
        2.08928        0.195001        0.186503 
        2.10499        0.192395        0.183079 
        2.12065        0.189406        0.179751 
        2.13633        0.185571        0.176503 
        2.15211         0.18233        0.173314 
        2.16785        0.178147        0.170213 
        2.18349        0.174489        0.167207 
        2.19916        0.172481        0.164267 
        2.21489        0.169002        0.161387 
        2.23063        0.166414        0.158575 
         2.2463        0.163226        0.155843 
        2.26194        0.159216        0.153181 
        2.27765        0.156988        0.150568 
        2.29341        0.154552        0.148009 
        2.30914        0.152002        0.145514 
        2.32486         0.14911        0.143079 
        2.34061        0.146585        0.140695 
        2.35635        0.143298        0.138367 
        2.37203        0.141324          0.1361 
        2.38768        0.138727        0.133888 
        2.40339        0.137009        0.131718 
        2.41914        0.134893         0.12959 
        2.43483        0.132524        0.127517 
         2.4505        0.129361        0.125493 
        2.46622        0.127329        0.123505 
        2.48195        0.125716         0.12156 
        2.49759        0.124034        0.119668 
        2.51328        0.121707        0.117811 
        2.52906        0.120123        0.115981 
        2.54479        0.117627        0.114197 
        2.56049        0.115482        0.112454 
        2.57618        0.113689        0.110749 
        2.59189         0.11246        0.109076 
        2.60758        0.110988        0.107441 
        2.62325        0.108717        0.105841 
        2.63898        0.107091        0.104268 
        2.65468        0.105012         0.10273 
        2.67044         0.10394        0.101216 
        2.68618        0.102246       0.0997366 
        2.70184        0.100503       0.0982925 
        2.71755       0.0986715       0.0968733 
        2.73329       0.0974966       0.0954798 
        2.74897       0.0962106       0.0941183 
        2.76462       0.0946104       0.0927863 
        2.78034       0.0932827       0.0914745 
        2.79607       0.0916237       0.0901867 
        2.81179       0.0908314        0.088925 
        2.82749       0.0890237       0.0876889 
        2.84321       0.0879242       0.0864748 
        2.85893       0.0869155        0.085284 
        2.87462       0.0855639       0.0841176 
        2.89033       0.0842438        0.082972 
        2.90605       0.0827988       0.0818466 
        2.92176       0.0819588       0.0807426 
        2.93747       0.0804787       0.0796596 
        2.95318       0.0795223       0.0785961 
        2.96891       0.0783937       0.0775515 
        2.98456       0.0772433       0.0765304 
        3.00023       0.0764025       0.0755262 
        3.01596       0.0752238       0.0745369 
        3.03164       0.0745761       0.0735681 
        3.04738       0.0730612       0.0726136 
         3.0631       0.0723613       0.0716763 
        3.07883        0.071201       0.0707555 
        3.09456       0.0703237        0.069851 
        3.11026       0.0693458       0.0689637 
        3.12596       0.0683774       0.0680918 
        3.14163       0.0675772        0.067237 
        3.15734       0.0668801       0.0663948 
        3.17308       0.0661112        0.065565 
        3.18879       0.0651205       0.0647516 
        3.20447        0.064037       0.0639532 
         3.2202       0.0637635       0.0631657 
         3.2359       0.0627336       0.0623928 
        3.25157       0.0618996       0.0616347 
        3.26729       0.0609565       0.0608869 
        3.28304       0.0605992       0.0601499 
        3.29877       0.0596489       0.0594261 
        3.31446       0.0589264       0.0587158 
        3.33014       0.0584105       0.0580176 
        3.34585       0.0578407       0.0573298 
        3.36158        0.057084        0.056652 
        3.37727       0.0564854       0.0559872 
        3.39294       0.0556484       0.0553338 
        3.40867       0.0550456       0.0546883 
        3.42439       0.0544384       0.0540535 
        3.44008       0.0536132         0.05343 
        3.45578       0.0532641       0.0528158 
        3.47153       0.0525258       0.0522099 
        3.48724       0.0520665       0.0516146 
        3.50292       0.0514556       0.0510299 
        3.51859       0.0508635       0.0504545 
        3.53431       0.0502191       0.0498862 
        3.55007       0.0498971       0.0493252 
        3.56577       0.0493071        0.048775 
        3.58146       0.0488828       0.0482335 
        3.59719       0.0484066       0.0476989 
        3.61292       0.0479255       0.0471725 
        3.62859        0.047385       0.0466561 
        3.64429       0.0468745       0.0461463 
        3.66003       0.0464858       0.0456427 
        3.67578       0.0459239       0.0451467 
        3.69146       0.0453888       0.0446599 
        3.70712       0.0451968       0.0441812 
        3.72284       0.0447674       0.0437077 
        3.73853       0.0442456       0.0432419 
        3.75422       0.0439512       0.0427827 
        3.76993       0.0433008       0.0423298 
        3.78564       0.0430263       0.0418836 
        3.80137       0.0426409       0.0414431 
        3.81707       0.0422081       0.0410099 
        3.83279         0.04198       0.0405824 
        3.84853       0.0415108       0.0401604 
        3.86424       0.0411068       0.0397451 
        3.87992       0.0406662       0.0393364 
        3.89561       0.0403471       0.0389333 
        3.91134        0.040051       0.0385351 
        3.92704       0.0396366       0.0381428 
        3.94273       0.0392281       0.0377564 
        3.95845       0.0389526       0.0373747 
        3.97418       0.0387054       0.0369981 
        3.98988       0.0381522       0.0366272 
        4.00554        0.037914       0.0362624 
        4.02125       0.0374094       0.0359015 
        4.03698       0.0368915       0.0355449 
        4.05268       0.0363973        0.035194 
        4.06839        0.036039       0.0348475 
         4.0841       0.0354799       0.0345058 
        4.09983       0.0350888       0.0341682 
        4.11555       0.0345588       0.0338353 
        4.13124       0.0341006       0.0335076 
        4.14693       0.0337101        0.033184 
        4.16266       0.0332999        0.032864 
        4.17839        0.032964       0.0325483 
        4.19408       0.0325691       0.0322375 
        4.20977        0.032263       0.0319306 
        4.22551        0.031848       0.0316269 
        4.24123       0.0315258       0.0313275 
        4.25691       0.0311529       0.0310328 
        4.27259       0.0308561       0.0307418 
        4.28831       0.0305505       0.0304539 
        4.30404       0.0303356       0.0301694 
        4.31974       0.0300573       0.0298891 
        4.33543       0.0298495       0.0296126 
        4.35116       0.0296058       0.0293389 
        4.36688       0.0292965       0.0290687 
        4.38255       0.0290656       0.0288029 
        4.39825         0.02894       0.0285399 
        4.41398       0.0288011       0.0282796 
         4.4297       0.0286537       0.0280229 
        4.44541       0.0284203       0.0277693 
        4.46111       0.0283576       0.0275191 
        4.47683       0.0281443       0.0272718 
        4.49251       0.0280239        0.027028 
        4.50819       0.0278866       0.0267873 
         4.5239       0.0277889       0.0265491 
        4.53962       0.0277225       0.0263135 
        4.55535       0.0276124       0.0260807 
        4.57106       0.0276252        0.025851 
        4.58678       0.0274361        0.025624 
         4.6025       0.0275092       0.0253997 
        4.61821       0.0275476       0.0251781 
        4.63391       0.0274796       0.0249594 
         4.6496       0.0274319       0.0247434 
        4.66532       0.0275098       0.0245296 
        4.68103       0.0275061       0.0243184 
        4.69673       0.0275277       0.0241099 
        4.71241       0.0275835        0.023904 
        4.72811       0.0276248       0.0237002 
        4.74384         0.02767       0.0234985 
        4.75955       0.0278119       0.0232995 
        4.77525       0.0278988       0.0231029 
        4.79096       0.0279556       0.0229083 
        4.80669       0.0279769       0.0227158 
         4.8224       0.0282231       0.0225258 
        4.83809       0.0283856       0.0223381 
        4.85379       0.0284457       0.0221524 
         4.8695       0.0286751       0.0219687 
        4.88521       0.0287758       0.0217872 
        4.90093       0.0291216       0.0216077 
        4.91663       0.0292722       0.0214303 
        4.93234       0.0293825       0.0212547 
        4.94807       0.0296574        0.021081 
        4.96377       0.0299513       0.0209096 
        4.97943        0.030266       0.0207404 
        4.99514       0.0303465       0.0205726 
        5.01086       0.0307244       0.0204066 
        5.02654       0.0310228       0.0202428 
        5.04227       0.0312063       0.0200804 
          5.058       0.0316755       0.0199196 
        5.07371       0.0320563       0.0197609 
        5.08942       0.0323113       0.0196039 
        5.10513       0.0327564       0.0194486 
        5.12084       0.0331811       0.0192949 
        5.13656       0.0334678       0.0191428 
        5.15225       0.0339836       0.0189927 
        5.16796       0.0344141       0.0188439 
        5.18369       0.0347671       0.0186966 
         5.1994       0.0353297       0.0185511 
        5.21509       0.0357017       0.0184073 
        5.23079       0.0361694       0.0182649 
        5.24649       0.0367356        0.018124 
        5.26217       0.0373782       0.0179848 
        5.27788        0.037923       0.0178468 
        5.29359       0.0385321       0.0177102 
        5.30933       0.0390723       0.0175748 
        5.32504       0.0396188       0.0174411 
        5.34073        0.040356        0.017309 
        5.35646        0.041085       0.0171779 
        5.37218       0.0417302       0.0170481 
        5.38789       0.0425598       0.0169199 
        5.40357        0.043038       0.0167932 
        5.41929        0.043975       0.0166674 
        5.43502       0.0445992        0.016543 
         5.4507       0.0454377       0.0164201 
        5.46639       0.0465076       0.0162984 
        5.48212       0.0470002       0.0161777 
        5.49786       0.0480006        0.016058 
        5.51353       0.0493207       0.0159402 
        5.52921       0.0497983       0.0158234 
        5.54495       0.0508351       0.0157074 
        5.56066       0.0518218       0.0155928 
        5.57637       0.0528504       0.0154792 
        5.59207       0.0542118        0.015367 
        5.60778       0.0551219       0.0152557 
        5.62346       0.0562138       0.0151457 
        5.63916       0.0574347       0.0150368 
        5.65487       0.0586933       0.0149288 
         5.6706       0.0595334       0.0148217 
        5.68633       0.0609617       0.0147157 
        5.70203        0.061837       0.0146109 
        5.71773       0.0638841       0.0145071 
        5.73344       0.0649437       0.0144043 
        5.74916        0.066607       0.0143024 
        5.76486       0.0679441       0.0142016 
        5.78054       0.0691724        0.014102 
        5.79626       0.0703058        0.014003 
          5.812       0.0724447       0.0139048 
         5.8277        0.073868       0.0138079 
        5.84339       0.0755183       0.0137119 
        5.85911       0.0774425       0.0136166 
        5.87484       0.0789309       0.0135223 
        5.89053       0.0811889        0.013429 
        5.90623       0.0829576       0.0133366 
        5.92195       0.0849833       0.0132449 
        5.93767       0.0870294        0.013154 
        5.95336       0.0884809       0.0130642 
        5.96905       0.0907185       0.0129753 
        5.98476       0.0932209        0.012887 
        6.00048       0.0946513       0.0127996 
        6.01617       0.0967697        0.012713 
        6.03185       0.0998447       0.0126274 
        6.04756        0.102256       0.0125423 
        6.06331        0.103991       0.0124579 
        6.07903        0.107244       0.0123744 
        6.09473        0.110408       0.0122917 
        6.11044        0.112551       0.0122098 
        6.12616        0.114991       0.0121286 
        6.14186          0.1176       0.0120481 
        6.15755        0.120861       0.0119685 
        6.17326        0.124197       0.0118895 
        6.18898         0.12574       0.0118111 
        6.20467        0.130323       0.0117336 
        6.22036         0.13233       0.0116568 
         6.2361         0.13626       0.0115805 
         6.2518        0.139292        0.011505 
        6.26748        0.142095       0.0114303 
        6.28319         0.14586       0.0113561 
        6.29893        0.150128       0.0112825 
        6.31463        0.153114       0.0112096 
        6.33033        0.157202       0.0111374 
        6.34604        0.161421       0.0110658 
        6.36177        0.164263       0.0109948 
        6.37747        0.169621       0.0109245 
