# k  (h/Mpc)    Pcb(k)  (Mpc/h)^3    Pcb_linear(k) (Mpc/h)^3   ShotnoiseSubtracted = true
      0.0200456         1248.93         1266.68 
      0.0350414         792.659         793.307 
      0.0492313         523.431         519.906 
      0.0637834         437.219         431.945 
      0.0800726          350.13          348.59 
       0.096163         235.511          235.71 
       0.111083         176.662         176.771 
       0.126058         161.507         160.662 
       0.142273         141.704         140.798 
       0.158546         108.787         106.856 
        0.17375         85.9915         85.5903 
       0.188953         79.4438         78.3218 
       0.204907         74.2293         71.7328 
       0.220756         61.3956         59.9852 
        0.23588         51.7368         50.2556 
         0.2514          46.158         45.3626 
       0.267535         42.8879         42.0162 
       0.283568         38.1636          37.173 
       0.299022          33.772         32.4241 
       0.314451         29.9317         29.2954 
       0.330372         27.9447         27.1469 
       0.346141         25.4918         24.8163 
       0.361624         23.2268         22.3621 
       0.377134         21.4657           20.37 
       0.392932         19.1518          18.877 
       0.408854          18.339         17.4943 
       0.424564          16.896         16.0933 
       0.440253         15.5439         14.8299 
       0.455999         14.5643         13.7936 
       0.471626          13.687         12.8931 
        0.48727         12.7741         12.0224 
       0.502856         11.8697         11.2094 
       0.518488         11.2892         10.4904 
       0.534347         10.7676         9.84682 
       0.550082          9.8236          9.2539 
       0.565732         9.05955         8.69945 
       0.581496         8.83223          8.1887 
       0.597222         8.43281         7.72809 
       0.612804         7.85795         7.30757 
       0.628434         7.55172         6.91374 
       0.644267         7.18637         6.54221 
       0.660051         6.76374         6.20148 
       0.675724         6.41898         5.88878 
       0.691403         6.18717         5.59741 
       0.707174         5.85771         5.32399 
       0.722871         5.60014         5.06984 
        0.73838         5.35602         4.83494 
       0.754018         5.18472         4.61311 
       0.769845         4.90417         4.40276 
        0.78569         4.72762         4.20535 
       0.801365         4.51296           4.022 
       0.817031         4.34802         3.84978 
       0.832809         4.19056         3.68662 
       0.848511         3.95543         3.53375 
       0.864097         3.80879         3.39069 
       0.879701          3.6769         3.25549 
       0.895507         3.50685         3.12615 
       0.911279         3.45081         3.00417 
        0.92691         3.31517         2.88977 
       0.942635          3.1648         2.78075 
       0.958396         3.04808         2.67718 
       0.974128         2.95709         2.57912 
       0.989692         2.88711         2.48698 
        1.00528         2.75723         2.39924 
        1.02113         2.65441          2.3144 
        1.03692         2.59776           2.234 
        1.05264         2.50462         2.15781 
        1.06832         2.43989         2.08533 
        1.08405          2.3199           2.016 
        1.09979         2.27228          1.9498 
        1.11537         2.20677         1.88726 
        1.13105         2.14555          1.8271 
        1.14679          2.0867         1.76935 
        1.16256         2.00867         1.71401 
        1.17828          1.9614         1.66122 
        1.19395          1.9066         1.61086 
         1.2097         1.82533         1.56234 
        1.22537         1.78249         1.51606 
          1.241         1.74265         1.47182 
        1.25666         1.72517         1.42924 
        1.27241         1.63952         1.38816 
        1.28819         1.60596         1.34863 
        1.30392         1.57244         1.31077 
        1.31957         1.53486         1.27454 
        1.33529         1.48373         1.23956 
        1.35108         1.45015         1.20576 
        1.36674         1.40329         1.17347 
         1.3824         1.36862          1.1424 
        1.39811         1.33519         1.11236 
        1.41389         1.31125          1.0833 
        1.42964         1.28037         1.05533 
        1.44531         1.24738         1.02848 
        1.46101          1.2185         1.00252 
        1.47667         1.17723        0.977544 
        1.49229          1.1667        0.953488 
        1.50793         1.13234        0.930219 
        1.52367         1.11076        0.907581 
        1.53953          1.0748        0.885549 
        1.55526         1.05547         0.86443 
        1.57092         1.03085         0.84409 
        1.58662         1.01194        0.824361 
        1.60235        0.985813        0.805227 
        1.61809         0.96302        0.786695 
        1.63369        0.954134        0.768914 
        1.64941        0.924562        0.751559 
        1.66519        0.908239         0.73468 
        1.68085        0.881595        0.718442 
        1.69652        0.866522        0.702693 
        1.71228        0.853293        0.687329 
        1.72806        0.828349        0.672415 
        1.74368        0.817251        0.658096 
        1.75933        0.796618        0.644168 
        1.77505        0.783981        0.630579 
        1.79081        0.767646        0.617361 
         1.8065        0.747546        0.604581 
        1.82218        0.738311        0.592175 
        1.83797        0.725508        0.580034 
        1.85367        0.715372        0.568303 
        1.86928        0.700441        0.556968 
        1.88497        0.681954        0.545883 
        1.90073        0.666163        0.535059 
        1.91647        0.661696        0.524541 
        1.93218        0.647207        0.514329 
        1.94787        0.633479        0.504405 
        1.96363            0.62        0.494705 
        1.97935        0.610211        0.485282 
        1.99499        0.599078        0.476158 
        2.01064        0.586885        0.467257 
         2.0264        0.580051        0.458529 
        2.04216        0.568666        0.450029 
        2.05781        0.557125          0.4418 
        2.07353        0.548241        0.433748 
        2.08928        0.536843         0.42588 
        2.10499        0.529498        0.418229 
        2.12065        0.523619        0.410791 
        2.13633        0.513763        0.403527 
        2.15211        0.503646        0.396393 
        2.16785        0.492355        0.389453 
        2.18349        0.486554        0.382723 
        2.19916         0.47849        0.376138 
        2.21489        0.469424        0.369688 
        2.23063        0.461699        0.363385 
         2.2463        0.457408        0.357258 
        2.26194        0.444572        0.351288 
        2.27765        0.438603        0.345425 
        2.29341        0.433953        0.339681 
        2.30914        0.429234         0.33408 
        2.32486        0.421575        0.328609 
        2.34061        0.413978        0.323252 
        2.35635         0.40477         0.31802 
        2.37203        0.400161        0.312923 
        2.38768        0.394649        0.307948 
        2.40339        0.389333        0.303063 
        2.41914        0.384128        0.298274 
        2.43483        0.376944        0.293606 
         2.4505        0.370737        0.289046 
        2.46622         0.36531        0.284567 
        2.48195        0.362194        0.280184 
        2.49759        0.355555        0.275916 
        2.51328        0.348864        0.271727 
        2.52906        0.344547        0.267599 
        2.54479        0.339661        0.263572 
        2.56049        0.334019        0.259636 
        2.57618        0.330381        0.255784 
        2.59189        0.325472        0.252005 
        2.60758        0.321658        0.248309 
        2.62325        0.316924        0.244692 
        2.63898        0.312597        0.241134 
        2.65468        0.308022        0.237655 
        2.67044        0.303238         0.23423 
        2.68618         0.29872        0.230881 
        2.70184        0.294885         0.22761 
        2.71755        0.290376        0.224396 
        2.73329        0.287539        0.221238 
        2.74897        0.283947        0.218152 
        2.76462        0.279464        0.215132 
        2.78034        0.276088        0.212157 
        2.79607        0.272286        0.209235 
        2.81179         0.26898        0.206372 
        2.82749        0.265227        0.203566 
        2.84321        0.262338        0.200809 
        2.85893        0.258514        0.198104 
        2.87462        0.255014        0.195454 
        2.89033        0.251794         0.19285 
        2.90605        0.249181        0.190291 
        2.92176        0.245612        0.187781 
        2.93747        0.242623        0.185317 
        2.95318        0.239895        0.182897 
        2.96891        0.237063        0.180519 
        2.98456        0.234306        0.178194 
        3.00023        0.231306        0.175907 
        3.01596        0.228374        0.173653 
        3.03164        0.226587        0.171446 
        3.04738        0.222365         0.16927 
         3.0631        0.220447        0.167133 
        3.07883        0.217172        0.165033 
        3.09456        0.215092        0.162969 
        3.11026        0.212962        0.160944 
        3.12596        0.209866        0.158954 
        3.14163        0.207886        0.157002 
        3.15734          0.2062        0.155079 
        3.17308        0.203544        0.153183 
        3.18879        0.201456        0.151324 
        3.20447        0.198558        0.149499 
         3.2202        0.197123        0.147699 
         3.2359        0.194813        0.145931 
        3.25157         0.19266        0.144197 
        3.26729        0.190622        0.142486 
        3.28304        0.188906        0.140799 
        3.29877        0.186669        0.139142 
        3.31446        0.185075        0.137515 
        3.33014        0.183195        0.135916 
        3.34585        0.182322         0.13434 
        3.36158        0.179801        0.132786 
        3.37727        0.178233        0.131262 
        3.39294        0.176036        0.129764 
        3.40867        0.174338        0.128284 
        3.42439        0.172984        0.126827 
        3.44008        0.170886        0.125396 
        3.45578        0.170046        0.123987 
        3.47153         0.16816        0.122596 
        3.48724        0.167204        0.121228 
        3.50292        0.165536        0.119885 
        3.51859        0.163393        0.118563 
        3.53431        0.161944        0.117257 
        3.55007        0.160944        0.115967 
        3.56577        0.159136        0.114702 
        3.58146        0.157485        0.113457 
        3.59719        0.156579        0.112227 
        3.61292         0.15532        0.111016 
        3.62859        0.153402        0.109827 
        3.64429        0.152386        0.108654 
        3.66003        0.151266        0.107494 
        3.67578        0.149815        0.106351 
        3.69146        0.148777         0.10523 
        3.70712        0.147666        0.104127 
        3.72284        0.146476        0.103035 
        3.73853        0.145639        0.101962 
        3.75422        0.144147        0.100903 
        3.76993         0.14305        0.099858 
        3.78564        0.141572       0.0988286 
        3.80137        0.140445       0.0978121 
        3.81707        0.139643       0.0968121 
        3.83279        0.138603       0.0958253 
        3.84853        0.137284       0.0948507 
        3.86424        0.136006       0.0938916 
        3.87992        0.135185       0.0929472 
        3.89561        0.133917       0.0920159 
        3.91134        0.133302       0.0910954 
        3.92704        0.131872       0.0901886 
        3.94273        0.130583       0.0892952 
        3.95845        0.129377       0.0884122 
        3.97418        0.128564        0.087541 
        3.98988        0.127349       0.0866828 
        4.00554        0.125955       0.0858385 
        4.02125        0.124847        0.085003 
        4.03698         0.12358       0.0841775 
        4.05268        0.122368       0.0833647 
        4.06839        0.120621       0.0825622 
         4.0841        0.119024       0.0817705 
        4.09983        0.117372       0.0809881 
        4.11555        0.115968       0.0802163 
        4.13124        0.114435       0.0794567 
        4.14693        0.113752       0.0787064 
        4.16266        0.112312        0.077964 
        4.17839        0.111049       0.0772317 
        4.19408        0.109781       0.0765105 
        4.20977        0.108851       0.0757982 
        4.22551        0.107927       0.0750933 
        4.24123        0.106457       0.0743981 
        4.25691        0.105397       0.0737137 
        4.27259         0.10458       0.0730376 
        4.28831        0.103714       0.0723688 
        4.30404        0.102445       0.0717077 
        4.31974         0.10212       0.0710563 
        4.33543        0.100983       0.0704134 
        4.35116       0.0999387       0.0697769 
        4.36688        0.099265       0.0691486 
        4.38255       0.0983016       0.0685304 
        4.39825       0.0980444       0.0679184 
        4.41398       0.0971851       0.0673127 
         4.4297        0.096564       0.0667151 
        4.44541       0.0960266       0.0661249 
        4.46111       0.0954683       0.0655423 
        4.47683       0.0947185       0.0649663 
        4.49251       0.0942206       0.0643984 
        4.50819       0.0936873       0.0638374 
         4.5239       0.0934167       0.0632824 
        4.53962       0.0927306       0.0627333 
        4.55535       0.0924526       0.0621905 
        4.57106       0.0920662       0.0616549 
        4.58678       0.0916975       0.0611255 
         4.6025       0.0915948       0.0606023 
        4.61821       0.0912903       0.0600852 
        4.63391       0.0908757       0.0595749 
         4.6496       0.0908072       0.0590707 
        4.66532       0.0904778       0.0585717 
        4.68103       0.0905917       0.0580786 
        4.69673       0.0901995       0.0575917 
        4.71241       0.0899964       0.0571109 
        4.72811       0.0898264       0.0566347 
        4.74384       0.0901023       0.0561635 
        4.75955       0.0903496       0.0556983 
        4.77525       0.0901973       0.0552387 
        4.79096       0.0899823       0.0547837 
        4.80669       0.0899191       0.0543336 
         4.8224       0.0902127       0.0538892 
        4.83809       0.0902966       0.0534501 
        4.85379       0.0904918       0.0530158 
         4.8695       0.0905786       0.0525859 
        4.88521       0.0906598        0.052161 
        4.90093       0.0910555       0.0517407 
        4.91663       0.0912765       0.0513254 
        4.93234       0.0916493       0.0509143 
        4.94807       0.0920704       0.0505074 
        4.96377       0.0924555       0.0501058 
        4.97943       0.0930541       0.0497094 
        4.99514       0.0930292       0.0493162 
        5.01086       0.0940737       0.0489271 
        5.02654       0.0942676       0.0485431 
        5.04227       0.0946969       0.0481621 
          5.058         0.09553       0.0477851 
        5.07371       0.0960075       0.0474128 
        5.08942        0.096734       0.0470445 
        5.10513       0.0971019       0.0466801 
        5.12084       0.0977917       0.0463193 
        5.13656       0.0985689       0.0459625 
        5.15225       0.0997424         0.04561 
        5.16796        0.100273       0.0452607 
        5.18369        0.100508       0.0449147 
         5.1994        0.101873        0.044573 
        5.21509        0.102657       0.0442352 
        5.23079        0.104075       0.0439005 
        5.24649        0.104995       0.0435695 
        5.26217        0.105808       0.0432421 
        5.27788         0.10663       0.0429177 
        5.29359        0.107712       0.0425966 
        5.30933        0.109293       0.0422783 
        5.32504        0.109796       0.0419638 
        5.34073        0.111263       0.0416528 
        5.35646        0.112684       0.0413444 
        5.37218        0.113271        0.041039 
        5.38789        0.115128       0.0407373 
        5.40357        0.116439       0.0404389 
        5.41929        0.117767       0.0401429 
        5.43502        0.118944       0.0398498 
         5.4507        0.120792       0.0395603 
        5.46639        0.122138       0.0392737 
        5.48212        0.123429       0.0389893 
        5.49786        0.125374       0.0387074 
        5.51353        0.127316       0.0384296 
        5.52921        0.128165       0.0381543 
        5.54495        0.130185       0.0378809 
        5.56066        0.132295       0.0376105 
        5.57637        0.133979       0.0373428 
        5.59207        0.136204       0.0370779 
        5.60778        0.137844       0.0368155 
        5.62346        0.140231        0.036556 
        5.63916        0.142069       0.0362988 
        5.65487        0.143915       0.0360439 
         5.6706        0.145709       0.0357912 
        5.68633        0.148512       0.0355409 
        5.70203        0.150377       0.0352934 
        5.71773         0.15266       0.0350484 
        5.73344        0.154382       0.0348055 
        5.74916        0.157065       0.0345648 
        5.76486        0.159302       0.0343266 
        5.78054        0.162776       0.0340911 
        5.79626        0.164167       0.0338571 
          5.812        0.166513       0.0336251 
         5.8277        0.169549        0.033396 
        5.84339        0.172631        0.033169 
        5.85911        0.175444       0.0329436 
        5.87484         0.17676       0.0327205 
        5.89053        0.180528       0.0324998 
        5.90623        0.183096       0.0322811 
        5.92195          0.1853        0.032064 
        5.93767        0.189008        0.031849 
        5.95336        0.191793       0.0316364 
        5.96905        0.195249       0.0314258 
        5.98476        0.197681       0.0312168 
        6.00048        0.200846       0.0310097 
        6.01617        0.204189       0.0308047 
        6.03185        0.206666       0.0306019 
        6.04756        0.210244       0.0304003 
        6.06331        0.213243       0.0302002 
        6.07903        0.216215       0.0300023 
        6.09473        0.220354       0.0298064 
        6.11044        0.223407        0.029612 
        6.12616        0.226409       0.0294194 
        6.14186          0.2305       0.0292287 
        6.15755         0.23303       0.0290398 
        6.17326        0.237739       0.0288523 
        6.18898        0.240953       0.0286665 
        6.20467        0.245004       0.0284826 
        6.22036        0.247478       0.0283003 
         6.2361        0.250936       0.0281192 
         6.2518         0.25543       0.0279399 
        6.26748          0.2579       0.0277626 
        6.28319        0.261841       0.0275863 
        6.29893        0.266178       0.0274115 
        6.31463        0.271491       0.0272384 
        6.33033        0.273907       0.0270669 
        6.34604        0.276758       0.0268968 
        6.36177        0.282368        0.026728 
        6.37747        0.285359       0.0265609 
