# k  (h/Mpc)    Pcb(k)  (Mpc/h)^3    Pcb_linear(k) (Mpc/h)^3   ShotnoiseSubtracted = true
      0.0200456         203.242         206.021 
      0.0350414         129.699         129.029 
      0.0492313          85.184         84.5608 
      0.0637834         70.7186         70.2543 
      0.0800726         56.6176          56.697 
       0.096163         38.4874         38.3374 
       0.111083         28.8909         28.7512 
       0.126058         26.1455         26.1311 
       0.142273         22.8528         22.9002 
       0.158546         17.4982         17.3798 
        0.17375         13.9561          13.921 
       0.188953         12.7519         12.7388 
       0.204907         11.7551         11.6671 
       0.220756         9.80093         9.75639 
        0.23588         8.23491          8.1739 
         0.2514         7.39104         7.37806 
       0.267535         6.82923         6.83378 
       0.283568          6.0559         6.04605 
       0.299022         5.30904         5.27366 
       0.314451         4.74886          4.7648 
       0.330372         4.41121         4.41536 
       0.346141         4.03245         4.03628 
       0.361624         3.64719         3.63712 
       0.377134         3.33525          3.3131 
       0.392932         3.03711         3.07028 
       0.408854         2.85524         2.84538 
       0.424564         2.61205         2.61751 
       0.440253         2.41247         2.41203 
       0.455999         2.25258         2.24348 
       0.471626         2.10813         2.09701 
        0.48727         1.95522          1.9554 
       0.502856         1.81745         1.82317 
       0.518488         1.71804         1.70623 
       0.534347         1.62248         1.60155 
       0.550082         1.50183         1.50511 
       0.565732         1.39614         1.41493 
       0.581496         1.33385         1.33186 
       0.597222         1.26126         1.25695 
       0.612804         1.18698         1.18855 
       0.628434         1.13123          1.1245 
       0.644267         1.06503         1.06407 
       0.660051         1.00535         1.00865 
       0.675724        0.957957         0.95779 
       0.691403        0.913604        0.910399 
       0.707174        0.865173        0.865929 
       0.722871        0.819824        0.824592 
        0.73838        0.786989        0.786386 
       0.754018        0.754848        0.750306 
       0.769845        0.717811        0.716094 
        0.78569        0.684671        0.683985 
       0.801365        0.652505        0.654165 
       0.817031        0.626053        0.626153 
       0.832809        0.599083        0.599616 
       0.848511         0.57232        0.574752 
       0.864097          0.5468        0.551483 
       0.879701        0.524104        0.529494 
       0.895507        0.507084        0.508457 
       0.911279        0.487788        0.488617 
        0.92691        0.467353        0.470011 
       0.942635        0.449976         0.45228 
       0.958396        0.431462        0.435434 
       0.974128        0.415361        0.419485 
       0.989692        0.401806        0.404498 
        1.00528        0.387915        0.390228 
        1.02113        0.370798        0.376428 
        1.03692        0.359912        0.363352 
        1.05264         0.34739        0.350961 
        1.06832        0.335994        0.339171 
        1.08405        0.322528        0.327895 
        1.09979         0.31198        0.317129 
        1.11537        0.304102        0.306956 
        1.13105        0.293749        0.297172 
        1.14679         0.28563        0.287779 
        1.16256        0.273617        0.278777 
        1.17828        0.265171        0.270192 
        1.19395        0.256628           0.262 
         1.2097          0.2482        0.254109 
        1.22537        0.242894        0.246583 
          1.241        0.234859        0.239386 
        1.25666        0.229352        0.232461 
        1.27241        0.221015        0.225779 
        1.28819        0.214616         0.21935 
        1.30392        0.208458        0.213192 
        1.31957        0.203026          0.2073 
        1.33529        0.196645         0.20161 
        1.35108        0.190996        0.196113 
        1.36674        0.184473        0.190861 
         1.3824         0.18178        0.185808 
        1.39811         0.17578        0.180922 
        1.41389        0.171259        0.176195 
        1.42964        0.167468        0.171645 
        1.44531        0.161613        0.167279 
        1.46101        0.157922        0.163057 
        1.47667        0.153086        0.158994 
        1.49229        0.150056        0.155081 
        1.50793        0.145475        0.151297 
        1.52367        0.142325        0.147615 
        1.53953        0.138995        0.144031 
        1.55526        0.135453        0.140596 
        1.57092         0.13112        0.137288 
        1.58662         0.12876        0.134079 
        1.60235         0.12624        0.130967 
        1.61809        0.121696        0.127953 
        1.63369        0.120239        0.125061 
        1.64941        0.117145        0.122238 
        1.66519        0.113937        0.119493 
        1.68085        0.111076        0.116852 
        1.69652        0.108497        0.114291 
        1.71228        0.106653        0.111792 
        1.72806        0.103347        0.109366 
        1.74368        0.101725        0.107037 
        1.75933       0.0993701        0.104772 
        1.77505       0.0969953        0.102562 
        1.79081       0.0952189        0.100412 
         1.8065       0.0924316       0.0983329 
        1.82218       0.0908973       0.0963152 
        1.83797       0.0886535       0.0943405 
        1.85367       0.0868374       0.0924325 
        1.86928        0.085222       0.0905889 
        1.88497       0.0835713       0.0887859 
        1.90073       0.0814719       0.0870255 
        1.91647       0.0796386       0.0853147 
        1.93218       0.0780932       0.0836537 
        1.94787       0.0763885       0.0820397 
        1.96363       0.0750024        0.080462 
        1.97935       0.0731561       0.0789293 
        1.99499       0.0719356       0.0774454 
        2.01064       0.0706692       0.0759978 
         2.0264       0.0691501       0.0745781 
        2.04216       0.0678452       0.0731957 
        2.05781        0.066506       0.0718572 
        2.07353       0.0647792       0.0705476 
        2.08928       0.0637305       0.0692679 
        2.10499       0.0623033       0.0680235 
        2.12065       0.0615403       0.0668136 
        2.13633       0.0599619       0.0656323 
        2.15211       0.0593151        0.064472 
        2.16785       0.0579489       0.0633431 
        2.18349        0.056508       0.0622485 
        2.19916       0.0559845       0.0611776 
        2.21489       0.0549195       0.0601284 
        2.23063        0.053916       0.0591033 
         2.2463       0.0526835       0.0581068 
        2.26194       0.0517074       0.0571358 
        2.27765       0.0507879       0.0561822 
        2.29341       0.0501227        0.055248 
        2.30914       0.0489709        0.054337 
        2.32486       0.0481232       0.0534471 
        2.34061       0.0473732       0.0525759 
        2.35635        0.046404       0.0517249 
        2.37203       0.0456568       0.0508957 
        2.38768       0.0448224       0.0500866 
        2.40339       0.0440134       0.0492922 
        2.41914       0.0434221       0.0485132 
        2.43483       0.0425099       0.0477539 
         2.4505       0.0417331       0.0470122 
        2.46622       0.0410835       0.0462838 
        2.48195       0.0402837       0.0455709 
        2.49759       0.0398301       0.0448768 
        2.51328       0.0392299       0.0441954 
        2.52906       0.0385137        0.043524 
        2.54479       0.0378444        0.042869 
        2.56049       0.0372425       0.0422289 
        2.57618       0.0366561       0.0416024 
        2.59189        0.036064       0.0409878 
        2.60758       0.0355754       0.0403866 
        2.62325       0.0349056       0.0397982 
        2.63898       0.0343466       0.0392196 
        2.65468        0.033649       0.0386537 
        2.67044       0.0333857       0.0380967 
        2.68618       0.0327446       0.0375519 
        2.70184       0.0322122         0.03702 
        2.71755        0.031584       0.0364971 
        2.73329       0.0312191       0.0359836 
        2.74897       0.0307996       0.0354817 
        2.76462       0.0302095       0.0349905 
        2.78034       0.0298436       0.0345066 
        2.79607       0.0293986       0.0340313 
        2.81179       0.0290027       0.0335657 
        2.82749       0.0284642       0.0331092 
        2.84321       0.0280812       0.0326608 
        2.85893       0.0276567       0.0322209 
        2.87462       0.0273119       0.0317899 
        2.89033       0.0269253       0.0313663 
        2.90605       0.0263993       0.0309502 
        2.92176       0.0261487       0.0305419 
        2.93747       0.0257455       0.0301411 
        2.95318       0.0252916       0.0297475 
        2.96891       0.0250466       0.0293608 
        2.98456       0.0247331       0.0289827 
        3.00023       0.0242866       0.0286107 
        3.01596       0.0239171       0.0282441 
        3.03164       0.0236997        0.027885 
        3.04738       0.0233241       0.0275311 
         3.0631       0.0228839       0.0271836 
        3.07883        0.022599        0.026842 
        3.09456       0.0224365       0.0265064 
        3.11026        0.022051        0.026177 
        3.12596       0.0218282       0.0258533 
        3.14163       0.0215299       0.0255359 
        3.15734       0.0212202        0.025223 
        3.17308       0.0209466       0.0249147 
        3.18879       0.0206545       0.0246124 
        3.20447       0.0204432       0.0243155 
         3.2202       0.0201831       0.0240227 
         3.2359       0.0199489       0.0237352 
        3.25157       0.0196188       0.0234531 
        3.26729       0.0194236       0.0231748 
        3.28304       0.0191631       0.0229004 
        3.29877       0.0189567       0.0226309 
        3.31446       0.0186863       0.0223663 
        3.33014       0.0184722       0.0221062 
        3.34585       0.0182754       0.0218499 
        3.36158       0.0179685       0.0215972 
        3.37727       0.0178255       0.0213494 
        3.39294       0.0176317       0.0211057 
        3.40867        0.017442       0.0208649 
        3.42439       0.0172287        0.020628 
        3.44008       0.0170226       0.0203953 
        3.45578       0.0168882        0.020166 
        3.47153       0.0166378       0.0199397 
        3.48724       0.0165643       0.0197174 
        3.50292       0.0162702       0.0194989 
        3.51859       0.0160774       0.0192839 
        3.53431       0.0159758       0.0190714 
        3.55007       0.0157855       0.0188617 
        3.56577       0.0156687       0.0186559 
        3.58146       0.0154184       0.0184533 
        3.59719       0.0153248       0.0182533 
        3.61292       0.0150676       0.0180563 
        3.62859        0.014951        0.017863 
        3.64429       0.0148526       0.0176721 
        3.66003       0.0146759       0.0174835 
        3.67578       0.0145388       0.0172977 
        3.69146       0.0144236       0.0171153 
        3.70712       0.0142986       0.0169358 
        3.72284       0.0141148       0.0167583 
        3.73853       0.0139752       0.0165837 
        3.75422       0.0139423       0.0164115 
        3.76993       0.0137226       0.0162416 
        3.78564       0.0136798       0.0160741 
        3.80137       0.0135275       0.0159088 
        3.81707       0.0133499       0.0157461 
        3.83279       0.0132725       0.0155856 
        3.84853       0.0131621       0.0154271 
        3.86424        0.013008       0.0152711 
        3.87992       0.0129333       0.0151175 
        3.89561         0.01283       0.0149661 
        3.91134       0.0127434       0.0148163 
        3.92704       0.0125706       0.0146689 
        3.94273        0.012494       0.0145235 
        3.95845       0.0123342       0.0143799 
        3.97418       0.0122731       0.0142382 
        3.98988       0.0121316       0.0140987 
        4.00554        0.011996       0.0139613 
        4.02125        0.011839       0.0138254 
        4.03698        0.011693       0.0136912 
        4.05268       0.0115229        0.013559 
        4.06839       0.0113391       0.0134284 
         4.0841       0.0111639       0.0132997 
        4.09983       0.0109822       0.0131724 
        4.11555         0.01085       0.0130469 
        4.13124       0.0106855       0.0129234 
        4.14693       0.0105296       0.0128013 
        4.16266       0.0103497       0.0126806 
        4.17839       0.0102374       0.0125615 
        4.19408       0.0101189       0.0124442 
        4.20977      0.00998043       0.0123283 
        4.22551      0.00983322       0.0122137 
        4.24123      0.00970628       0.0121006 
        4.25691      0.00960369       0.0119893 
        4.27259      0.00948852       0.0118793 
        4.28831      0.00943006       0.0117705 
        4.30404       0.0093076        0.011663 
        4.31974      0.00919562       0.0115571 
        4.33543      0.00911068       0.0114525 
        4.35116      0.00903935        0.011349 
        4.36688      0.00895729       0.0112468 
        4.38255      0.00888835       0.0111462 
        4.39825      0.00885116       0.0110467 
        4.41398       0.0087854       0.0109482 
         4.4297      0.00872269        0.010851 
        4.44541      0.00866535        0.010755 
        4.46111      0.00860329       0.0106602 
        4.47683      0.00858837       0.0105665 
        4.49251      0.00851245       0.0104742 
        4.50819      0.00848531       0.0103829 
         4.5239      0.00847463       0.0102927 
        4.53962      0.00844267       0.0102034 
        4.55535      0.00841738       0.0101151 
        4.57106      0.00843954        0.010028 
        4.58678      0.00838295      0.00994185 
         4.6025      0.00839577      0.00985674 
        4.61821      0.00840886      0.00977265 
        4.63391      0.00841037      0.00968965 
         4.6496      0.00840226      0.00960765 
        4.66532      0.00840415      0.00952648 
        4.68103      0.00844487      0.00944628 
        4.69673      0.00844344      0.00936708 
        4.71241      0.00848589      0.00928888 
        4.72811      0.00849736      0.00921144 
        4.74384      0.00852535      0.00913479 
        4.75955      0.00856733      0.00905913 
        4.77525      0.00861301      0.00898438 
        4.79096      0.00868103      0.00891037 
        4.80669      0.00868254      0.00883717 
         4.8224      0.00877134      0.00876488 
        4.83809      0.00880506      0.00869348 
        4.85379      0.00889808      0.00862283 
         4.8695      0.00894312      0.00855291 
        4.88521      0.00899782      0.00848379 
        4.90093       0.0090968      0.00841544 
        4.91663      0.00921189       0.0083479 
        4.93234      0.00925979      0.00828103 
        4.94807      0.00935505      0.00821486 
        4.96377      0.00945021      0.00814953 
        4.97943      0.00958908      0.00808505 
        4.99514       0.0096374      0.00802111 
        5.01086      0.00975813      0.00795781 
        5.02654      0.00990014      0.00789536 
        5.04227       0.0100098       0.0078334 
          5.058       0.0101293      0.00777208 
        5.07371       0.0102594      0.00771153 
        5.08942        0.010463      0.00765162 
        5.10513       0.0105571      0.00759235 
        5.12084       0.0106528      0.00753368 
        5.13656       0.0108761      0.00747564 
        5.15225       0.0110125      0.00741831 
        5.16796       0.0112155      0.00736149 
        5.18369       0.0113252      0.00730522 
         5.1994       0.0115213      0.00724965 
        5.21509       0.0117143       0.0071947 
        5.23079       0.0118493      0.00714025 
        5.24649       0.0120932      0.00708642 
        5.26217         0.01228      0.00703318 
        5.27788       0.0125087      0.00698042 
        5.29359       0.0127067      0.00692818 
        5.30933       0.0129597      0.00687641 
        5.32504       0.0131181      0.00682526 
        5.34073       0.0134707      0.00677468 
        5.35646       0.0136497      0.00672452 
        5.37218        0.013913      0.00667486 
        5.38789       0.0142357      0.00662578 
        5.40357       0.0144383      0.00657725 
        5.41929       0.0146279       0.0065291 
        5.43502       0.0149937      0.00648143 
         5.4507       0.0152894      0.00643435 
        5.46639       0.0156178      0.00638773 
        5.48212        0.015777      0.00634147 
        5.49786         0.01616      0.00629562 
        5.51353       0.0165957      0.00625044 
        5.52921       0.0169281      0.00620567 
        5.54495        0.017309       0.0061612 
        5.56066       0.0176445      0.00611722 
        5.57637       0.0180186      0.00607367 
        5.59207       0.0183614      0.00603059 
        5.60778        0.018781      0.00598791 
        5.62346       0.0191842      0.00594571 
        5.63916       0.0195598      0.00590387 
        5.65487       0.0200556      0.00586242 
         5.6706       0.0204099      0.00582132 
        5.68633       0.0209282       0.0057806 
        5.70203       0.0213929      0.00574035 
        5.71773       0.0219426      0.00570049 
        5.73344       0.0223835      0.00566099 
        5.74916       0.0229714      0.00562184 
        5.76486       0.0234193       0.0055831 
        5.78054       0.0238826      0.00554479 
        5.79626       0.0245472      0.00550674 
          5.812       0.0250663        0.005469 
         5.8277       0.0258233      0.00543173 
        5.84339        0.026132      0.00539481 
        5.85911        0.027005      0.00535817 
        5.87484       0.0276578      0.00532187 
        5.89053       0.0282688      0.00528598 
        5.90623       0.0289139       0.0052504 
        5.92195       0.0297665      0.00521509 
        5.93767       0.0304607      0.00518013 
        5.95336       0.0311627      0.00514555 
        5.96905       0.0319562       0.0051113 
        5.98476       0.0325164      0.00507731 
        6.00048       0.0334209      0.00504362 
        6.01617       0.0341871      0.00501028 
        6.03185       0.0351341      0.00497728 
        6.04756       0.0360175      0.00494451 
        6.06331       0.0371024      0.00491196 
        6.07903       0.0379604      0.00487977 
        6.09473       0.0388598       0.0048479 
        6.11044       0.0401202      0.00481629 
        6.12616       0.0411985      0.00478497 
        6.14186       0.0422051      0.00475395 
        6.15755       0.0431809      0.00472322 
        6.17326       0.0440053      0.00469273 
        6.18898        0.045495       0.0046625 
        6.20467       0.0469848      0.00463259 
        6.22036       0.0481269      0.00460295 
         6.2361       0.0492415      0.00457348 
         6.2518       0.0509775      0.00454433 
        6.26748        0.051655      0.00451549 
        6.28319       0.0535317      0.00448682 
        6.29893       0.0549962      0.00445838 
        6.31463       0.0564732      0.00443023 
        6.33033        0.057946      0.00440234 
        6.34604       0.0596109      0.00437467 
        6.36177       0.0613986      0.00434721 
        6.37747       0.0628976      0.00432004 
