# k  (h/Mpc)    Pcb(k)  (Mpc/h)^3    Pcb_linear(k) (Mpc/h)^3   ShotnoiseSubtracted = true
      0.0200456         3544.79         3589.41 
      0.0350414         2784.64         2739.61 
      0.0492313         2084.22         2087.67 
      0.0637834         1707.36          1741.7 
      0.0800726         1331.49         1360.06 
       0.096163         1035.58         1014.05 
       0.111083         865.791         840.427 
       0.126058         730.634         737.663 
       0.142273         605.187         605.708 
       0.158546         499.488         488.491 
        0.17375         442.316         426.812 
       0.188953         397.303           382.4 
       0.204907         332.025         328.777 
       0.220756         295.915         281.124 
        0.23588         264.678         251.561 
         0.2514          238.75         227.951 
       0.267535         221.213         201.906 
       0.283568          193.94         178.579 
       0.299022         181.024         161.994 
       0.314451         173.063         148.307 
       0.330372         152.056         134.375 
       0.346141         139.784          121.81 
       0.361624         130.351           111.8 
       0.377134         119.288         103.202 
       0.392932         115.772         94.9364 
       0.408854         107.129         87.3171 
       0.424564         102.355         80.8374 
       0.440253         93.2859         75.1492 
       0.455999         86.0226         69.8631 
       0.471626         82.0616          65.045 
        0.48727         79.8581         60.7364 
       0.502856         73.9219         56.8768 
       0.518488         70.5206         53.3151 
       0.534347         66.6191         49.9814 
       0.550082         64.2772         46.9707 
       0.565732         62.1696         44.2361 
       0.581496         57.9471         41.6971 
       0.597222         55.4273         39.3526 
       0.612804         53.4299         37.2104 
       0.628434         52.2905         35.2272 
       0.644267         49.4903         33.3639 
       0.660051         47.3636         31.6395 
       0.675724         45.5717         30.0479 
       0.691403          44.797         28.5653 
       0.707174         43.2469         27.1752 
       0.722871         41.8021         25.8836 
        0.73838         39.8751           24.69 
       0.754018          37.905         23.5629 
       0.769845         37.2408         22.4939 
        0.78569         35.9096         21.4903 
       0.801365         34.8947         20.5578 
       0.817031          33.575         19.6812 
       0.832809         32.9328         18.8502 
       0.848511         31.8518         18.0709 
       0.864097          31.047          17.341 
       0.879701         30.5086         16.6507 
       0.895507         29.3752           15.99 
       0.911279         28.3953         15.3664 
        0.92691         27.8995         14.7814 
       0.942635         27.3048         14.2236 
       0.958396         26.6091         13.6935 
       0.974128         25.8878         13.1914 
       0.989692         24.9142         12.7195 
        1.00528         24.7239         12.2701 
        1.02113         23.9919         11.8353 
        1.03692         23.5163         11.4233 
        1.05264         23.0401         11.0329 
        1.06832         22.6148         10.6613 
        1.08405         21.9454          10.306 
        1.09979          21.599         9.96659 
        1.11537         20.9786         9.64591 
        1.13105         20.6646         9.33744 
        1.14679         20.1441          9.0413 
        1.16256         19.8217         8.75745 
        1.17828          19.487         8.48673 
        1.19395         19.1727         8.22839 
         1.2097         18.6658          7.9795 
        1.22537         18.3639         7.74212 
          1.241          17.999         7.51513 
        1.25666         17.7996         7.29667 
        1.27241           17.45         7.08589 
        1.28819         16.7919         6.88308 
        1.30392         16.9559         6.68881 
        1.31957         16.4852         6.50291 
        1.33529         16.2141          6.3234 
        1.35108         16.0265         6.14995 
        1.36674         15.6685         5.98426 
         1.3824         15.4192         5.82483 
        1.39811         15.1429         5.67068 
        1.41389         14.9208         5.52152 
        1.42964         14.7254         5.37798 
        1.44531         14.4911         5.24025 
        1.46101         14.2832         5.10705 
        1.47667         14.0653         4.97888 
        1.49229         13.7562         4.85545 
        1.50793         13.6257         4.73607 
        1.52367         13.4646         4.61993 
        1.53953         13.2149         4.50692 
        1.55526         13.0102         4.39858 
        1.57092         12.9488         4.29426 
        1.58662         12.7289         4.19307 
        1.60235         12.5285         4.09495 
        1.61809         12.3969         3.99992 
        1.63369         12.1622         3.90874 
        1.64941         12.0379         3.81976 
        1.66519         11.8426         3.73323 
        1.68085         11.6458         3.64999 
        1.69652         11.6273         3.56926 
        1.71228         11.4216         3.49052 
        1.72806         11.2264         3.41409 
        1.74368         11.1316         3.34072 
        1.75933          11.023         3.26935 
        1.77505         10.8343         3.19974 
        1.79081         10.7266         3.13203 
         1.8065         10.6657         3.06656 
        1.82218         10.5183         3.00302 
        1.83797         10.3752         2.94085 
        1.85367          10.265         2.88078 
        1.86928         10.1344         2.82275 
        1.88497          10.032           2.766 
        1.90073          9.8814          2.7106 
        1.91647         9.66068         2.65676 
        1.93218         9.64957          2.6045 
        1.94787         9.48461         2.55372 
        1.96363         9.42235         2.50409 
        1.97935         9.36449         2.45588 
        1.99499         9.23108         2.40922 
        2.01064         9.12241         2.36369 
         2.0264         8.99569         2.31906 
        2.04216         9.01383          2.2756 
        2.05781         8.88098         2.23352 
        2.07353         8.75944         2.19236 
        2.08928         8.60892         2.15215 
        2.10499         8.54357         2.11305 
        2.12065         8.51909         2.07504 
        2.13633         8.39258         2.03792 
        2.15211         8.30912         2.00148 
        2.16785         8.17621         1.96603 
        2.18349         8.16129         1.93166 
        2.19916         8.04347         1.89803 
        2.21489          7.9825          1.8651 
        2.23063         7.92543         1.83292 
         2.2463         7.79914         1.80165 
        2.26194         7.72262         1.77118 
        2.27765         7.64963         1.74126 
        2.29341         7.52999         1.71195 
        2.30914         7.54134         1.68338 
        2.32486         7.42493         1.65547 
        2.34061          7.3786         1.62815 
        2.35635         7.28868         1.60147 
        2.37203          7.2305         1.57547 
        2.38768         7.15632         1.55011 
        2.40339         7.10353         1.52522 
        2.41914          7.0386         1.50081 
        2.43483         6.98315         1.47702 
         2.4505           6.909         1.45378 
        2.46622         6.81973         1.43097 
        2.48195         6.82031         1.40864 
        2.49759         6.67974         1.38691 
        2.51328         6.66525         1.36558 
        2.52906         6.58122         1.34456 
        2.54479         6.52288         1.32406 
        2.56049         6.48358         1.30403 
        2.57618         6.43303         1.28443 
        2.59189         6.42105          1.2652 
        2.60758         6.32331         1.24639 
        2.62325         6.25022         1.22799 
        2.63898         6.24747          1.2099 
        2.65468         6.15635          1.1922 
        2.67044         6.10666         1.17479 
        2.68618         6.04766         1.15776 
        2.70184         6.03486         1.14114 
        2.71755         5.94706          1.1248 
        2.73329         5.89222         1.10875 
        2.74897         5.86156         1.09307 
        2.76462         5.81575         1.07773 
        2.78034         5.76845         1.06262 
        2.79607         5.71801         1.04778 
        2.81179         5.66865         1.03324 
        2.82749         5.60857           1.019 
        2.84321         5.58102           1.005 
        2.85893          5.5403        0.991272 
        2.87462         5.49772        0.977823 
        2.89033         5.44857         0.96461 
        2.90605         5.40363         0.95163 
        2.92176         5.34735        0.938895 
        2.93747         5.31469        0.926398 
        2.95318         5.26282        0.914126 
        2.96891         5.23072         0.90207 
        2.98456         5.18834        0.890285 
        3.00023         5.16793        0.878692 
        3.01596         5.09419         0.86727 
        3.03164         5.05969        0.856082 
        3.04738         5.04126        0.845059 
         3.0631         5.00578        0.834233 
        3.07883           4.959        0.823596 
        3.09456         4.89492        0.813145 
        3.11026         4.88395        0.802892 
        3.12596         4.84372        0.792816 
        3.14163         4.80861        0.782936 
        3.15734         4.77325          0.7732 
        3.17308         4.74437        0.763607 
        3.18879          4.7137        0.754202 
        3.20447         4.67193        0.744969 
         3.2202         4.62645        0.735861 
         3.2359         4.59532        0.726921 
        3.25157          4.5754        0.718151 
        3.26729           4.539        0.709499 
        3.28304             4.5        0.700972 
        3.29877          4.4765        0.692595 
        3.31446          4.4499        0.684374 
        3.33014         4.39875        0.676293 
        3.34585         4.38514         0.66833 
        3.36158         4.34489        0.660483 
        3.37727         4.31645        0.652786 
        3.39294         4.29097        0.645218 
        3.40867         4.26287        0.637743 
        3.42439         4.20456         0.63039 
        3.44008          4.1912        0.623167 
        3.45578         4.16368        0.616052 
        3.47153         4.12967        0.609031 
        3.48724         4.11265        0.602132 
        3.50292          4.0829        0.595356 
        3.51859         4.04937        0.588687 
        3.53431         4.02204        0.582099 
        3.55007         4.00834        0.575596 
        3.56577         3.95393        0.569217 
        3.58146         3.94127        0.562938 
        3.59719          3.9202        0.556738 
        3.61292         3.89494        0.550634 
        3.62859         3.87002        0.544644 
        3.64429         3.83189        0.538732 
        3.66003         3.81975        0.532889 
        3.67578          3.7949        0.527134 
        3.69146         3.75909        0.521486 
        3.70712         3.74324        0.515931 
        3.72284          3.7141        0.510435 
        3.73853          3.6896         0.50503 
        3.75422          3.6583          0.4997 
        3.76993         3.64532        0.494442 
        3.78564         3.61968        0.489262 
        3.80137         3.59188        0.484148 
        3.81707         3.57189        0.479117 
        3.83279         3.54443        0.474153 
        3.84853         3.51906        0.469251 
        3.86424         3.50155        0.464429 
        3.87992          3.4747         0.45968 
        3.89561         3.45117        0.454998 
        3.91134         3.42888        0.450372 
        3.92704         3.40061        0.445814 
        3.94273         3.38266        0.441325 
        3.95845         3.35811        0.436888 
        3.97418         3.34887        0.432512 
        3.98988         3.32708        0.428201 
        4.00554         3.29686        0.423961 
        4.02125         3.26912        0.419765 
        4.03698         3.25396         0.41562 
        4.05268         3.22705         0.41154 
        4.06839         3.20808        0.407512 
         4.0841         3.18861        0.403538 
        4.09983         3.16551        0.399612 
        4.11555         3.14388         0.39574 
        4.13124         3.12729        0.391929 
        4.14693         3.10944        0.388165 
        4.16266         3.08309        0.384442 
        4.17839         3.06367         0.38077 
        4.19408         3.04751        0.377154 
        4.20977         3.02811        0.373583 
        4.22551         3.00431        0.370049 
        4.24123         2.98135        0.366565 
        4.25691          2.9697        0.363135 
        4.27259          2.9489        0.359748 
        4.28831         2.91774        0.356397 
        4.30404         2.91491        0.353085 
        4.31974         2.89676        0.349823 
        4.33543         2.86623        0.346603 
        4.35116          2.8565        0.343417 
        4.36688         2.83958        0.340271 
        4.38255         2.82101        0.337176 
        4.39825         2.80002        0.334113 
        4.41398         2.79298        0.331082 
         4.4297         2.76512        0.328092 
        4.44541          2.7505        0.325139 
        4.46111         2.72489        0.322224 
        4.47683         2.71183        0.319343 
        4.49251         2.70393        0.316503 
        4.50819         2.67902        0.313698 
         4.5239         2.66669        0.310923 
        4.53962         2.64954        0.308178 
        4.55535         2.63136        0.305464 
        4.57106         2.61535        0.302788 
        4.58678         2.59774        0.300142 
         4.6025         2.58826        0.297528 
        4.61821         2.57713        0.294945 
        4.63391         2.55352        0.292395 
         4.6496         2.54475        0.289877 
        4.66532         2.52975        0.287385 
        4.68103         2.50609        0.284923 
        4.69673         2.49828        0.282492 
        4.71241         2.48339        0.280092 
        4.72811         2.46612        0.277715 
        4.74384          2.4579        0.275363 
        4.75955         2.44035        0.273042 
        4.77525          2.4219        0.270749 
        4.79096         2.41283        0.268479 
        4.80669         2.40131        0.266234 
         4.8224         2.38484        0.264017 
        4.83809         2.37289        0.261828 
        4.85379         2.35564        0.259662 
         4.8695         2.34647        0.257519 
        4.88521         2.33202          0.2554 
        4.90093         2.32278        0.253306 
        4.91663         2.30645        0.251236 
        4.93234         2.29812        0.249188 
        4.94807         2.28718         0.24716 
        4.96377         2.26724        0.245159 
        4.97943         2.26097        0.243185 
        4.99514         2.24159        0.241227 
        5.01086         2.23132        0.239289 
        5.02654         2.22208        0.237377 
        5.04227         2.21129         0.23548 
          5.058          2.2007        0.233603 
        5.07371         2.18911        0.231751 
        5.08942         2.17672        0.229917 
        5.10513         2.16387        0.228104 
        5.12084         2.14721        0.226309 
        5.13656         2.14061        0.224534 
        5.15225         2.12317        0.222781 
        5.16796         2.11474        0.221043 
        5.18369         2.10452        0.219323 
         5.1994          2.0937        0.217624 
        5.21509         2.08589        0.215944 
        5.23079         2.07564         0.21428 
        5.24649         2.06409        0.212635 
        5.26217         2.05378        0.211008 
        5.27788         2.04178        0.209396 
        5.29359         2.03264          0.2078 
        5.30933          2.0232        0.206219 
        5.32504         2.01344        0.204656 
        5.34073         1.99736        0.203112 
        5.35646         1.98909         0.20158 
        5.37218         1.98323        0.200064 
        5.38789         1.96762        0.198566 
        5.40357         1.96178        0.197085 
        5.41929         1.95375        0.195615 
        5.43502         1.94451         0.19416 
         5.4507         1.92925        0.192724 
        5.46639         1.92399        0.191302 
        5.48212           1.913        0.189891 
        5.49786           1.903        0.188492 
        5.51353         1.89526        0.187114 
        5.52921         1.88183        0.185749 
        5.54495         1.87799        0.184393 
        5.56066         1.86627        0.183052 
        5.57637         1.85466        0.181725 
        5.59207         1.85085        0.180412 
        5.60778         1.84145        0.179111 
        5.62346         1.82615        0.177825 
        5.63916         1.82232         0.17655 
        5.65487         1.81104        0.175288 
         5.6706         1.80704        0.174036 
        5.68633         1.79685        0.172795 
        5.70203         1.78781         0.17157 
        5.71773         1.77924        0.170356 
        5.73344         1.77081        0.169153 
        5.74916         1.76454        0.167961 
        5.76486           1.752        0.166782 
        5.78054          1.7436        0.165616 
        5.79626         1.73876        0.164458 
          5.812         1.72959         0.16331 
         5.8277          1.7245        0.162176 
        5.84339         1.71298        0.161053 
        5.85911         1.70692        0.159938 
        5.87484         1.69524        0.158834 
        5.89053         1.69407        0.157743 
        5.90623         1.68696        0.156661 
        5.92195         1.67508        0.155587 
        5.93767         1.66719        0.154525 
        5.95336         1.66582        0.153473 
        5.96905         1.65465        0.152432 
        5.98476         1.64823        0.151399 
        6.00048          1.6386        0.150376 
        6.01617         1.63043        0.149363 
        6.03185         1.62447         0.14836 
        6.04756          1.6181        0.147365 
        6.06331         1.61223        0.146376 
        6.07903         1.60464        0.145399 
        6.09473         1.59491        0.144431 
        6.11044         1.59207        0.143471 
        6.12616         1.58139         0.14252 
        6.14186         1.57405        0.141579 
        6.15755         1.56735        0.140646 
        6.17326         1.56317        0.139721 
        6.18898         1.55649        0.138803 
        6.20467         1.55237        0.137896 
        6.22036         1.54407        0.136996 
         6.2361         1.53906        0.136103 
         6.2518         1.53068        0.135218 
        6.26748         1.52625        0.134344 
        6.28319         1.51774        0.133474 
        6.29893         1.50948        0.132612 
        6.31463         1.50575        0.131759 
        6.33033         1.49738        0.130913 
        6.34604         1.49255        0.130074 
        6.36177         1.48685        0.129242 
        6.37747         1.48228        0.128419 
