# k  (h/Mpc)    Pcb(k)  (Mpc/h)^3    Pcb_linear(k) (Mpc/h)^3   ShotnoiseSubtracted = true
      0.0200456         19170.7         19621.7 
      0.0350414         14295.3         14976.2 
      0.0492313           11135         11412.3 
      0.0637834         9649.88          9521.1 
      0.0800726         7518.37         7434.81 
       0.096163         5327.12         5543.33 
       0.111083         4391.42         4594.23 
       0.126058         4029.35         4032.47 
       0.142273         3422.85         3311.13 
       0.158546         3019.77         2670.36 
        0.17375         2456.65         2333.19 
       0.188953         2391.59          2090.4 
       0.204907          2232.4         1797.27 
       0.220756         1942.01         1536.78 
        0.23588         1738.24         1375.17 
         0.2514         1516.79         1246.11 
       0.267535         1514.02         1103.73 
       0.283568         1373.47         976.213 
       0.299022         1298.61         885.545 
       0.314451          1238.4         810.726 
       0.330372         1138.34         734.567 
       0.346141         1086.05         665.882 
       0.361624         1042.58         611.158 
       0.377134          969.74          564.16 
       0.392932         934.511         518.974 
       0.408854         913.086         477.323 
       0.424564         848.023         441.901 
       0.440253          832.24         410.807 
       0.455999         800.949          381.91 
       0.471626         767.903         355.571 
        0.48727          738.28         332.019 
       0.502856         717.408          310.92 
       0.518488         708.764         291.449 
       0.534347         664.351         273.226 
       0.550082         645.938         256.768 
       0.565732         644.033         241.819 
       0.581496         607.658         227.939 
       0.597222         596.569         215.123 
       0.612804         583.435         203.412 
       0.628434         565.804         192.571 
       0.644267         550.427         182.385 
       0.660051         532.568         172.959 
       0.675724         528.493         164.258 
       0.691403         510.295         156.154 
       0.707174         493.592         148.554 
       0.722871         487.972         141.494 
        0.73838         478.462         134.969 
       0.754018         466.665         128.808 
       0.769845         456.284         122.964 
        0.78569         448.867         117.478 
       0.801365         436.711          112.38 
       0.817031         424.401         107.588 
       0.832809         420.665         103.045 
       0.848511         410.632         98.7852 
       0.864097         398.721         94.7952 
       0.879701           393.2          91.022 
       0.895507         389.536         87.4098 
       0.911279          377.14         84.0014 
        0.92691         371.806         80.8031 
       0.942635         362.941          77.754 
       0.958396         353.254         74.8561 
       0.974128         347.822         72.1114 
       0.989692         343.804         69.5318 
        1.00528         335.832         67.0748 
        1.02113         333.707         64.6984 
        1.03692         323.453         62.4462 
        1.05264         320.927         60.3118 
        1.06832         312.188         58.2807 
        1.08405         307.571          56.338 
        1.09979         302.167         54.4828 
        1.11537         296.061         52.7298 
        1.13105         290.213         51.0436 
        1.14679         285.328         49.4247 
        1.16256         278.523          47.873 
        1.17828         277.074         46.3931 
        1.19395         270.419         44.9809 
         1.2097         267.405         43.6203 
        1.22537         260.625         42.3227 
          1.241         259.359         41.0818 
        1.25666         253.194         39.8876 
        1.27241         249.992         38.7353 
        1.28819         245.642         37.6267 
        1.30392         239.811         36.5647 
        1.31957         239.454         35.5484 
        1.33529         234.206         34.5671 
        1.35108         228.908          33.619 
        1.36674         226.118         32.7132 
         1.3824         224.238         31.8417 
        1.39811         220.833          30.999 
        1.41389         217.681         30.1836 
        1.42964         214.727          29.399 
        1.44531         210.933         28.6461 
        1.46101         207.963         27.9179 
        1.47667         204.391         27.2173 
        1.49229         202.045         26.5425 
        1.50793         197.689         25.8899 
        1.52367         195.468         25.2551 
        1.53953         192.405         24.6373 
        1.55526         187.726         24.0451 
        1.57092         186.969         23.4748 
        1.58662         184.272         22.9216 
        1.60235          180.88         22.3852 
        1.61809         179.019         21.8657 
        1.63369         175.901         21.3673 
        1.64941         172.171         20.8809 
        1.66519         171.109         20.4079 
        1.68085         168.956         19.9528 
        1.69652         165.605         19.5115 
        1.71228         162.438         19.0811 
        1.72806         160.804         18.6633 
        1.74368         158.291         18.2622 
        1.75933         155.603         17.8721 
        1.77505         154.201         17.4915 
        1.79081         152.534         17.1214 
         1.8065         150.041         16.7635 
        1.82218         147.607         16.4162 
        1.83797         146.443         16.0763 
        1.85367         143.845         15.7479 
        1.86928         141.537         15.4307 
        1.88497         139.537         15.1205 
        1.90073         138.412         14.8176 
        1.91647         136.523         14.5233 
        1.93218          134.61         14.2376 
        1.94787         132.444           13.96 
        1.96363         130.024         13.6887 
        1.97935         129.159         13.4252 
        1.99499          126.72         13.1701 
        2.01064          125.67         12.9212 
         2.0264         123.704         12.6772 
        2.04216         122.071         12.4397 
        2.05781         120.832         12.2097 
        2.07353         119.295         11.9846 
        2.08928         117.037         11.7648 
        2.10499         115.512         11.5511 
        2.12065         113.919         11.3433 
        2.13633         113.359         11.1404 
        2.15211         110.593         10.9412 
        2.16785         109.161         10.7474 
        2.18349          108.26         10.5595 
        2.19916           106.8         10.3757 
        2.21489          105.53         10.1956 
        2.23063         103.616         10.0197 
         2.2463         102.227         9.84878 
        2.26194         100.931         9.68223 
        2.27765         100.088         9.51867 
        2.29341         98.6922         9.35845 
        2.30914         97.5775         9.20225 
        2.32486         96.2865          9.0497 
        2.34061         94.8675         8.90034 
        2.35635         93.7008         8.75449 
        2.37203         92.5564          8.6124 
        2.38768         91.2682         8.47376 
        2.40339         90.4009         8.33766 
        2.41914         89.2745         8.20423 
        2.43483         88.1008         8.07419 
         2.4505         87.1497         7.94718 
        2.46622         85.9106         7.82246 
        2.48195         84.8659          7.7004 
        2.49759         83.6651          7.5816 
        2.51328         82.9998         7.46499 
        2.52906          81.512         7.35009 
        2.54479         80.7451         7.23803 
        2.56049         79.7875         7.12852 
        2.57618         78.7348         7.02137 
        2.59189         77.9432         6.91626 
        2.60758         77.0657         6.81345 
        2.62325         75.8818         6.71286 
        2.63898         74.7653         6.61395 
        2.65468         74.3052         6.51723 
        2.67044         73.1258         6.42203 
        2.68618         72.1922         6.32895 
        2.70184         71.8345         6.23808 
        2.71755         70.9439         6.14876 
        2.73329         69.9206         6.06106 
        2.74897         69.1054         5.97534 
        2.76462         68.1314         5.89147 
        2.78034          67.595         5.80886 
        2.79607         66.3694         5.72775 
        2.81179         65.7185         5.64827 
        2.82749         64.8904         5.57039 
        2.84321         64.4992         5.49388 
        2.85893         63.5728         5.41884 
        2.87462         62.6685         5.34531 
        2.89033         61.9033         5.27309 
        2.90605          61.177         5.20213 
        2.92176         60.6187         5.13251 
        2.93747         60.0457          5.0642 
        2.95318         59.2309         4.99711 
        2.96891         58.7327         4.93121 
        2.98456         58.0312         4.86678 
        3.00023         57.3554         4.80341 
        3.01596         56.8222         4.74097 
        3.03164         56.0017         4.67981 
        3.04738         55.4952         4.61955 
         3.0631         54.9046         4.56037 
        3.07883          54.259         4.50222 
        3.09456         53.7142          4.4451 
        3.11026         52.9124         4.38904 
        3.12596         52.4021         4.33396 
        3.14163         51.8205         4.27995 
        3.15734         51.3159         4.22674 
        3.17308         50.7406         4.17429 
        3.18879         50.2152         4.12288 
        3.20447         49.4737          4.0724 
         3.2202         49.2034         4.02262 
         3.2359         48.4744         3.97375 
        3.25157          48.103         3.92581 
        3.26729         47.6056         3.87851 
        3.28304         47.1065         3.83189 
        3.29877         46.5127         3.78611 
        3.31446         46.0434         3.74116 
        3.33014         45.6449         3.69699 
        3.34585         45.0463         3.65346 
        3.36158         44.6597         3.61056 
        3.37727         44.2526         3.56848 
        3.39294         43.7269         3.52711 
        3.40867         43.3772         3.48625 
        3.42439          42.834         3.44606 
        3.44008         42.4263         3.40657 
        3.45578         41.8473         3.36767 
        3.47153         41.5079          3.3293 
        3.48724         41.0631         3.29158 
        3.50292          40.779         3.25454 
        3.51859         40.3272         3.21809 
        3.53431         39.9089         3.18207 
        3.55007         39.3915         3.14652 
        3.56577         39.2251         3.11165 
        3.58146         38.6467         3.07733 
        3.59719         38.2584         3.04344 
        3.61292         37.7999         3.01007 
        3.62859         37.5079         2.97732 
        3.64429         37.2403           2.945 
        3.66003         36.7455         2.91306 
        3.67578         36.3468          2.8816 
        3.69146         36.0499         2.85073 
        3.70712         35.7114         2.82036 
        3.72284         35.2737         2.79032 
        3.73853         34.9575         2.76077 
        3.75422         34.5243         2.73163 
        3.76993         34.2872         2.70289 
        3.78564         34.0062         2.67457 
        3.80137         33.7137         2.64661 
        3.81707         33.3424         2.61911 
        3.83279         33.1288         2.59198 
        3.84853         32.6777         2.56518 
        3.86424         32.3384         2.53882 
        3.87992         32.1172         2.51286 
        3.89561         31.8614         2.48727 
        3.91134         31.4207         2.46198 
        3.92704         31.2535         2.43707 
        3.94273         30.8837         2.41252 
        3.95845         30.6615         2.38827 
        3.97418         30.4251         2.36435 
        3.98988         30.0536         2.34078 
        4.00554         29.7631          2.3176 
        4.02125         29.5066         2.29467 
        4.03698         29.2466         2.27201 
        4.05268         28.9939          2.2497 
        4.06839         28.6784         2.22768 
         4.0841         28.4495         2.20596 
        4.09983         28.2194          2.1845 
        4.11555         27.9107         2.16333 
        4.13124         27.6439          2.1425 
        4.14693         27.3301         2.12192 
        4.16266         27.1551         2.10157 
        4.17839         26.9081          2.0815 
        4.19408         26.6202         2.06173 
        4.20977         26.4114         2.04221 
        4.22551         26.2462         2.02289 
        4.24123          25.978         2.00385 
        4.25691         25.7454          1.9851 
        4.27259         25.4965         1.96658 
        4.28831         25.2386         1.94826 
        4.30404         25.0601         1.93016 
        4.31974         24.8128         1.91232 
        4.33543         24.5733         1.89472 
        4.35116         24.4208          1.8773 
        4.36688         24.1897         1.86011 
        4.38255         23.9343         1.84319 
        4.39825         23.7634         1.82645 
        4.41398         23.5397         1.80988 
         4.4297         23.3601         1.79353 
        4.44541         23.0723         1.77738 
        4.46111         22.9318         1.76145 
        4.47683         22.8128          1.7457 
        4.49251         22.5297         1.73018 
        4.50819         22.3587         1.71484 
         4.5239         22.1919         1.69967 
        4.53962         21.9748         1.68467 
        4.55535         21.8143         1.66984 
        4.57106         21.5618          1.6552 
        4.58678          21.456         1.64074 
         4.6025         21.2724         1.62645 
        4.61821         21.0958         1.61233 
        4.63391         20.8817         1.59839 
         4.6496         20.7319         1.58463 
        4.66532         20.5371           1.571 
        4.68103         20.3436         1.55754 
        4.69673         20.2054         1.54425 
        4.71241         20.0669         1.53113 
        4.72811         19.8585         1.51814 
        4.74384         19.6862         1.50529 
        4.75955         19.5748          1.4926 
        4.77525         19.3314         1.48006 
        4.79096         19.2596         1.46765 
        4.80669         19.1027         1.45538 
         4.8224         18.9415         1.44326 
        4.83809         18.7296         1.43129 
        4.85379          18.539         1.41945 
         4.8695         18.4294         1.40774 
        4.88521         18.2985         1.39616 
        4.90093         18.1215         1.38471 
        4.91663         17.9881         1.37339 
        4.93234         17.8468          1.3622 
        4.94807         17.6827         1.35111 
        4.96377          17.598         1.34018 
        4.97943          17.437         1.32938 
        4.99514         17.2378         1.31868 
        5.01086         17.1367         1.30808 
        5.02654         17.0132         1.29763 
        5.04227         16.8774         1.28726 
          5.058         16.6849           1.277 
        5.07371         16.6182         1.26688 
        5.08942         16.4797         1.25685 
        5.10513         16.3567         1.24694 
        5.12084         16.1937         1.23713 
        5.13656         16.0664         1.22743 
        5.15225         15.9751         1.21784 
        5.16796         15.8675         1.20834 
        5.18369         15.7277         1.19894 
         5.1994         15.6073         1.18965 
        5.21509         15.4433         1.18047 
        5.23079         15.3577         1.17137 
        5.24649         15.2319         1.16238 
        5.26217         15.1256         1.15348 
        5.27788         14.9771         1.14467 
        5.29359         14.8578         1.13595 
        5.30933         14.7659          1.1273 
        5.32504         14.6512         1.11876 
        5.34073         14.5436         1.11032 
        5.35646         14.4489         1.10195 
        5.37218         14.3038         1.09366 
        5.38789         14.1836         1.08547 
        5.40357         14.0872         1.07737 
        5.41929         13.9984         1.06934 
        5.43502          13.882         1.06139 
         5.4507         13.7834         1.05353 
        5.46639         13.6686         1.04576 
        5.48212         13.5675         1.03805 
        5.49786          13.439          1.0304 
        5.51353          13.377         1.02287 
        5.52921         13.2796          1.0154 
        5.54495          13.195         1.00799 
        5.56066         13.0603         1.00066 
        5.57637         12.9891        0.993407 
        5.59207         12.8746        0.986229 
        5.60778          12.795        0.979119 
        5.62346         12.7024        0.972089 
        5.63916         12.6197        0.965121 
        5.65487          12.485        0.958218 
         5.6706         12.4177        0.951373 
        5.68633         12.3288        0.944593 
        5.70203         12.2539        0.937893 
        5.71773          12.141        0.931259 
        5.73344         12.0688        0.924685 
        5.74916          11.971        0.918168 
        5.76486         11.8862        0.911723 
        5.78054          11.819        0.905349 
        5.79626         11.7039        0.899018 
          5.812         11.6214        0.892742 
         5.8277         11.5395        0.886543 
        5.84339         11.4705        0.880403 
        5.85911         11.3639        0.874309 
        5.87484         11.3056        0.868274 
        5.89053         11.2312        0.862308 
        5.90623         11.1369        0.856394 
        5.92195         11.0485        0.850526 
        5.93767         10.9614        0.844716 
        5.95336         10.8982        0.838969 
        5.96905         10.8341        0.833278 
        5.98476         10.7566        0.827632 
        6.00048         10.6531        0.822035 
        6.01617         10.6125        0.816498 
        6.03185         10.5135        0.811019 
        6.04756         10.4499        0.805576 
        6.06331         10.3886        0.800172 
        6.07903         10.2805        0.794828 
        6.09473         10.2401        0.789538 
        6.11044         10.1499        0.784292 
        6.12616         10.0903        0.779093 
        6.14186         10.0312        0.773947 
        6.15755         9.93533        0.768847 
        6.17326         9.89244         0.76379 
        6.18898         9.81429        0.758775 
        6.20467         9.75992        0.753814 
        6.22036         9.67975        0.748897 
         6.2361         9.62648        0.744012 
         6.2518         9.55496        0.739177 
        6.26748         9.49494        0.734396 
        6.28319         9.42092        0.729644 
        6.29893         9.36549         0.72493 
        6.31463         9.29343        0.720265 
        6.33033         9.22491        0.715643 
        6.34604         9.18445        0.711057 
        6.36177          9.1109        0.706508 
        6.37747         9.05195        0.702006 
