# k  (h/Mpc)    Pcb(k)  (Mpc/h)^3    Pcb_linear(k) (Mpc/h)^3   ShotnoiseSubtracted = true
      0.0200456         29638.6         30224.9 
      0.0350414         23752.2         23069.1 
      0.0492313         16915.7         17579.4 
      0.0637834         13655.5         14666.1 
      0.0800726         10559.2         11452.4 
       0.096163         8765.33         8538.85 
       0.111083         7331.12         7076.88 
       0.126058         6031.28         6211.54 
       0.142273         5260.75         5100.41 
       0.158546         4355.04         4113.37 
        0.17375         4009.75            3594 
       0.188953         3866.55         3220.02 
       0.204907          3324.4         2768.49 
       0.220756         3037.47         2367.23 
        0.23588         2732.76         2118.28 
         0.2514         2505.09         1919.48 
       0.267535         2394.57         1700.17 
       0.283568          2175.7         1503.74 
       0.299022         2074.83         1364.08 
       0.314451         2154.77         1248.83 
       0.330372          1979.5         1131.51 
       0.346141         1835.22         1025.71 
       0.361624         1747.79         941.418 
       0.377134         1702.08         869.022 
       0.392932         1601.86         799.419 
       0.408854         1554.79          735.26 
       0.424564         1524.08         680.697 
       0.440253         1451.94         632.799 
       0.455999         1385.27         588.287 
       0.471626         1377.88         547.716 
        0.48727         1323.22         511.436 
       0.502856         1303.97         478.935 
       0.518488         1240.76         448.944 
       0.534347         1204.11         420.872 
       0.550082         1169.71          395.52 
       0.565732          1137.1         372.493 
       0.581496         1106.99         351.113 
       0.597222         1101.97         331.371 
       0.612804         1064.24         313.333 
       0.628434          1029.3         296.633 
       0.644267         1008.87         280.943 
       0.660051         986.692         266.423 
       0.675724          976.03          253.02 
       0.691403         931.608         240.536 
       0.707174          914.41         228.831 
       0.722871         910.018         217.954 
        0.73838         874.345         207.904 
       0.754018         872.199         198.413 
       0.769845         846.266         189.412 
        0.78569         824.797         180.961 
       0.801365         808.172         173.108 
       0.817031         793.877         165.727 
       0.832809          775.62         158.729 
       0.848511         749.814         152.167 
       0.864097         743.618         146.021 
       0.879701         740.286         140.209 
       0.895507         722.013         134.645 
       0.911279         712.576         129.394 
        0.92691         697.521         124.468 
       0.942635         679.338         119.771 
       0.958396         677.099         115.307 
       0.974128         657.349         111.079 
       0.989692          647.28         107.106 
        1.00528         631.992         103.321 
        1.02113         619.356         99.6603 
        1.03692         606.668          96.191 
        1.05264         600.605         92.9032 
        1.06832         590.859         89.7746 
        1.08405         578.968          86.782 
        1.09979         568.557         83.9244 
        1.11537         553.356          81.224 
        1.13105         547.058         78.6266 
        1.14679         538.305         76.1329 
        1.16256          529.93         73.7427 
        1.17828         522.761         71.4632 
        1.19395         511.131         69.2878 
         1.2097         497.905          67.192 
        1.22537         492.502         65.1931 
          1.241         481.186         63.2817 
        1.25666         471.402         61.4422 
        1.27241         469.482         59.6672 
        1.28819         459.371         57.9595 
        1.30392         452.908         56.3236 
        1.31957         442.362         54.7582 
        1.33529         437.319         53.2466 
        1.35108         435.154         51.7861 
        1.36674         426.206         50.3909 
         1.3824         417.611         49.0484 
        1.39811         412.234         47.7503 
        1.41389          407.37         46.4943 
        1.42964          396.96         45.2857 
        1.44531         394.058         44.1259 
        1.46101         383.818         43.0043 
        1.47667         380.569          41.925 
        1.49229         376.542         40.8857 
        1.50793          365.86         39.8804 
        1.52367         362.704         38.9025 
        1.53953         355.713         37.9508 
        1.55526         347.334         37.0386 
        1.57092         343.253         36.1601 
        1.58662         339.919          35.308 
        1.60235         334.004         34.4818 
        1.61809         327.479         33.6816 
        1.63369         323.555         32.9138 
        1.64941         318.556         32.1646 
        1.66519         314.664         31.4359 
        1.68085         306.071          30.735 
        1.69652         303.427         30.0552 
        1.71228         298.702         29.3922 
        1.72806          294.11         28.7486 
        1.74368         290.852         28.1308 
        1.75933          286.56         27.5298 
        1.77505         282.134         26.9436 
        1.79081         279.006         26.3734 
         1.8065         275.035         25.8222 
        1.82218         268.876         25.2872 
        1.83797         266.531         24.7637 
        1.85367         261.978         24.2578 
        1.86928         258.455         23.7692 
        1.88497         254.461         23.2913 
        1.90073         251.335         22.8248 
        1.91647         247.559         22.3714 
        1.93218         244.273         21.9314 
        1.94787          240.98         21.5038 
        1.96363         238.354         21.0859 
        1.97935         231.848           20.68 
        1.99499         230.952          20.287 
        2.01064         226.148         19.9037 
         2.0264         222.886         19.5278 
        2.04216         220.471         19.1618 
        2.05781         215.921         18.8075 
        2.07353         214.627         18.4609 
        2.08928         210.179         18.1223 
        2.10499         209.527         17.7931 
        2.12065         206.312          17.473 
        2.13633         202.636         17.1605 
        2.15211         199.929         16.8536 
        2.16785         197.515         16.5551 
        2.18349         193.646         16.2657 
        2.19916         192.549         15.9825 
        2.21489         189.599         15.7052 
        2.23063         187.238         15.4342 
         2.2463         184.095         15.1709 
        2.26194           180.8         14.9143 
        2.27765         179.627         14.6624 
        2.29341          177.47         14.4156 
        2.30914         174.721          14.175 
        2.32486         173.911           13.94 
        2.34061         170.497         13.7099 
        2.35635         168.219         13.4853 
        2.37203         166.581         13.2664 
        2.38768         164.461         13.0528 
        2.40339         161.588         12.8432 
        2.41914         160.353         12.6377 
        2.43483         157.952         12.4373 
         2.4505         155.894         12.2417 
        2.46622         154.141         12.0496 
        2.48195         152.071         11.8616 
        2.49759         150.663         11.6786 
        2.51328         148.056         11.4989 
        2.52906         146.577         11.3219 
        2.54479         144.379         11.1493 
        2.56049         142.513         10.9806 
        2.57618         141.175         10.8156 
        2.59189         139.905         10.6537 
        2.60758         138.249         10.4953 
        2.62325         135.794         10.3404 
        2.63898         134.415          10.188 
        2.65468         133.007          10.039 
        2.67044         131.517         9.89239 
        2.68618         129.725           9.749 
        2.70184         128.555         9.60903 
        2.71755         126.552         9.47145 
        2.73329         125.252         9.33635 
        2.74897         123.886         9.20431 
        2.76462         122.288         9.07512 
        2.78034         120.955         8.94787 
        2.79607         119.549         8.82292 
        2.81179         117.513          8.7005 
        2.82749         116.753         8.58053 
        2.84321         115.658         8.46268 
        2.85893         114.141         8.34708 
        2.87462         112.559         8.23383 
        2.89033         111.792         8.12257 
        2.90605         110.021         8.01327 
        2.92176         109.238         7.90603 
        2.93747          107.66          7.8008 
        2.95318         106.529         7.69747 
        2.96891         105.643         7.59595 
        2.98456         104.265         7.49671 
        3.00023         103.271         7.39909 
        3.01596         102.177         7.30291 
        3.03164         100.913          7.2087 
        3.04738         99.8234         7.11588 
         3.0631         98.8419         7.02472 
        3.07883         97.8656         6.93515 
        3.09456         96.7659         6.84715 
        3.11026         95.4762         6.76081 
        3.12596         94.6438         6.67596 
        3.14163         93.2057         6.59276 
        3.15734         92.2739         6.51079 
        3.17308         91.4252            6.43 
        3.18879         90.1311         6.35081 
        3.20447         89.5439         6.27306 
         3.2202         88.3458         6.19637 
         3.2359         87.7454         6.12109 
        3.25157         86.9665         6.04724 
        3.26729         85.7396         5.97438 
        3.28304         85.0353         5.90258 
        3.29877         84.0638         5.83205 
        3.31446         83.2414         5.76282 
        3.33014         82.4784         5.69477 
        3.34585         81.6622         5.62772 
        3.36158         80.5593         5.56164 
        3.37727         79.6056         5.49683 
        3.39294         79.0821          5.4331 
        3.40867         78.1683         5.37016 
        3.42439         77.3394         5.30824 
        3.44008         76.4966         5.24742 
        3.45578         75.7738         5.18751 
        3.47153         74.9642         5.12839 
        3.48724         74.0273          5.0703 
        3.50292         73.3542         5.01324 
        3.51859         72.8799         4.95708 
        3.53431         71.7868         4.90161 
        3.55007         71.0746         4.84685 
        3.56577         70.4628         4.79314 
        3.58146         69.8291         4.74026 
        3.59719         69.0018         4.68806 
        3.61292          68.555         4.63665 
        3.62859         67.6351         4.58622 
        3.64429          67.182         4.53643 
        3.66003         66.4675         4.48723 
        3.67578         65.6533         4.43877 
        3.69146         65.1802         4.39121 
        3.70712           64.65         4.34443 
        3.72284         63.8057         4.29816 
        3.73853         63.3619         4.25264 
        3.75422         62.7823         4.20776 
        3.76993         61.9829         4.16349 
        3.78564           61.27         4.11987 
        3.80137         60.8366          4.0768 
        3.81707         60.1865         4.03444 
        3.83279         59.6658         3.99264 
        3.84853         59.3699         3.95136 
        3.86424         58.7348         3.91075 
        3.87992         57.9998         3.87077 
        3.89561          57.455         3.83135 
        3.91134         57.0405         3.79239 
        3.92704         56.6071         3.75401 
        3.94273          55.839         3.71621 
        3.95845         55.3338         3.67885 
        3.97418         54.9361           3.642 
        3.98988         54.4686          3.6057 
        4.00554          53.835         3.56999 
        4.02125         53.1746         3.53466 
        4.03698         52.8487         3.49976 
        4.05268         52.3857          3.4654 
        4.06839         51.7457         3.43148 
         4.0841          51.564         3.39802 
        4.09983         50.9881         3.36496 
        4.11555         50.5687         3.33236 
        4.13124          50.174         3.30027 
        4.14693         49.5038         3.26857 
        4.16266          49.182         3.23722 
        4.17839         48.7853          3.2063 
        4.19408         48.3276         3.17585 
        4.20977         47.7876         3.14578 
        4.22551         47.4179         3.11603 
        4.24123         47.0455         3.08669 
        4.25691         46.6234         3.05781 
        4.27259         46.2405         3.02928 
        4.28831         45.7885         3.00107 
        4.30404         45.3444         2.97318 
        4.31974         45.0268         2.94571 
        4.33543         44.6257          2.9186 
        4.35116         44.1949         2.89176 
        4.36688          43.848         2.86527 
        4.38255         43.4876         2.83922 
        4.39825         43.0462         2.81342 
        4.41398         42.7348          2.7879 
         4.4297         42.4154         2.76272 
        4.44541         41.9362         2.73785 
        4.46111         41.4806         2.71331 
        4.47683         41.2618         2.68905 
        4.49251         40.8901         2.66513 
        4.50819         40.6002         2.64151 
         4.5239         40.1523         2.61815 
        4.53962          39.903         2.59503 
        4.55535         39.5598         2.57219 
        4.57106         39.3135         2.54964 
        4.58678         38.8763         2.52737 
         4.6025         38.5128         2.50535 
        4.61821         38.1864          2.4836 
        4.63391         37.8866         2.46214 
         4.6496         37.6048         2.44093 
        4.66532         37.2898         2.41995 
        4.68103         37.0038         2.39921 
        4.69673         36.7009         2.37874 
        4.71241         36.3545         2.35853 
        4.72811          36.045         2.33852 
        4.74384         35.8113         2.31872 
        4.75955         35.5226         2.29917 
        4.77525         35.1557         2.27986 
        4.79096         34.8107         2.26075 
        4.80669         34.5826         2.24184 
         4.8224         34.4021         2.22317 
        4.83809         34.0272         2.20474 
        4.85379         33.8748          2.1865 
         4.8695         33.4909         2.16845 
        4.88521         33.2529         2.15062 
        4.90093          32.951         2.13298 
        4.91663         32.6621         2.11555 
        4.93234         32.4704          2.0983 
        4.94807         32.2171         2.08123 
        4.96377         31.8635         2.06438 
        4.97943         31.6113         2.04776 
        4.99514         31.4451         2.03127 
        5.01086         31.1734         2.01495 
        5.02654         30.9218         1.99885 
        5.04227         30.6478         1.98288 
          5.058          30.414         1.96707 
        5.07371         30.2011         1.95147 
        5.08942         29.9221         1.93604 
        5.10513          29.705         1.92077 
        5.12084         29.4522         1.90565 
        5.13656         29.2826          1.8907 
        5.15225         29.0737         1.87594 
        5.16796         28.7835         1.86131 
        5.18369         28.5322         1.84682 
         5.1994          28.273         1.83251 
        5.21509         28.0951         1.81837 
        5.23079         27.8785         1.80436 
        5.24649         27.6652         1.79051 
        5.26217         27.4497         1.77681 
        5.27788         27.2672         1.76323 
        5.29359         27.0343          1.7498 
        5.30933         26.8093         1.73648 
        5.32504         26.5734         1.72332 
        5.34073         26.4094         1.71032 
        5.35646         26.2082         1.69742 
        5.37218         26.0194         1.68465 
        5.38789          25.829         1.67204 
        5.40357         25.6213         1.65956 
        5.41929         25.4274         1.64719 
        5.43502          25.258         1.63494 
         5.4507         25.0449         1.62285 
        5.46639         24.8301         1.61087 
        5.48212         24.6472         1.59899 
        5.49786         24.4964         1.58721 
        5.51353         24.3219         1.57561 
        5.52921          24.151         1.56411 
        5.54495         23.9184         1.55269 
        5.56066         23.7978          1.5414 
        5.57637         23.5586         1.53023 
        5.59207          23.393         1.51917 
        5.60778         23.2262         1.50822 
        5.62346         23.0647         1.49739 
        5.63916         22.9514         1.48666 
        5.65487         22.7098         1.47602 
         5.6706         22.5402         1.46548 
        5.68633         22.4219         1.45503 
        5.70203          22.234         1.44471 
        5.71773         22.0832         1.43449 
        5.73344         21.8856         1.42437 
        5.74916         21.7704         1.41433 
        5.76486         21.6241          1.4044 
        5.78054         21.4086         1.39458 
        5.79626         21.2749         1.38483 
          5.812         21.1512         1.37516 
         5.8277         20.9699         1.36562 
        5.84339         20.8047         1.35616 
        5.85911         20.6274         1.34677 
        5.87484         20.5321         1.33747 
        5.89053         20.3899         1.32828 
        5.90623          20.181         1.31917 
        5.92195         20.0999         1.31014 
        5.93767          19.928         1.30119 
        5.95336         19.7918         1.29233 
        5.96905         19.6661         1.28357 
        5.98476         19.5279         1.27487 
        6.00048         19.3722         1.26625 
        6.01617         19.2527         1.25772 
        6.03185         19.1187         1.24928 
        6.04756         18.9798          1.2409 
        6.06331          18.806         1.23257 
        6.07903         18.7165         1.22434 
        6.09473          18.564         1.21619 
        6.11044         18.4563         1.20811 
        6.12616         18.3311          1.2001 
        6.14186         18.2077         1.19217 
        6.15755         18.0592         1.18432 
        6.17326          17.944         1.17653 
        6.18898         17.8072          1.1688 
        6.20467         17.7104         1.16116 
        6.22036         17.5554         1.15359 
         6.2361         17.4412         1.14606 
         6.2518         17.3171         1.13862 
        6.26748         17.1973         1.13125 
        6.28319         17.0755         1.12393 
        6.29893          16.971         1.11667 
        6.31463         16.8341         1.10948 
        6.33033         16.7367         1.10236 
        6.34604         16.6103          1.0953 
        6.36177         16.5228         1.08829 
        6.37747         16.3782         1.08136 
