# k  (h/Mpc)    Pcb(k)  (Mpc/h)^3    Pcb_linear(k) (Mpc/h)^3   ShotnoiseSubtracted = true
      0.0200456         3021.92         3067.74 
      0.0350414         2309.85         2341.45 
      0.0492313         1782.45         1784.26 
      0.0637834         1506.87         1488.57 
      0.0800726         1178.17         1162.39 
       0.096163         858.342         866.671 
       0.111083         704.354         718.284 
       0.126058         634.653         630.455 
       0.142273         529.878         517.678 
       0.158546         432.574         417.496 
        0.17375         365.296         364.781 
       0.188953         338.192         326.824 
       0.204907         306.481         280.994 
       0.220756         257.628         240.267 
        0.23588         229.126             215 
         0.2514         203.961         194.822 
       0.267535          186.93         172.562 
       0.283568         168.266         152.626 
       0.299022         154.875          138.45 
       0.314451          139.57         126.753 
       0.330372         129.063         114.846 
       0.346141         116.822         104.107 
       0.361624         109.545         95.5514 
       0.377134         103.337         88.2034 
       0.392932         92.0635         81.1389 
       0.408854         88.5798         74.6269 
       0.424564         84.1639         69.0889 
       0.440253         77.7635         64.2275 
       0.455999         73.3667         59.7096 
       0.471626         68.3209         55.5917 
        0.48727         65.6654         51.9094 
       0.502856          61.866         48.6107 
       0.518488         59.2829         45.5666 
       0.534347         56.9056         42.7174 
       0.550082         52.2292         40.1442 
       0.565732         49.1286         37.8071 
       0.581496         47.8671         35.6371 
       0.597222         46.3033         33.6333 
       0.612804         43.3672         31.8024 
       0.628434         41.9844         30.1074 
       0.644267          40.901          28.515 
       0.660051         38.9657         27.0412 
       0.675724         37.0343         25.6809 
       0.691403         35.8654         24.4138 
       0.707174         34.7937         23.2257 
       0.722871         33.3836         22.1218 
        0.73838         32.3176         21.1017 
       0.754018         30.9634         20.1384 
       0.769845          30.079         19.2248 
        0.78569         29.1634          18.367 
       0.801365          28.085           17.57 
       0.817031         27.4216         16.8209 
       0.832809         26.8742         16.1106 
       0.848511          25.264         15.4445 
       0.864097         24.8246         14.8207 
       0.879701          24.252         14.2308 
       0.895507         23.6129         13.6661 
       0.911279         22.9174         13.1332 
        0.92691         22.3325         12.6331 
       0.942635          21.475         12.1564 
       0.958396         21.0676         11.7034 
       0.974128         20.4412         11.2742 
       0.989692         20.2575         10.8709 
        1.00528         19.7247         10.4868 
        1.02113         18.9293         10.1153 
        1.03692         18.5442         9.76313 
        1.05264         18.1662         9.42943 
        1.06832         17.7658         9.11188 
        1.08405         17.2671         8.80815 
        1.09979         16.9138         8.51811 
        1.11537         16.6052         8.24403 
        1.13105         16.2751         7.98039 
        1.14679          16.035         7.72729 
        1.16256         15.4659         7.48469 
        1.17828         15.4423         7.25332 
        1.19395         14.8725         7.03252 
         1.2097         14.6939         6.81981 
        1.22537           14.31         6.61693 
          1.241         14.1154         6.42292 
        1.25666         13.7985         6.23622 
        1.27241         13.4845         6.05607 
        1.28819         13.2311         5.88274 
        1.30392         13.1192          5.7167 
        1.31957          12.881         5.55781 
        1.33529         12.6535         5.40439 
        1.35108         12.3293         5.25615 
        1.36674           12.25         5.11454 
         1.3824         11.9157         4.97828 
        1.39811         11.7388         4.84653 
        1.41389         11.5781         4.71905 
        1.42964         11.4408         4.59637 
        1.44531         11.2679         4.47866 
        1.46101         10.9799         4.36482 
        1.47667         10.8487         4.25527 
        1.49229          10.714         4.14979 
        1.50793         10.5127         4.04776 
        1.52367         10.3506          3.9485 
        1.53953         10.2024         3.85191 
        1.55526         10.0539         3.75932 
        1.57092         9.94432         3.67016 
        1.58662         9.78333         3.58367 
        1.60235         9.63371         3.49981 
        1.61809         9.50707         3.41859 
        1.63369         9.35509         3.34067 
        1.64941         9.22721         3.26462 
        1.66519         9.13967         3.19066 
        1.68085         8.97992         3.11952 
        1.69652         8.83971         3.05053 
        1.71228         8.72519         2.98323 
        1.72806         8.66771         2.91791 
        1.74368         8.49839          2.8552 
        1.75933         8.42059          2.7942 
        1.77505         8.30902         2.73471 
        1.79081         8.14255         2.67683 
         1.8065         8.10314         2.62088 
        1.82218         7.96282         2.56658 
        1.83797         7.91401         2.51345 
        1.85367         7.76915         2.46211 
        1.86928         7.76004         2.41251 
        1.88497         7.57771           2.364 
        1.90073         7.50817         2.31665 
        1.91647         7.45867         2.27064 
        1.93218         7.36437         2.22598 
        1.94787         7.25535         2.18258 
        1.96363          7.1966         2.14016 
        1.97935         7.08017         2.09896 
        1.99499         6.98144         2.05908 
        2.01064         6.92091         2.02017 
         2.0264         6.84288         1.98202 
        2.04216         6.78061         1.94488 
        2.05781         6.68829         1.90892 
        2.07353         6.62633         1.87374 
        2.08928         6.57546         1.83937 
        2.10499         6.51877         1.80595 
        2.12065         6.42715         1.77346 
        2.13633         6.37719         1.74174 
        2.15211         6.27603          1.7106 
        2.16785          6.2088          1.6803 
        2.18349         6.15515         1.65092 
        2.19916         6.08588         1.62218 
        2.21489         6.02204         1.59403 
        2.23063         5.96618         1.56653 
         2.2463         5.89769          1.5398 
        2.26194         5.82019         1.51377 
        2.27765         5.80427         1.48819 
        2.29341         5.71844         1.46314 
        2.30914         5.67288         1.43872 
        2.32486         5.58947         1.41487 
        2.34061         5.57282         1.39152 
        2.35635          5.5153         1.36872 
        2.37203         5.46432          1.3465 
        2.38768         5.40083         1.32483 
        2.40339         5.35292         1.30355 
        2.41914         5.27358         1.28269 
        2.43483         5.26973         1.26236 
         2.4505         5.19072          1.2425 
        2.46622         5.15951           1.223 
        2.48195         5.09511         1.20392 
        2.49759         5.08204         1.18534 
        2.51328         5.01705         1.16711 
        2.52906         4.99629         1.14915 
        2.54479          4.9218         1.13163 
        2.56049         4.89678         1.11451 
        2.57618         4.83424         1.09775 
        2.59189          4.8039         1.08132 
        2.60758         4.76794         1.06525 
        2.62325         4.71521         1.04952 
        2.63898         4.65869         1.03406 
        2.65468          4.6287         1.01893 
        2.67044          4.5886         1.00405 
        2.68618         4.56459        0.989498 
        2.70184         4.50573        0.975291 
        2.71755         4.47537        0.961327 
        2.73329         4.44545        0.947614 
        2.74897          4.4276        0.934213 
        2.76462         4.37908        0.921101 
        2.78034         4.31893        0.908185 
        2.79607         4.29471        0.895503 
        2.81179         4.27171        0.883077 
        2.82749         4.20981        0.870901 
        2.84321         4.20129         0.85894 
        2.85893         4.16631        0.847206 
        2.87462         4.13147        0.835712 
        2.89033         4.09509        0.824419 
        2.90605         4.06162        0.813325 
        2.92176         4.01771        0.802441 
        2.93747         3.99623        0.791761 
        2.95318         3.96687        0.781272 
        2.96891         3.94552        0.770969 
        2.98456         3.90598        0.760896 
        3.00023         3.86501        0.750988 
        3.01596         3.84552        0.741226 
        3.03164         3.82188        0.731664 
        3.04738         3.78411        0.722243 
         3.0631         3.76065         0.71299 
        3.07883         3.73756        0.703899 
        3.09456         3.70124        0.694967 
        3.11026         3.67949        0.686204 
        3.12596         3.64373        0.677592 
        3.14163         3.61011        0.669148 
        3.15734         3.58451        0.660828 
        3.17308         3.56963        0.652628 
        3.18879          3.5413         0.64459 
        3.20447         3.52278        0.636699 
         3.2202         3.47914        0.628915 
         3.2359         3.47251        0.621275 
        3.25157         3.43745        0.613779 
        3.26729         3.40888        0.606384 
        3.28304         3.39199        0.599096 
        3.29877         3.37561        0.591938 
        3.31446          3.3362        0.584911 
        3.33014         3.32482        0.578004 
        3.34585         3.29905        0.571199 
        3.36158         3.28352        0.564492 
        3.37727          3.2458        0.557913 
        3.39294         3.23407        0.551446 
        3.40867         3.20063        0.545057 
        3.42439         3.18454        0.538773 
        3.44008         3.15924        0.532599 
        3.45578         3.14662        0.526518 
        3.47153         3.12066        0.520518 
        3.48724          3.1037        0.514622 
        3.50292          3.0892         0.50883 
        3.51859         3.05809        0.503131 
        3.53431         3.03554          0.4975 
        3.55007         3.02655        0.491942 
        3.56577         3.00209        0.486491 
        3.58146         2.98823        0.481124 
        3.59719         2.96465        0.475825 
        3.61292         2.94817        0.470608 
        3.62859         2.91816        0.465489 
        3.64429         2.90143        0.460435 
        3.66003         2.89441        0.455442 
        3.67578         2.87068        0.450523 
        3.69146         2.84628        0.445696 
        3.70712         2.83154        0.440948 
        3.72284         2.81287        0.436252 
        3.73853          2.7961        0.431631 
        3.75422         2.77764        0.427076 
        3.76993         2.75138        0.422583 
        3.78564         2.74107        0.418155 
        3.80137         2.72502        0.413784 
        3.81707         2.69882        0.409485 
        3.83279         2.68861        0.405242 
        3.84853         2.67736        0.401053 
        3.86424         2.65205        0.396931 
        3.87992         2.64213        0.392873 
        3.89561         2.61343        0.388871 
        3.91134         2.61381        0.384917 
        3.92704         2.59097        0.381022 
        3.94273          2.5735        0.377185 
        3.95845         2.56229        0.373393 
        3.97418         2.53756        0.369653 
        3.98988         2.51977        0.365969 
        4.00554         2.49846        0.362345 
        4.02125          2.4895        0.358759 
        4.03698         2.47269        0.355216 
        4.05268         2.45932        0.351729 
        4.06839         2.44225        0.348286 
         4.0841         2.42733         0.34489 
        4.09983         2.40692        0.341535 
        4.11555         2.39749        0.338225 
        4.13124         2.38384        0.334968 
        4.14693         2.36028        0.331752 
        4.16266         2.34986        0.328569 
        4.17839         2.33665        0.325431 
        4.19408         2.31718         0.32234 
        4.20977         2.30154        0.319288 
        4.22551         2.28901        0.316268 
        4.24123         2.27609        0.313291 
        4.25691         2.26487        0.310359 
        4.27259         2.24419        0.307464 
        4.28831         2.23816          0.3046 
        4.30404         2.22081         0.30177 
        4.31974          2.2072        0.298982 
        4.33543         2.19669         0.29623 
        4.35116         2.18212        0.293506 
        4.36688          2.1698        0.290818 
        4.38255         2.15364        0.288173 
        4.39825         2.14439        0.285555 
        4.41398         2.12601        0.282964 
         4.4297         2.12042        0.280409 
        4.44541         2.10359        0.277885 
        4.46111         2.09227        0.275394 
        4.47683         2.07875        0.272931 
        4.49251         2.06756        0.270504 
        4.50819         2.05592        0.268107 
         4.5239         2.04698        0.265735 
        4.53962          2.0363        0.263389 
        4.55535         2.02089         0.26107 
        4.57106         2.01387        0.258782 
        4.58678         2.00145        0.256521 
         4.6025         1.98809        0.254287 
        4.61821         1.97585        0.252079 
        4.63391          1.9648          0.2499 
         4.6496          1.9573        0.247748 
        4.66532         1.94599        0.245618 
        4.68103         1.93795        0.243514 
        4.69673         1.92564        0.241436 
        4.71241         1.91229        0.239385 
        4.72811         1.90459        0.237354 
        4.74384         1.89738        0.235343 
        4.75955         1.88534         0.23336 
        4.77525         1.87622          0.2314 
        4.79096         1.86651         0.22946 
        4.80669         1.85779        0.227541 
         4.8224         1.84625        0.225646 
        4.83809         1.83966        0.223775 
        4.85379         1.82578        0.221924 
         4.8695         1.81795        0.220092 
        4.88521         1.80916        0.218282 
        4.90093         1.79673        0.216492 
        4.91663         1.78976        0.214723 
        4.93234         1.78384        0.212972 
        4.94807          1.7724        0.211239 
        4.96377         1.76344        0.209529 
        4.97943         1.75838        0.207842 
        4.99514         1.74582        0.206168 
        5.01086         1.73939        0.204512 
        5.02654         1.73038        0.202878 
        5.04227         1.72369        0.201257 
          5.058         1.71455        0.199653 
        5.07371         1.70695        0.198069 
        5.08942         1.69768        0.196503 
        5.10513         1.68878        0.194953 
        5.12084         1.68358        0.193419 
        5.13656         1.67118        0.191901 
        5.15225         1.66663        0.190403 
        5.16796         1.65578        0.188918 
        5.18369         1.65051        0.187448 
         5.1994         1.64247        0.185995 
        5.21509         1.63558         0.18456 
        5.23079         1.62915        0.183138 
        5.24649         1.62151        0.181732 
        5.26217         1.61363        0.180341 
        5.27788         1.60383        0.178963 
        5.29359         1.60575          0.1776 
        5.30933         1.59362        0.176248 
        5.32504         1.58481        0.174913 
        5.34073         1.58092        0.173593 
        5.35646         1.57429        0.172284 
        5.37218         1.56629        0.170988 
        5.38789         1.55982        0.169707 
        5.40357         1.55307        0.168441 
        5.41929         1.54312        0.167185 
        5.43502         1.53939        0.165942 
         5.4507          1.5295        0.164715 
        5.46639         1.52795        0.163499 
        5.48212         1.51991        0.162293 
        5.49786         1.51283        0.161098 
        5.51353         1.50628         0.15992 
        5.52921         1.50005        0.158753 
        5.54495         1.49261        0.157594 
        5.56066         1.48729        0.156448 
        5.57637         1.47831        0.155314 
        5.59207         1.47382        0.154192 
        5.60778         1.46707         0.15308 
        5.62346         1.46519        0.151981 
        5.63916         1.45822        0.150892 
        5.65487          1.4503        0.149812 
         5.6706         1.44686        0.148742 
        5.68633         1.43963        0.147682 
        5.70203         1.43393        0.146635 
        5.71773          1.4264        0.145597 
        5.73344         1.41844         0.14457 
        5.74916         1.41408        0.143551 
        5.76486         1.40925        0.142543 
        5.78054         1.40575        0.141547 
        5.79626          1.4008        0.140557 
          5.812         1.39555        0.139575 
         5.8277         1.38706        0.138606 
        5.84339         1.38322        0.137646 
        5.85911         1.37969        0.136694 
        5.87484         1.37298         0.13575 
        5.89053          1.3696        0.134817 
        5.90623         1.36118        0.133893 
        5.92195         1.35886        0.132975 
        5.93767         1.35305        0.132067 
        5.95336         1.34632        0.131168 
        5.96905         1.33882        0.130279 
        5.98476          1.3383        0.129396 
        6.00048          1.3319        0.128521 
        6.01617         1.32768        0.127655 
        6.03185         1.32226        0.126799 
        6.04756         1.31659        0.125948 
        6.06331         1.31232        0.125103 
        6.07903         1.30714        0.124267 
        6.09473         1.30221         0.12344 
        6.11044         1.29822         0.12262 
        6.12616         1.29327        0.121807 
        6.14186         1.28862        0.121003 
        6.15755         1.28559        0.120205 
        6.17326         1.28041        0.119414 
        6.18898         1.27793         0.11863 
        6.20467         1.27135        0.117855 
        6.22036         1.26688        0.117086 
         6.2361         1.26271        0.116322 
         6.2518         1.25538        0.115566 
        6.26748          1.2542        0.114819 
        6.28319         1.24746        0.114076 
        6.29893         1.24475        0.113339 
        6.31463         1.23877         0.11261 
        6.33033          1.2372        0.111887 
        6.34604         1.23156         0.11117 
        6.36177         1.22774        0.110459 
        6.37747         1.22504        0.109755 
