# k  (h/Mpc)    Pcb(k)  (Mpc/h)^3    Pcb_linear(k) (Mpc/h)^3   ShotnoiseSubtracted = true
      0.0200456         33424.9         34122.4 
      0.0350414         26830.6         26043.9 
      0.0492313         19005.3         19846.3 
      0.0637834         15337.8         16557.3 
      0.0800726         11852.3         12929.3 
       0.096163         9893.74         9639.95 
       0.111083          8258.9         7989.45 
       0.126058         6808.16         7012.53 
       0.142273          5960.1         5758.11 
       0.158546         4926.39          4643.8 
        0.17375         4562.94         4057.45 
       0.188953         4437.59         3635.25 
       0.204907         3815.82         3125.49 
       0.220756         3502.98         2672.49 
        0.23588         3151.31         2391.44 
         0.2514         2897.48            2167 
       0.267535         2766.04          1919.4 
       0.283568          2527.1         1697.65 
       0.299022         2409.25         1539.98 
       0.314451         2491.42         1409.87 
       0.330372         2312.28         1277.42 
       0.346141         2160.28         1157.98 
       0.361624         2046.52         1062.81 
       0.377134         2013.51         981.083 
       0.392932         1882.31         902.505 
       0.408854         1839.79         830.072 
       0.424564         1797.05         768.474 
       0.440253         1731.31           714.4 
       0.455999         1648.79         664.148 
       0.471626         1629.56         618.344 
        0.48727         1571.89         577.386 
       0.502856         1553.87         540.695 
       0.518488         1475.61         506.835 
       0.534347         1431.75         475.144 
       0.550082         1403.95         446.523 
       0.565732         1361.44         420.527 
       0.581496         1328.34          396.39 
       0.597222         1321.52         374.102 
       0.612804         1270.41         353.737 
       0.628434         1235.14         334.884 
       0.644267         1221.35         317.171 
       0.660051         1181.77         300.778 
       0.675724         1171.93         285.648 
       0.691403         1121.22         271.554 
       0.707174         1099.44         258.339 
       0.722871         1097.74          246.06 
        0.73838         1049.31         234.714 
       0.754018         1055.83         223.999 
       0.769845         1016.76         213.837 
        0.78569         992.514         204.296 
       0.801365         976.643         195.431 
       0.817031         959.888         187.098 
       0.832809          940.43         179.198 
       0.848511          902.99         171.789 
       0.864097         898.178          164.85 
       0.879701         885.057         158.289 
       0.895507          869.96         152.007 
       0.911279         855.785          146.08 
        0.92691         842.032         140.518 
       0.942635          813.59         135.216 
       0.958396         815.524         130.176 
       0.974128         792.411         125.403 
       0.989692         781.232         120.917 
        1.00528         759.487         116.644 
        1.02113         744.778         112.512 
        1.03692         727.627         108.595 
        1.05264         721.787         104.883 
        1.06832          711.97         101.351 
        1.08405           694.9         97.9727 
        1.09979         686.076         94.7466 
        1.11537         667.418          91.698 
        1.13105         656.884         88.7656 
        1.14679         649.963         85.9504 
        1.16256         636.547         83.2519 
        1.17828         630.367         80.6784 
        1.19395         617.642         78.2225 
         1.2097         605.014         75.8565 
        1.22537         592.135         73.5998 
          1.241         582.425         71.4419 
        1.25666         567.927         69.3652 
        1.27241         561.713         67.3614 
        1.28819         551.948         65.4334 
        1.30392          544.02         63.5866 
        1.31957         534.489         61.8193 
        1.33529         524.308         60.1128 
        1.35108         519.601          58.464 
        1.36674         510.123         56.8888 
         1.3824         505.599         55.3732 
        1.39811         493.043         53.9078 
        1.41389         490.233         52.4898 
        1.42964         475.725         51.1253 
        1.44531         471.212          49.816 
        1.46101         461.957         48.5497 
        1.47667         457.281         47.3313 
        1.49229         452.255         46.1579 
        1.50793         439.442          45.023 
        1.52367         436.199          43.919 
        1.53953         427.023         42.8446 
        1.55526         417.329         41.8147 
        1.57092         412.588          40.823 
        1.58662         407.179         39.8611 
        1.60235         400.291         38.9283 
        1.61809         392.739         38.0248 
        1.63369         387.454         37.1581 
        1.64941         383.965         36.3122 
        1.66519         377.254         35.4896 
        1.68085         369.807         34.6983 
        1.69652          363.61         33.9309 
        1.71228          361.46         33.1824 
        1.72806         352.515         32.4558 
        1.74368         349.559         31.7583 
        1.75933         341.569         31.0798 
        1.77505          339.52          30.418 
        1.79081         334.907         29.7743 
         1.8065         329.109          29.152 
        1.82218         324.303          28.548 
        1.83797         319.987          27.957 
        1.85367         314.631         27.3859 
        1.86928         309.727         26.8342 
        1.88497         305.179         26.2947 
        1.90073         301.443         25.7681 
        1.91647         297.212         25.2563 
        1.93218         292.818         24.7595 
        1.94787         291.452         24.2767 
        1.96363         285.315         23.8049 
        1.97935         280.817         23.3467 
        1.99499         276.945          22.903 
        2.01064         275.048         22.4702 
         2.0264         270.013         22.0459 
        2.04216         264.179         21.6328 
        2.05781         259.655         21.2328 
        2.07353         257.971         20.8415 
        2.08928         254.482         20.4592 
        2.10499         251.509         20.0875 
        2.12065         247.088         19.7261 
        2.13633         244.771         19.3734 
        2.15211         240.834         19.0269 
        2.16785          237.18         18.6899 
        2.18349         235.617         18.3631 
        2.19916          232.33         18.0435 
        2.21489          229.39         17.7304 
        2.23063         226.494         17.4245 
         2.2463         224.108         17.1272 
        2.26194         219.585         16.8376 
        2.27765         216.084         16.5531 
        2.29341         214.614         16.2745 
        2.30914          211.52         16.0029 
        2.32486         209.442         15.7376 
        2.34061          205.96         15.4778 
        2.35635         203.723         15.2242 
        2.37203         200.989         14.9771 
        2.38768         197.703          14.736 
        2.40339         195.278         14.4993 
        2.41914         194.328         14.2673 
        2.43483         191.062         14.0411 
         2.4505         188.577         13.8203 
        2.46622         186.806         13.6034 
        2.48195         184.555         13.3911 
        2.49759         181.347         13.1845 
        2.51328          179.95         12.9817 
        2.52906         177.582         12.7819 
        2.54479         174.662         12.5871 
        2.56049         172.806         12.3966 
        2.57618         171.625         12.2103 
        2.59189         169.346         12.0275 
        2.60758         166.831         11.8487 
        2.62325         165.036         11.6738 
        2.63898         163.062         11.5018 
        2.65468         161.287         11.3336 
        2.67044         159.604          11.168 
        2.68618         158.002         11.0061 
        2.70184         156.058         10.8481 
        2.71755         153.436         10.6928 
        2.73329         152.099         10.5403 
        2.74897         150.551         10.3912 
        2.76462         148.686         10.2454 
        2.78034         146.544         10.1017 
        2.79607         145.529         9.96065 
        2.81179          143.93         9.82243 
        2.82749         142.304           9.687 
        2.84321         140.265         9.55395 
        2.85893         138.054         9.42344 
        2.87462         137.476         9.29559 
        2.89033         135.891         9.16998 
        2.90605         133.713         9.04659 
        2.92176         132.829         8.92552 
        2.93747         131.372         8.80673 
        2.95318         129.415         8.69006 
        2.96891         128.187         8.57545 
        2.98456          126.64         8.46342 
        3.00023         125.384         8.35321 
        3.01596         124.562         8.24462 
        3.03164          122.66         8.13827 
        3.04738         121.212         8.03348 
         3.0631         120.281         7.93056 
        3.07883         118.832         7.82944 
        3.09456         117.404          7.7301 
        3.11026         115.768         7.63262 
        3.12596         115.195         7.53683 
        3.14163         113.794         7.44291 
        3.15734         112.659         7.35036 
        3.17308         111.378         7.25916 
        3.18879         109.915         7.16975 
        3.20447         109.105         7.08198 
         3.2202         108.003          6.9954 
         3.2359         106.459         6.91041 
        3.25157         105.463         6.82704 
        3.26729         104.649         6.74479 
        3.28304         103.839         6.66373 
        3.29877          102.49          6.5841 
        3.31446         101.614         6.50594 
        3.33014         100.443         6.42912 
        3.34585         99.0873         6.35342 
        3.36158         98.1224         6.27882 
        3.37727         97.2193         6.20565 
        3.39294          96.137         6.13371 
        3.40867         95.1086         6.06265 
        3.42439         94.0753         5.99275 
        3.44008         93.2774         5.92408 
        3.45578         92.4411         5.85644 
        3.47153         91.5726          5.7897 
        3.48724         90.6394         5.72412 
        3.50292         89.4805          5.6597 
        3.51859         89.1952          5.5963 
        3.53431          87.717         5.53368 
        3.55007          86.927         5.47185 
        3.56577         86.1361         5.41122 
        3.58146         85.3662         5.35152 
        3.59719         84.6082         5.29259 
        3.61292          83.635         5.23456 
        3.62859         83.0143         5.17761 
        3.64429         82.2013         5.12141 
        3.66003         81.3433         5.06586 
        3.67578         80.1371         5.01115 
        3.69146         79.8001         4.95746 
        3.70712         78.8403         4.90465 
        3.72284         78.1849         4.85241 
        3.73853         77.7019         4.80102 
        3.75422         76.8745         4.75035 
        3.76993         76.1368         4.70037 
        3.78564          75.415         4.65113 
        3.80137         74.5626         4.60251 
        3.81707         73.9314         4.55468 
        3.83279         73.1754         4.50749 
        3.84853         72.5986          4.4609 
        3.86424         71.7991         4.41505 
        3.87992         71.3524         4.36991 
        3.89561         70.3977          4.3254 
        3.91134         69.6922         4.28142 
        3.92704         69.1749          4.2381 
        3.94273         68.4544         4.19541 
        3.95845         67.8972         4.15324 
        3.97418         67.5024         4.11164 
        3.98988         66.5261         4.07066 
        4.00554         66.2244         4.03035 
        4.02125          65.656         3.99046 
        4.03698         64.9161         3.95106 
        4.05268           64.22         3.91227 
        4.06839         63.5748         3.87398 
         4.0841          63.248          3.8362 
        4.09983          62.572         3.79888 
        4.11555         61.9228         3.76207 
        4.13124         61.5771         3.72584 
        4.14693           60.99         3.69006 
        4.16266         60.1751         3.65467 
        4.17839         59.7234         3.61976 
        4.19408         59.1601         3.58538 
        4.20977         58.7325         3.55143 
        4.22551          58.209         3.51784 
        4.24123         57.7136         3.48472 
        4.25691         57.2485         3.45211 
        4.27259         56.7605         3.41991 
        4.28831         56.2405         3.38806 
        4.30404          55.581         3.35658 
        4.31974         55.0593         3.32556 
        4.33543         54.6808         3.29496 
        4.35116         54.2193         3.26466 
        4.36688         53.7764         3.23476 
        4.38255         53.3277         3.20534 
        4.39825         52.8803         3.17622 
        4.41398         52.3023          3.1474 
         4.4297         51.8743         3.11897 
        4.44541         51.4223          3.0909 
        4.46111          50.904         3.06319 
        4.47683         50.4623         3.03581 
        4.49251         50.0288         3.00881 
        4.50819          49.734         2.98214 
         4.5239         49.2915         2.95576 
        4.53962         48.7041         2.92967 
        4.55535         48.4872         2.90387 
        4.57106         47.9866         2.87842 
        4.58678         47.6132         2.85328 
         4.6025         47.2386         2.82842 
        4.61821         46.8177         2.80386 
        4.63391         46.5468         2.77963 
         4.6496         46.0031         2.75569 
        4.66532         45.6886           2.732 
        4.68103         45.3291         2.70859 
        4.69673         44.9321         2.68548 
        4.71241         44.6353         2.66267 
        4.72811         44.3098         2.64008 
        4.74384         43.7355         2.61772 
        4.75955         43.4536         2.59565 
        4.77525         43.1628         2.57385 
        4.79096         42.6677         2.55227 
        4.80669         42.4479         2.53093 
         4.8224         41.9539         2.50986 
        4.83809         41.8177         2.48904 
        4.85379         41.4121         2.46845 
         4.8695          41.006         2.44808 
        4.88521         40.6169         2.42794 
        4.90093         40.5079         2.40803 
        4.91663         40.1018         2.38836 
        4.93234          39.782         2.36888 
        4.94807         39.4091         2.34961 
        4.96377         39.1208         2.33059 
        4.97943         38.7873         2.31182 
        4.99514         38.4622          2.2932 
        5.01086         38.1179         2.27478 
        5.02654         37.8988          2.2566 
        5.04227         37.5272         2.23857 
          5.058         37.2731         2.22073 
        5.07371         36.9468         2.20312 
        5.08942         36.6139         2.18569 
        5.10513         36.3566         2.16845 
        5.12084          36.065         2.15139 
        5.13656         35.7923         2.13451 
        5.15225         35.5298         2.11784 
        5.16796         35.1775         2.10133 
        5.18369         35.0956         2.08497 
         5.1994         34.6885         2.06882 
        5.21509         34.4943         2.05285 
        5.23079         34.1808         2.03703 
        5.24649         33.8442         2.02139 
        5.26217         33.7285         2.00593 
        5.27788         33.4344          1.9906 
        5.29359         33.1575         1.97543 
        5.30933         32.9073          1.9604 
        5.32504         32.6297         1.94555 
        5.34073         32.4227         1.93087 
        5.35646         32.0589          1.9163 
        5.37218         31.9952         1.90189 
        5.38789          31.746         1.88765 
        5.40357         31.4026         1.87357 
        5.41929         31.2056          1.8596 
        5.43502         30.9264         1.84577 
         5.4507         30.7849         1.83211 
        5.46639          30.407         1.81859 
        5.48212         30.2597         1.80518 
        5.49786         30.0438         1.79188 
        5.51353         29.8277         1.77878 
        5.52921         29.5975          1.7658 
        5.54495         29.3622         1.75292 
        5.56066         29.0956         1.74017 
        5.57637         28.9085         1.72755 
        5.59207         28.7359         1.71507 
        5.60778         28.5341          1.7027 
        5.62346          28.327         1.69048 
        5.63916         28.1203         1.67836 
        5.65487         27.8619         1.66636 
         5.6706         27.6955         1.65445 
        5.68633         27.4557         1.64266 
        5.70203         27.2683         1.63101 
        5.71773          27.055         1.61947 
        5.73344         26.8902         1.60804 
        5.74916         26.7055         1.59671 
        5.76486         26.4075          1.5855 
        5.78054         26.2628         1.57442 
        5.79626         26.0309         1.56341 
          5.812         25.9058         1.55249 
         5.8277         25.7505         1.54171 
        5.84339         25.5461         1.53104 
        5.85911         25.3437         1.52044 
        5.87484         25.1619         1.50994 
        5.89053         24.9851         1.49957 
        5.90623         24.8087         1.48928 
        5.92195         24.6194         1.47908 
        5.93767         24.4131         1.46897 
        5.95336         24.2629         1.45898 
        5.96905         24.1155         1.44908 
        5.98476         23.9306         1.43927 
        6.00048         23.8511         1.42953 
        6.01617         23.6419          1.4199 
        6.03185         23.4664         1.41038 
        6.04756         23.2521         1.40091 
        6.06331         23.1345         1.39151 
        6.07903         22.9085         1.38222 
        6.09473         22.8072         1.37302 
        6.11044         22.6703          1.3639 
        6.12616         22.4792         1.35486 
        6.14186         22.3082         1.34591 
        6.15755         22.1701         1.33704 
        6.17326         22.0239         1.32824 
        6.18898          21.861         1.31952 
        6.20467         21.6496         1.31089 
        6.22036         21.5266         1.30234 
         6.2361         21.3676         1.29385 
         6.2518         21.2358         1.28544 
        6.26748         21.0838         1.27713 
        6.28319         20.9698         1.26886 
        6.29893         20.8128         1.26066 
        6.31463         20.6845         1.25255 
        6.33033         20.5333         1.24451 
        6.34604         20.4288         1.23654 
        6.36177         20.2486         1.22863 
        6.37747         20.0824          1.2208 
