# k  (h/Mpc)    Pcb(k)  (Mpc/h)^3    Pcb_linear(k) (Mpc/h)^3   ShotnoiseSubtracted = true
      0.0200456         18391.7         18695.8 
      0.0350414         14653.1         14269.6 
      0.0492313         10624.1         10873.9 
      0.0637834         8598.55         9071.85 
      0.0800726            6668            7084 
       0.096163          5426.7         5281.77 
       0.111083         4557.03         4377.46 
       0.126058         3748.81          3842.2 
       0.142273          3217.6          3154.9 
       0.158546         2675.29         2544.36 
        0.17375         2418.32         2223.09 
       0.188953         2272.39         1991.77 
       0.204907         1941.85         1712.47 
       0.220756         1755.32         1464.27 
        0.23588         1578.51         1310.28 
         0.2514         1426.72         1187.31 
       0.267535          1376.5         1051.65 
       0.283568         1222.88          930.15 
       0.299022         1170.83         843.761 
       0.314451         1212.99         772.472 
       0.330372         1065.53         699.906 
       0.346141         980.321         634.463 
       0.361624         941.392         582.321 
       0.377134         899.285          537.54 
       0.392932         863.265         494.487 
       0.408854         823.883         454.801 
       0.424564         805.598          421.05 
       0.440253         744.005         391.423 
       0.455999         712.029          363.89 
       0.471626         724.201         338.794 
        0.48727         684.347         316.352 
       0.502856         648.388         296.249 
       0.518488         636.317         277.697 
       0.534347         603.689         260.334 
       0.550082         577.571         244.652 
       0.565732         570.979         230.409 
       0.581496         558.322         217.184 
       0.597222         543.725         204.972 
       0.612804         532.287         193.814 
       0.628434         509.399         183.484 
       0.644267         493.211          173.78 
       0.660051         486.938         164.798 
       0.675724          477.42         156.508 
       0.691403         464.749         148.786 
       0.707174         448.364         141.545 
       0.722871         440.358         134.817 
        0.73838         434.655         128.601 
       0.754018         420.776          122.73 
       0.769845         415.684         117.162 
        0.78569         407.137         111.935 
       0.801365         393.421         107.077 
       0.817031         389.316         102.512 
       0.832809         383.657         98.1832 
       0.848511         375.122          94.124 
       0.864097         366.328         90.3223 
       0.879701         362.693         86.7272 
       0.895507         349.882         83.2854 
       0.911279         344.114         80.0378 
        0.92691         340.174         76.9905 
       0.942635         337.507         74.0852 
       0.958396         325.284          71.324 
       0.974128         321.501         68.7089 
       0.989692         309.491         66.2509 
        1.00528         308.972         63.9099 
        1.02113         302.934         61.6456 
        1.03692         297.201         59.4997 
        1.05264         291.942          57.466 
        1.06832         288.662         55.5308 
        1.08405         283.554         53.6797 
        1.09979         279.046         51.9121 
        1.11537         271.312         50.2417 
        1.13105         268.066         48.6351 
        1.14679         264.043         47.0926 
        1.16256         261.504         45.6141 
        1.17828         257.009         44.2041 
        1.19395         250.102         42.8585 
         1.2097         249.807         41.5621 
        1.22537         245.043         40.3257 
          1.241         239.778         39.1434 
        1.25666         237.082         38.0055 
        1.27241         232.823         36.9076 
        1.28819         228.942         35.8513 
        1.30392         226.648         34.8394 
        1.31957         220.522         33.8711 
        1.33529         217.774         32.9361 
        1.35108           215.9         32.0327 
        1.36674          210.71         31.1697 
         1.3824          208.88         30.3392 
        1.39811         206.296         29.5363 
        1.41389         200.328         28.7594 
        1.42964          198.59         28.0118 
        1.44531         195.891         27.2944 
        1.46101          192.74         26.6006 
        1.47667         189.878          25.933 
        1.49229         187.064         25.2901 
        1.50793         184.408         24.6683 
        1.52367         181.944         24.0634 
        1.53953         177.405         23.4748 
        1.55526         176.915         22.9105 
        1.57092         174.911         22.3671 
        1.58662         170.458         21.8401 
        1.60235         168.792          21.329 
        1.61809         165.782          20.834 
        1.63369         162.974         20.3591 
        1.64941         161.423         19.8956 
        1.66519         158.906         19.4449 
        1.68085         156.194         19.0114 
        1.69652         154.152         18.5909 
        1.71228         151.839         18.1808 
        1.72806         149.785         17.7827 
        1.74368         148.198         17.4005 
        1.75933         146.684         17.0288 
        1.77505           144.1         16.6662 
        1.79081         141.099         16.3135 
         1.8065         139.392         15.9725 
        1.82218         136.986         15.6416 
        1.83797         136.102         15.3177 
        1.85367         134.073         15.0049 
        1.86928         131.737         14.7026 
        1.88497         130.621          14.407 
        1.90073          129.01         14.1184 
        1.91647         126.508          13.838 
        1.93218          125.13         13.5658 
        1.94787         123.107         13.3013 
        1.96363         122.365         13.0428 
        1.97935         120.366         12.7917 
        1.99499         119.082         12.5487 
        2.01064         116.521         12.3116 
         2.0264         115.275         12.0791 
        2.04216         113.748         11.8527 
        2.05781         112.072         11.6336 
        2.07353         110.524         11.4192 
        2.08928         109.232         11.2097 
        2.10499         107.868          11.006 
        2.12065         106.817          10.808 
        2.13633         105.541         10.6148 
        2.15211         103.761         10.4249 
        2.16785         102.225         10.2403 
        2.18349         100.882         10.0612 
        2.19916         100.024         9.88611 
        2.21489         98.7973         9.71456 
        2.23063         96.9118         9.54696 
         2.2463         96.1475         9.38407 
        2.26194         94.8788         9.22537 
        2.27765         93.5961         9.06953 
        2.29341         92.5571         8.91688 
        2.30914         91.5698         8.76805 
        2.32486         89.6396         8.62269 
        2.34061         89.1795         8.48038 
        2.35635         87.9077         8.34141 
        2.37203          86.488         8.20603 
        2.38768         85.6677         8.07393 
        2.40339         84.8284         7.94425 
        2.41914          83.246         7.81712 
        2.43483         82.4976         7.69321 
         2.4505         81.6781         7.57219 
        2.46622         80.5053         7.45336 
        2.48195         79.5231         7.33706 
        2.49759         78.4933         7.22386 
        2.51328         77.8569         7.11275 
        2.52906         76.2464         7.00328 
        2.54479         75.5669         6.89651 
        2.56049         74.4826         6.79216 
        2.57618         73.3969         6.69007 
        2.59189         73.2147         6.58991 
        2.60758         71.6803         6.49196 
        2.62325         71.3851         6.39612 
        2.63898         70.3538         6.30187 
        2.65468         69.4866         6.20972 
        2.67044         68.3889         6.11901 
        2.68618         67.9782         6.03032 
        2.70184         66.7967         5.94374 
        2.71755         66.0898         5.85864 
        2.73329         65.1299         5.77507 
        2.74897         64.7628          5.6934 
        2.76462          63.841         5.61349 
        2.78034         62.9092         5.53477 
        2.79607         62.2897         5.45749 
        2.81179         61.7237         5.38176 
        2.82749          61.068         5.30755 
        2.84321         60.3601         5.23465 
        2.85893         59.6847         5.16315 
        2.87462         58.9162          5.0931 
        2.89033         58.3181         5.02428 
        2.90605         57.8508         4.95667 
        2.92176         56.8326         4.89033 
        2.93747         56.3776         4.82525 
        2.95318         55.6655         4.76133 
        2.96891         55.0648         4.69853 
        2.98456         54.5029         4.63715 
        3.00023         53.7287         4.57676 
        3.01596           53.46         4.51727 
        3.03164         52.6928           4.459 
        3.04738          52.177         4.40158 
         3.0631         51.4319         4.34519 
        3.07883         50.9555         4.28979 
        3.09456         50.4121         4.23536 
        3.11026         49.7772         4.18195 
        3.12596         49.3897         4.12947 
        3.14163         48.7548           4.078 
        3.15734         48.2282          4.0273 
        3.17308         47.7031         3.97733 
        3.18879         47.0883         3.92834 
        3.20447         46.7513         3.88025 
         3.2202         46.1232         3.83281 
         3.2359         45.6727         3.78625 
        3.25157          45.243         3.74057 
        3.26729         44.6681          3.6955 
        3.28304         44.2454         3.65109 
        3.29877         43.7311         3.60746 
        3.31446         43.4001         3.56464 
        3.33014         42.9394         3.52255 
        3.34585         42.3703         3.48107 
        3.36158         41.9605          3.4402 
        3.37727         41.5985          3.4001 
        3.39294         41.2343         3.36069 
        3.40867         40.8008         3.32175 
        3.42439         40.2663         3.28346 
        3.44008         39.8329         3.24583 
        3.45578         39.4668         3.20877 
        3.47153         39.0692         3.17221 
        3.48724         38.6091         3.13627 
        3.50292         38.1576         3.10098 
        3.51859         37.9572         3.06624 
        3.53431         37.3098         3.03193 
        3.55007         37.0848         2.99805 
        3.56577         36.7233         2.96483 
        3.58146         36.2362         2.93212 
        3.59719         35.9074         2.89983 
        3.61292         35.5175         2.86804 
        3.62859         35.2988         2.83684 
        3.64429          35.018         2.80604 
        3.66003          34.594         2.77561 
        3.67578         34.2913         2.74563 
        3.69146         33.9469         2.71622 
        3.70712         33.5914         2.68728 
        3.72284         33.2814         2.65866 
        3.73853         32.9602          2.6305 
        3.75422         32.6489         2.60274 
        3.76993         32.3994         2.57536 
        3.78564         32.0752         2.54837 
        3.80137         31.7474         2.52174 
        3.81707         31.3665         2.49553 
        3.83279         31.0506         2.46968 
        3.84853         30.7905         2.44415 
        3.86424         30.5452         2.41903 
        3.87992         30.2715          2.3943 
        3.89561         30.0355         2.36991 
        3.91134          29.785         2.34581 
        3.92704         29.4023         2.32207 
        3.94273         29.1787         2.29869 
        3.95845         28.8897         2.27558 
        3.97418         28.5989         2.25278 
        3.98988         28.2752         2.23033 
        4.00554          28.022         2.20824 
        4.02125          27.802         2.18639 
        4.03698         27.5555          2.1648 
        4.05268         27.3346         2.14355 
        4.06839         26.9832         2.12257 
         4.0841         26.8372         2.10187 
        4.09983         26.5435         2.08142 
        4.11555         26.3153         2.06125 
        4.13124         26.0963         2.04141 
        4.14693         25.8853          2.0218 
        4.16266         25.5332         2.00241 
        4.17839         25.3665         1.98328 
        4.19408         25.1314         1.96445 
        4.20977         24.9052         1.94585 
        4.22551         24.7602         1.92744 
        4.24123         24.4839         1.90929 
        4.25691         24.2605         1.89143 
        4.27259         24.0325         1.87379 
        4.28831         23.8294         1.85633 
        4.30404         23.5891         1.83908 
        4.31974         23.3777         1.82209 
        4.33543         23.1991         1.80532 
        4.35116         23.0065         1.78872 
        4.36688         22.7921         1.77234 
        4.38255         22.6255         1.75622 
        4.39825         22.3614         1.74026 
        4.41398         22.2503         1.72448 
         4.4297         21.9902          1.7089 
        4.44541         21.8778         1.69352 
        4.46111         21.6764         1.67834 
        4.47683         21.4383         1.66333 
        4.49251         21.2956         1.64854 
        4.50819          21.103         1.63393 
         4.5239         20.8614         1.61948 
        4.53962         20.7567         1.60518 
        4.55535          20.528         1.59104 
        4.57106         20.3821          1.5771 
        4.58678         20.2147         1.56332 
         4.6025         20.0268          1.5497 
        4.61821         19.8437         1.53625 
        4.63391          19.681         1.52297 
         4.6496         19.5229         1.50986 
        4.66532         19.3397         1.49688 
        4.68103         19.1658         1.48405 
        4.69673         19.0268         1.47139 
        4.71241         18.8703         1.45889 
        4.72811         18.7062         1.44651 
        4.74384         18.5877         1.43426 
        4.75955         18.3905         1.42217 
        4.77525         18.2689         1.41022 
        4.79096         18.1078          1.3984 
        4.80669         17.9847         1.38671 
         4.8224         17.8534         1.37516 
        4.83809         17.6774         1.36376 
        4.85379         17.5199         1.35248 
         4.8695         17.3641         1.34131 
        4.88521         17.2192         1.33028 
        4.90093         17.1339         1.31937 
        4.91663         16.9654         1.30859 
        4.93234         16.8282         1.29792 
        4.94807         16.7364         1.28736 
        4.96377         16.5258         1.27694 
        4.97943         16.4171         1.26665 
        4.99514         16.3006         1.25646 
        5.01086         16.1482         1.24636 
        5.02654         16.0595          1.2364 
        5.04227         15.8964         1.22652 
          5.058         15.7873         1.21675 
        5.07371         15.6929          1.2071 
        5.08942         15.5218         1.19755 
        5.10513         15.4184          1.1881 
        5.12084         15.2682         1.17876 
        5.13656         15.1566         1.16951 
        5.15225         15.0067         1.16038 
        5.16796         14.9414         1.15133 
        5.18369          14.814         1.14237 
         5.1994         14.7098         1.13352 
        5.21509         14.5936         1.12477 
        5.23079          14.502          1.1161 
        5.24649         14.4013         1.10753 
        5.26217         14.2314         1.09906 
        5.27788          14.134         1.09066 
        5.29359         14.0479         1.08235 
        5.30933         13.9195         1.07411 
        5.32504         13.7804         1.06597 
        5.34073         13.6956         1.05793 
        5.35646           13.59         1.04995 
        5.37218         13.4854         1.04205 
        5.38789          13.402         1.03425 
        5.40357         13.3022         1.02654 
        5.41929         13.1932         1.01888 
        5.43502         13.0715         1.01131 
         5.4507         12.9969         1.00382 
        5.46639         12.9024        0.996416 
        5.48212         12.7955        0.989065 
        5.49786         12.6882         0.98178 
        5.51353         12.6134        0.974604 
        5.52921         12.5151        0.967493 
        5.54495         12.4155        0.960431 
        5.56066         12.3229        0.953447 
        5.57637         12.2417        0.946533 
        5.59207         12.1274        0.939694 
        5.60778         12.0591         0.93292 
        5.62346         11.9912        0.926221 
        5.63916         11.8641        0.919582 
        5.65487         11.8078        0.913004 
         5.6706         11.7045        0.906483 
        5.68633         11.6118        0.900023 
        5.70203          11.529        0.893639 
        5.71773         11.4522        0.887317 
        5.73344         11.3709        0.881054 
        5.74916         11.2815        0.874845 
        5.76486          11.204        0.868703 
        5.78054          11.111        0.862631 
        5.79626          11.046        0.856598 
          5.812         10.9588        0.850618 
         5.8277         10.8888        0.844712 
        5.84339          10.799        0.838862 
        5.85911         10.7289        0.833055 
        5.87484         10.6518        0.827305 
        5.89053          10.588         0.82162 
        5.90623         10.4861        0.815986 
        5.92195         10.4114        0.810394 
        5.93767         10.3527        0.804858 
        5.95336         10.2991        0.799383 
        5.96905         10.2025         0.79396 
        5.98476         10.1503         0.78858 
        6.00048         10.0696        0.783248 
        6.01617          9.9997        0.777972 
        6.03185          9.9355        0.772751 
        6.04756         9.84905        0.767565 
        6.06331         9.76141        0.762416 
        6.07903         9.71219        0.757325 
        6.09473         9.64508        0.752284 
        6.11044         9.57183        0.747285 
        6.12616         9.50704        0.742332 
        6.14186         9.44646        0.737428 
        6.15755         9.38937        0.732569 
        6.17326         9.30709         0.72775 
        6.18898         9.24861        0.722972 
        6.20467         9.18585        0.718245 
        6.22036          9.1328        0.713561 
         6.2361         9.07338        0.708905 
         6.2518         9.02027        0.704299 
        6.26748         8.94563        0.699744 
        6.28319         8.89961        0.695216 
        6.29893         8.82243        0.690724 
        6.31463         8.77001        0.686279 
        6.33033         8.69956        0.681875 
        6.34604          8.6462        0.677506 
        6.36177         8.58669        0.673171 
        6.37747         8.53177        0.668882 
