# k  (h/Mpc)    Pcb(k)  (Mpc/h)^3    Pcb_linear(k) (Mpc/h)^3   ShotnoiseSubtracted = true
      0.0200456         12161.2         12340.4 
      0.0350414          9647.2         9418.82 
      0.0492313         7076.12         7177.44 
      0.0637834         5744.78            5988 
      0.0800726         4464.53         4675.89 
       0.096163         3581.74         3486.31 
       0.111083         3008.87          2889.4 
       0.126058         2488.72          2536.1 
       0.142273         2107.73         2082.43 
       0.158546         1755.32         1679.44 
        0.17375          1572.1         1467.38 
       0.188953         1453.16         1314.69 
       0.204907         1230.33         1130.34 
       0.220756         1108.17         966.509 
        0.23588         996.033         864.868 
         0.2514         893.944           783.7 
       0.267535         863.074         694.156 
       0.283568         757.283         613.958 
       0.299022         725.055         556.936 
       0.314451         736.562         509.881 
       0.330372         634.527         461.983 
       0.346141         587.974         418.786 
       0.361624          563.01         384.369 
       0.377134         529.428         354.811 
       0.392932         513.093         326.393 
       0.408854         487.911         300.197 
       0.424564         472.458          277.92 
       0.440253         429.047         258.364 
       0.455999         411.465          240.19 
       0.471626           414.3         223.625 
        0.48727         392.878         208.813 
       0.502856         361.986         195.543 
       0.518488         362.725         183.298 
       0.534347         337.345         171.837 
       0.550082         327.268         161.486 
       0.565732         325.131         152.084 
       0.581496         310.887         143.355 
       0.597222         302.117         135.295 
       0.612804         294.592          127.93 
       0.628434         282.597         121.111 
       0.644267         270.816         114.706 
       0.660051         266.264         108.777 
       0.675724          263.73         103.305 
       0.691403         255.703          98.208 
       0.707174         246.702         93.4287 
       0.722871         242.901         88.9881 
        0.73838         240.846         84.8846 
       0.754018         228.613         81.0096 
       0.769845         227.777         77.3344 
        0.78569         222.372          73.884 
       0.801365         216.716         70.6779 
       0.817031         211.158         67.6643 
       0.832809         208.118         64.8071 
       0.848511         202.717         62.1278 
       0.864097         197.987         59.6185 
       0.879701         196.731         57.2454 
       0.895507         191.632         54.9737 
       0.911279          186.02           52.83 
        0.92691         183.717         50.8186 
       0.942635         181.664          48.901 
       0.958396         177.542         47.0784 
       0.974128         173.654         45.3522 
       0.989692         168.796         43.7298 
        1.00528          167.45         42.1846 
        1.02113         163.927           40.69 
        1.03692         161.391         39.2736 
        1.05264         159.021         37.9312 
        1.06832         156.642         36.6538 
        1.08405         153.243          35.432 
        1.09979         152.395         34.2653 
        1.11537         148.713         33.1628 
        1.13105         146.917         32.1022 
        1.14679         144.456         31.0841 
        1.16256         142.257         30.1082 
        1.17828         140.245         29.1775 
        1.19395         136.581         28.2893 
         1.2097          136.01         27.4336 
        1.22537         133.592         26.6175 
          1.241         131.941         25.8371 
        1.25666         128.553         25.0861 
        1.27241         125.909         24.3614 
        1.28819         124.986         23.6641 
        1.30392         122.497         22.9962 
        1.31957         120.617         22.3571 
        1.33529         119.297         21.7399 
        1.35108         117.654         21.1436 
        1.36674         115.487          20.574 
         1.3824         115.104         20.0258 
        1.39811         111.768         19.4959 
        1.41389         111.082          18.983 
        1.42964          108.68         18.4896 
        1.44531         107.532          18.016 
        1.46101         105.785         17.5581 
        1.47667         105.128         17.1174 
        1.49229         103.797         16.6931 
        1.50793         101.716         16.2827 
        1.52367         100.658         15.8834 
        1.53953         98.9616         15.4948 
        1.55526         97.7525         15.1224 
        1.57092         96.9865         14.7637 
        1.58662         95.4354         14.4158 
        1.60235         93.7095         14.0785 
        1.61809         93.0533         13.7518 
        1.63369         91.2707         13.4383 
        1.64941         91.1619         13.1324 
        1.66519         89.0685         12.8349 
        1.68085         88.0318         12.5487 
        1.69652         86.3239         12.2712 
        1.71228         85.6865         12.0005 
        1.72806         84.5569         11.7377 
        1.74368         83.2193         11.4854 
        1.75933         82.4213         11.2401 
        1.77505         81.5851         11.0007 
        1.79081         80.1222         10.7679 
         1.8065         79.5819         10.5429 
        1.82218         78.0061         10.3244 
        1.83797         77.6132         10.1107 
        1.85367         76.1572         9.90417 
        1.86928         75.3838         9.70465 
        1.88497         74.6288         9.50954 
        1.90073         73.6287         9.31907 
        1.91647         72.3278         9.13398 
        1.93218         71.6183         8.95431 
        1.94787         70.7635         8.77973 
        1.96363         69.7345          8.6091 
        1.97935         69.1787         8.44336 
        1.99499           68.24         8.28292 
        2.01064         67.3628         8.12641 
         2.0264         66.1844         7.97296 
        2.04216          65.614         7.82354 
        2.05781         64.8255         7.67888 
        2.07353         63.9489         7.53737 
        2.08928         63.2012         7.39911 
        2.10499         62.3784         7.26468 
        2.12065         61.9237           7.134 
        2.13633         61.1814         7.00641 
        2.15211         60.2192         6.88112 
        2.16785         59.2546         6.75923 
        2.18349         58.7155         6.64106 
        2.19916         57.9306         6.52546 
        2.21489         57.3185         6.41223 
        2.23063         56.4647          6.3016 
         2.2463         55.9592         6.19408 
        2.26194         55.3873         6.08933 
        2.27765         54.5675         5.98647 
        2.29341         53.8573         5.88571 
        2.30914         53.1694         5.78747 
        2.32486         52.4883         5.69152 
        2.34061         52.1787         5.59759 
        2.35635           51.25         5.50586 
        2.37203         50.9376          5.4165 
        2.38768         50.2237         5.32931 
        2.40339         49.6323         5.24371 
        2.41914         49.0851          5.1598 
        2.43483         48.4268         5.07801 
         2.4505         47.9937         4.99813 
        2.46622         47.4349         4.91969 
        2.48195         46.8374         4.84293 
        2.49759         46.2236         4.76821 
        2.51328         45.8709         4.69487 
        2.52906          45.208         4.62261 
        2.54479         44.7871         4.55213 
        2.56049         44.0518         4.48326 
        2.57618         43.6414         4.41587 
        2.59189         43.2775         4.34976 
        2.60758         42.6202         4.28511 
        2.62325         42.2091         4.22185 
        2.63898         41.7611         4.15964 
        2.65468         41.3853         4.09881 
        2.67044          40.874         4.03894 
        2.68618         40.5406         3.98039 
        2.70184         39.8683         3.92325 
        2.71755         39.6061         3.86707 
        2.73329         38.9967         3.81191 
        2.74897         38.7166         3.75801 
        2.76462         38.2124         3.70526 
        2.78034          37.812          3.6533 
        2.79607         37.3852         3.60229 
        2.81179         37.0344          3.5523 
        2.82749          36.586         3.50332 
        2.84321         36.1671         3.45521 
        2.85893         35.7522         3.40801 
        2.87462         35.2917         3.36177 
        2.89033         35.0644         3.31634 
        2.90605         34.5926         3.27172 
        2.92176         34.3198         3.22793 
        2.93747         34.0188         3.18497 
        2.95318         33.6125         3.14278 
        2.96891         33.2502         3.10133 
        2.98456         32.9398         3.06081 
        3.00023         32.5196         3.02096 
        3.01596         32.2224         2.98168 
        3.03164         31.8947         2.94322 
        3.04738         31.5785         2.90532 
         3.0631         31.3225          2.8681 
        3.07883         30.9007         2.83153 
        3.09456          30.431          2.7956 
        3.11026         30.1999         2.76035 
        3.12596         29.9181         2.72571 
        3.14163         29.5833         2.69174 
        3.15734         29.2799         2.65827 
        3.17308         28.9991         2.62529 
        3.18879         28.6851         2.59296 
        3.20447         28.4202         2.56121 
         3.2202         28.1091          2.5299 
         3.2359         27.8215         2.49916 
        3.25157         27.6009         2.46901 
        3.26729          27.248         2.43927 
        3.28304         26.9477         2.40995 
        3.29877         26.6221         2.38115 
        3.31446         26.3748         2.35289 
        3.33014         26.1656          2.3251 
        3.34585         25.8938         2.29773 
        3.36158         25.6364         2.27075 
        3.37727         25.3925         2.24429 
        3.39294         25.0941         2.21827 
        3.40867         24.8459         2.19257 
        3.42439         24.6684         2.16729 
        3.44008         24.4208         2.14246 
        3.45578         24.2573         2.11799 
        3.47153         23.9182         2.09386 
        3.48724         23.6343         2.07014 
        3.50292         23.4482         2.04684 
        3.51859         23.1735         2.02391 
        3.53431         22.9448         2.00127 
        3.55007         22.7199         1.97891 
        3.56577         22.5331         1.95698 
        3.58146         22.3236         1.93539 
        3.59719         22.1387         1.91407 
        3.61292         21.8809         1.89309 
        3.62859         21.7012         1.87249 
        3.64429         21.4497         1.85217 
        3.66003         21.3149         1.83208 
        3.67578         21.1027         1.81229 
        3.69146         20.9109         1.79288 
        3.70712         20.6816         1.77378 
        3.72284         20.5107         1.75488 
        3.73853         20.3217          1.7363 
        3.75422         19.9995         1.71797 
        3.76993         19.8987          1.6999 
        3.78564         19.7095         1.68209 
        3.80137         19.5293         1.66451 
        3.81707         19.3837         1.64721 
        3.83279         19.1816         1.63014 
        3.84853         18.9889         1.61329 
        3.86424         18.8072         1.59671 
        3.87992         18.6086         1.58039 
        3.89561         18.4925         1.56429 
        3.91134         18.2528         1.54838 
        3.92704          18.129         1.53272 
        3.94273         17.9591         1.51728 
        3.95845         17.7854         1.50203 
        3.97418         17.5754         1.48698 
        3.98988         17.4954         1.47216 
        4.00554         17.3577         1.45758 
        4.02125         17.1087         1.44316 
        4.03698         16.9634         1.42891 
        4.05268         16.8395         1.41488 
        4.06839         16.6724         1.40103 
         4.0841         16.4996         1.38737 
        4.09983         16.3119         1.37387 
        4.11555         16.1954         1.36056 
        4.13124         16.0739         1.34746 
        4.14693         15.9321         1.33452 
        4.16266         15.8636         1.32172 
        4.17839         15.6592         1.30909 
        4.19408          15.459         1.29666 
        4.20977         15.3697         1.28438 
        4.22551         15.2233         1.27223 
        4.24123         15.1133         1.26026 
        4.25691         14.9236         1.24846 
        4.27259         14.8507         1.23682 
        4.28831         14.7214          1.2253 
        4.30404         14.5801         1.21391 
        4.31974         14.4821          1.2027 
        4.33543         14.3388         1.19163 
        4.35116         14.1989         1.18067 
        4.36688         14.0938         1.16986 
        4.38255         13.9607         1.15922 
        4.39825         13.7911         1.14869 
        4.41398         13.7289         1.13826 
         4.4297         13.5926         1.12798 
        4.44541         13.4471         1.11783 
        4.46111         13.3774         1.10781 
        4.47683         13.2077          1.0979 
        4.49251         13.1185         1.08814 
        4.50819         13.0234          1.0785 
         4.5239         12.9053         1.06896 
        4.53962         12.7961         1.05952 
        4.55535          12.691         1.05019 
        4.57106         12.5963         1.04099 
        4.58678         12.4775         1.03189 
         4.6025          12.379          1.0229 
        4.61821         12.2788         1.01402 
        4.63391         12.1701         1.00526 
         4.6496         12.0333        0.996602 
        4.66532         11.9195        0.988033 
        4.68103         11.8637        0.979569 
        4.69673         11.7607        0.971211 
        4.71241         11.6822        0.962959 
        4.72811          11.565        0.954788 
        4.74384         11.4699        0.946702 
        4.75955          11.366        0.938722 
        4.77525          11.274        0.930837 
        4.79096         11.1937        0.923034 
        4.80669         11.1001        0.915316 
         4.8224         10.9893        0.907694 
        4.83809         10.9343        0.900167 
        4.85379         10.8413        0.892721 
         4.8695         10.7455        0.885352 
        4.88521         10.6724         0.87807 
        4.90093          10.584        0.870868 
        4.91663         10.5197        0.863753 
        4.93234         10.4399         0.85671 
        4.94807         10.3376        0.849741 
        4.96377         10.2705        0.842861 
        4.97943         10.1975        0.836073 
        4.99514         10.0713        0.829341 
        5.01086         10.0026        0.822678 
        5.02654         9.91762        0.816105 
        5.04227         9.83029        0.809584 
          5.058         9.78797        0.803131 
        5.07371         9.69803        0.796761 
        5.08942         9.63541        0.790459 
        5.10513         9.54951        0.784225 
        5.12084         9.48742        0.778054 
        5.13656          9.4248        0.771951 
        5.15225         9.31285        0.765923 
        5.16796         9.25359         0.75995 
        5.18369         9.19618        0.754034 
         5.1994         9.10855        0.748193 
        5.21509         9.04633        0.742418 
        5.23079         8.96519        0.736697 
        5.24649         8.90144        0.731041 
        5.26217         8.82298        0.725448 
        5.27788         8.77772        0.719905 
        5.29359         8.69218        0.714419 
        5.30933         8.64733        0.708983 
        5.32504         8.58445        0.703611 
        5.34073         8.51975        0.698301 
        5.35646         8.44645        0.693035 
        5.37218         8.39525        0.687823 
        5.38789         8.33249        0.682672 
        5.40357         8.24831        0.677579 
        5.41929         8.20377        0.672527 
        5.43502         8.14985        0.667526 
         5.4507         8.07606        0.662587 
        5.46639         8.01322        0.657698 
        5.48212         7.95163        0.652846 
        5.49786         7.89406        0.648037 
        5.51353         7.84854        0.643301 
        5.52921         7.78884        0.638607 
        5.54495         7.71705        0.633946 
        5.56066         7.67246        0.629336 
        5.57637         7.60572        0.624772 
        5.59207         7.55708        0.620258 
        5.60778         7.49837        0.615786 
        5.62346         7.44467        0.611365 
        5.63916          7.4016        0.606983 
        5.65487         7.34383        0.602641 
         5.6706         7.28645        0.598337 
        5.68633         7.23001        0.594072 
        5.70203         7.17201        0.589858 
        5.71773          7.1359        0.585686 
        5.73344         7.08792        0.581552 
        5.74916         7.05344        0.577453 
        5.76486         6.98091          0.5734 
        5.78054         6.93371        0.569391 
        5.79626         6.87418         0.56541 
          5.812         6.83359        0.561462 
         5.8277         6.79266        0.557564 
        5.84339         6.74602        0.553702 
        5.85911         6.69073         0.54987 
        5.87484         6.65482        0.546074 
        5.89053         6.59003        0.542321 
        5.90623         6.55056        0.538602 
        5.92195         6.52022        0.534912 
        5.93767         6.47173        0.531258 
        5.95336         6.42281        0.527643 
        5.96905         6.38265        0.524064 
        5.98476           6.342        0.520513 
        6.00048         6.29508        0.516993 
        6.01617         6.24452        0.513511 
        6.03185         6.21279        0.510065 
        6.04756         6.16798        0.506642 
        6.06331         6.11368        0.503243 
        6.07903         6.08888        0.499882 
        6.09473         6.04104        0.496555 
        6.11044         6.01121        0.493256 
        6.12616         5.95736        0.489986 
        6.14186         5.92754         0.48675 
        6.15755         5.87474        0.483542 
        6.17326          5.8482        0.480362 
        6.18898         5.79919        0.477208 
        6.20467         5.76622        0.474088 
        6.22036         5.72542        0.470996 
         6.2361         5.69629        0.467923 
         6.2518         5.64542        0.464882 
        6.26748         5.60654        0.461875 
        6.28319         5.57406        0.458887 
        6.29893         5.53715        0.455922 
        6.31463         5.50039        0.452988 
        6.33033         5.46496        0.450081 
        6.34604         5.43266        0.447197 
        6.36177         5.39681        0.444336 
        6.37747         5.36614        0.441505 
