# k  (h/Mpc)    Pcb(k)  (Mpc/h)^3    Pcb_linear(k) (Mpc/h)^3   ShotnoiseSubtracted = true
      0.0200456         18273.7         18695.8 
      0.0350414         13640.5         14269.6 
      0.0492313         10623.1         10873.9 
      0.0637834         9197.81         9071.85 
      0.0800726         7167.59            7084 
       0.096163         5082.39         5281.77 
       0.111083         4186.51         4377.46 
       0.126058         3842.07          3842.2 
       0.142273         3262.08          3154.9 
       0.158546         2867.68         2544.36 
        0.17375         2333.64         2223.09 
       0.188953         2269.66         1991.77 
       0.204907          2118.1         1712.47 
       0.220756          1840.1         1464.27 
        0.23588         1645.31         1310.28 
         0.2514         1435.21         1187.31 
       0.267535         1429.98         1051.65 
       0.283568         1297.28          930.15 
       0.299022         1225.49         843.761 
       0.314451         1168.39         772.472 
       0.330372         1074.61         699.906 
       0.346141         1020.07         634.463 
       0.361624          979.17         582.321 
       0.377134         910.409          537.54 
       0.392932         877.762         494.487 
       0.408854         855.843         454.801 
       0.424564          796.38          421.05 
       0.440253         781.716         391.423 
       0.455999          749.44          363.89 
       0.471626         717.383         338.794 
        0.48727         690.177         316.352 
       0.502856         671.096         296.249 
       0.518488         662.622         277.697 
       0.534347          620.57         260.334 
       0.550082          601.91         244.652 
       0.565732         600.855         230.409 
       0.581496         566.112         217.184 
       0.597222         556.421         204.972 
       0.612804         543.204         193.814 
       0.628434         526.195         183.484 
       0.644267         511.885          173.78 
       0.660051         495.017         164.798 
       0.675724         491.386         156.508 
       0.691403         474.625         148.786 
       0.707174         458.746         141.545 
       0.722871         453.759         134.817 
        0.73838         445.386         128.601 
       0.754018         433.381          122.73 
       0.769845         423.197         117.162 
        0.78569         417.488         111.935 
       0.801365         405.634         107.077 
       0.817031         393.929         102.512 
       0.832809          390.42         98.1832 
       0.848511         380.837          94.124 
       0.864097         370.625         90.3223 
       0.879701         365.415         86.7272 
       0.895507         361.082         83.2854 
       0.911279         349.347         80.0378 
        0.92691         344.739         76.9905 
       0.942635         336.948         74.0852 
       0.958396         328.422          71.324 
       0.974128         323.161         68.7089 
       0.989692          318.87         66.2509 
        1.00528         312.325         63.9099 
        1.02113         309.938         61.6456 
        1.03692         300.887         59.4997 
        1.05264         298.057          57.466 
        1.06832          290.37         55.5308 
        1.08405         285.537         53.6797 
        1.09979         280.511         51.9121 
        1.11537          275.24         50.2417 
        1.13105         269.266         48.6351 
        1.14679         265.908         47.0926 
        1.16256         259.738         45.6141 
        1.17828         257.297         44.2041 
        1.19395         251.679         42.8585 
         1.2097         249.595         41.5621 
        1.22537         243.009         40.3257 
          1.241         242.085         39.1434 
        1.25666         235.915         38.0055 
        1.27241         233.115         36.9076 
        1.28819          229.16         35.8513 
        1.30392          223.87         34.8394 
        1.31957         223.727         33.8711 
        1.33529          218.76         32.9361 
        1.35108         213.685         32.0327 
        1.36674         211.818         31.1697 
         1.3824         209.484         30.3392 
        1.39811         206.858         29.5363 
        1.41389         203.307         28.7594 
        1.42964         200.486         28.0118 
        1.44531         197.086         27.2944 
        1.46101         194.812         26.6006 
        1.47667         190.726          25.933 
        1.49229         188.736         25.2901 
        1.50793         185.044         24.6683 
        1.52367         182.911         24.0634 
        1.53953         179.958         23.4748 
        1.55526         175.761         22.9105 
        1.57092         174.967         22.3671 
        1.58662         172.289         21.8401 
        1.60235          169.32          21.329 
        1.61809         167.733          20.834 
        1.63369         164.488         20.3591 
        1.64941         161.005         19.8956 
        1.66519         160.258         19.4449 
        1.68085         158.439         19.0114 
        1.69652         155.176         18.5909 
        1.71228         152.432         18.1808 
        1.72806         150.679         17.7827 
        1.74368          148.71         17.4005 
        1.75933         146.211         17.0288 
        1.77505         144.608         16.6662 
        1.79081          143.31         16.3135 
         1.8065         141.116         15.9725 
        1.82218         138.569         15.6416 
        1.83797         137.613         15.3177 
        1.85367         135.307         15.0049 
        1.86928          133.27         14.7026 
        1.88497         131.162          14.407 
        1.90073         130.097         14.1184 
        1.91647         128.282          13.838 
        1.93218         126.433         13.5658 
        1.94787         124.797         13.3013 
        1.96363         122.448         13.0428 
        1.97935         121.106         12.7917 
        1.99499         119.143         12.5487 
        2.01064         118.024         12.3116 
         2.0264          116.14         12.0791 
        2.04216         114.785         11.8527 
        2.05781         113.633         11.6336 
        2.07353         112.296         11.4192 
        2.08928         109.978         11.2097 
        2.10499         108.391          11.006 
        2.12065         107.199          10.808 
        2.13633         106.495         10.6148 
        2.15211         104.038         10.4249 
        2.16785         102.469         10.2403 
        2.18349         101.653         10.0612 
        2.19916         100.402         9.88611 
        2.21489         99.1773         9.71456 
        2.23063         97.4346         9.54696 
         2.2463         96.1553         9.38407 
        2.26194         95.2819         9.22537 
        2.27765         94.1831         9.06953 
        2.29341         92.9833         8.91688 
        2.30914         91.7206         8.76805 
        2.32486         90.8244         8.62269 
        2.34061         89.4022         8.48038 
        2.35635         88.1808         8.34141 
        2.37203         87.0311         8.20603 
        2.38768         86.0237         8.07393 
        2.40339         85.2187         7.94425 
        2.41914         84.0737         7.81712 
        2.43483         82.8668         7.69321 
         2.4505         81.9188         7.57219 
        2.46622          80.692         7.45336 
        2.48195         79.7647         7.33706 
        2.49759         78.7517         7.22386 
        2.51328          78.044         7.11275 
        2.52906         76.5846         7.00328 
        2.54479         75.9097         6.89651 
        2.56049         75.0446         6.79216 
        2.57618         74.1679         6.69007 
        2.59189         73.2673         6.58991 
        2.60758         72.5871         6.49196 
        2.62325         71.4421         6.39612 
        2.63898         70.5274         6.30187 
        2.65468         69.8676         6.20972 
        2.67044         68.8475         6.11901 
        2.68618         67.9941         6.03032 
        2.70184         67.6168         5.94374 
        2.71755         66.8672         5.85864 
        2.73329         65.8398         5.77507 
        2.74897         65.1269          5.6934 
        2.76462         64.2248         5.61349 
        2.78034         63.6133         5.53477 
        2.79607          62.561         5.45749 
        2.81179         62.0216         5.38176 
        2.82749         61.2048         5.30755 
        2.84321          60.737         5.23465 
        2.85893         59.9144         5.16315 
        2.87462         59.0488          5.0931 
        2.89033         58.3793         5.02428 
        2.90605         57.6862         4.95667 
        2.92176         57.2825         4.89033 
        2.93747         56.6855         4.82525 
        2.95318         55.9444         4.76133 
        2.96891         55.4742         4.69853 
        2.98456         54.7545         4.63715 
        3.00023         54.1143         4.57676 
        3.01596         53.6657         4.51727 
        3.03164         52.7778           4.459 
        3.04738         52.3081         4.40158 
         3.0631         51.8239         4.34519 
        3.07883         51.1754         4.28979 
        3.09456         50.6559         4.23536 
        3.11026         49.8651         4.18195 
        3.12596         49.4588         4.12947 
        3.14163         48.8602           4.078 
        3.15734         48.4614          4.0273 
        3.17308         47.8544         3.97733 
        3.18879         47.3946         3.92834 
        3.20447         46.6112         3.88025 
         3.2202          46.394         3.83281 
         3.2359         45.7579         3.78625 
        3.25157         45.3555         3.74057 
        3.26729          44.931          3.6955 
        3.28304          44.377         3.65109 
        3.29877         43.9258         3.60746 
        3.31446         43.4751         3.56464 
        3.33014         43.0757         3.52255 
        3.34585          42.627         3.48107 
        3.36158         42.1977          3.4402 
        3.37727         41.7794          3.4001 
        3.39294         41.2674         3.36069 
        3.40867         40.8694         3.32175 
        3.42439         40.4093         3.28346 
        3.44008         40.0286         3.24583 
        3.45578         39.5109         3.20877 
        3.47153         39.0985         3.17221 
        3.48724          38.803         3.13627 
        3.50292         38.4688         3.10098 
        3.51859         38.0328         3.06624 
        3.53431         37.6009         3.03193 
        3.55007          37.169         2.99805 
        3.56577         36.9573         2.96483 
        3.58146         36.4412         2.93212 
        3.59719         36.0611         2.89983 
        3.61292         35.6818         2.86804 
        3.62859         35.4782         2.83684 
        3.64429         35.1884         2.80604 
        3.66003         34.6881         2.77561 
        3.67578         34.2774         2.74563 
        3.69146         33.9725         2.71622 
        3.70712         33.7389         2.68728 
        3.72284         33.3031         2.65866 
        3.73853         33.0135          2.6305 
        3.75422         32.6425         2.60274 
        3.76993          32.457         2.57536 
        3.78564         32.2035         2.54837 
        3.80137         31.8044         2.52174 
        3.81707         31.4214         2.49553 
        3.83279         31.3023         2.46968 
        3.84853          30.873         2.44415 
        3.86424         30.4544         2.41903 
        3.87992         30.2985          2.3943 
        3.89561         30.0259         2.36991 
        3.91134         29.6518         2.34581 
        3.92704         29.4877         2.32207 
        3.94273         29.1427         2.29869 
        3.95845          28.902         2.27558 
        3.97418         28.7162         2.25278 
        3.98988         28.3494         2.23033 
        4.00554         28.0597         2.20824 
        4.02125          27.854         2.18639 
        4.03698         27.5841          2.1648 
        4.05268         27.4021         2.14355 
        4.06839         27.0414         2.12257 
         4.0841         26.8679         2.10187 
        4.09983         26.6201         2.08142 
        4.11555           26.35         2.06125 
        4.13124         26.0536         2.04141 
        4.14693         25.7831          2.0218 
        4.16266         25.6076         2.00241 
        4.17839          25.406         1.98328 
        4.19408         25.1553         1.96445 
        4.20977         24.9477         1.94585 
        4.22551         24.7947         1.92744 
        4.24123         24.5041         1.90929 
        4.25691         24.2826         1.89143 
        4.27259         24.0519         1.87379 
        4.28831         23.7975         1.85633 
        4.30404         23.6261         1.83908 
        4.31974         23.4476         1.82209 
        4.33543         23.1927         1.80532 
        4.35116         23.0468         1.78872 
        4.36688         22.8252         1.77234 
        4.38255         22.5583         1.75622 
        4.39825         22.4159         1.74026 
        4.41398         22.1785         1.72448 
         4.4297         22.0283          1.7089 
        4.44541         21.7771         1.69352 
        4.46111         21.6447         1.67834 
        4.47683         21.4737         1.66333 
        4.49251         21.2397         1.64854 
        4.50819         21.0606         1.63393 
         4.5239         20.9091         1.61948 
        4.53962         20.6952         1.60518 
        4.55535         20.5448         1.59104 
        4.57106         20.3548          1.5771 
        4.58678         20.2142         1.56332 
         4.6025         20.0667          1.5497 
        4.61821         19.8978         1.53625 
        4.63391         19.6843         1.52297 
         4.6496         19.5521         1.50986 
        4.66532         19.3394         1.49688 
        4.68103         19.1583         1.48405 
        4.69673         19.0425         1.47139 
        4.71241         18.9154         1.45889 
        4.72811         18.7244         1.44651 
        4.74384         18.5818         1.43426 
        4.75955         18.4197         1.42217 
        4.77525         18.2402         1.41022 
        4.79096         18.1325          1.3984 
        4.80669         18.0129         1.38671 
         4.8224          17.808         1.37516 
        4.83809         17.6404         1.36376 
        4.85379         17.4862         1.35248 
         4.8695         17.3726         1.34131 
        4.88521         17.2235         1.33028 
        4.90093         17.1334         1.31937 
        4.91663         16.9418         1.30859 
        4.93234         16.8026         1.29792 
        4.94807          16.692         1.28736 
        4.96377         16.5758         1.27694 
        4.97943         16.4486         1.26665 
        4.99514         16.2571         1.25646 
        5.01086         16.1477         1.24636 
        5.02654          16.034          1.2364 
        5.04227         15.8898         1.22652 
          5.058         15.7417         1.21675 
        5.07371         15.6702          1.2071 
        5.08942         15.5558         1.19755 
        5.10513         15.4214          1.1881 
        5.12084         15.2545         1.17876 
        5.13656         15.1611         1.16951 
        5.15225         15.0601         1.16038 
        5.16796         14.9578         1.15133 
        5.18369         14.8103         1.14237 
         5.1994         14.7043         1.13352 
        5.21509         14.5545         1.12477 
        5.23079           14.46          1.1161 
        5.24649         14.3714         1.10753 
        5.26217         14.2536         1.09906 
        5.27788         14.1152         1.09066 
        5.29359         14.0176         1.08235 
        5.30933         13.9106         1.07411 
        5.32504         13.8158         1.06597 
        5.34073         13.7163         1.05793 
        5.35646         13.6132         1.04995 
        5.37218         13.4799         1.04205 
        5.38789         13.3642         1.03425 
        5.40357         13.2961         1.02654 
        5.41929         13.1934         1.01888 
        5.43502         13.0958         1.01131 
         5.4507         13.0064         1.00382 
        5.46639         12.8893        0.996416 
        5.48212         12.7967        0.989065 
        5.49786         12.7069         0.98178 
        5.51353         12.6073        0.974604 
        5.52921         12.5126        0.967493 
        5.54495         12.4649        0.960431 
        5.56066         12.3487        0.953447 
        5.57637         12.2513        0.946533 
        5.59207         12.1552        0.939694 
        5.60778         12.0761         0.93292 
        5.62346          12.012        0.926221 
        5.63916          11.893        0.919582 
        5.65487         11.7928        0.913004 
         5.6706         11.7161        0.906483 
        5.68633         11.6342        0.900023 
        5.70203         11.5716        0.893639 
        5.71773         11.4565        0.887317 
        5.73344         11.3943        0.881054 
        5.74916         11.3007        0.874845 
        5.76486         11.2138        0.868703 
        5.78054         11.1597        0.862631 
        5.79626         11.0492        0.856598 
          5.812         10.9786        0.850618 
         5.8277         10.8929        0.844712 
        5.84339         10.8431        0.838862 
        5.85911         10.7461        0.833055 
        5.87484         10.6743        0.827305 
        5.89053         10.5903         0.82162 
        5.90623         10.5111        0.815986 
        5.92195         10.4344        0.810394 
        5.93767         10.3622        0.804858 
        5.95336         10.3005        0.799383 
        5.96905         10.2303         0.79396 
        5.98476         10.1625         0.78858 
        6.00048         10.0539        0.783248 
        6.01617          10.025        0.777972 
        6.03185         9.93141        0.772751 
        6.04756         9.87461        0.767565 
        6.06331         9.81699        0.762416 
        6.07903         9.73152        0.757325 
        6.09473          9.6743        0.752284 
        6.11044         9.59928        0.747285 
        6.12616         9.56201        0.742332 
        6.14186         9.46075        0.737428 
        6.15755         9.40387        0.732569 
        6.17326         9.33314         0.72775 
        6.18898         9.29322        0.722972 
        6.20467         9.21083        0.718245 
        6.22036         9.15203        0.713561 
         6.2361         9.09736        0.708905 
         6.2518         9.04214        0.704299 
        6.26748         8.95979        0.699744 
        6.28319         8.91785        0.695216 
        6.29893         8.85269        0.690724 
        6.31463         8.78465        0.686279 
        6.33033         8.73003        0.681875 
        6.34604         8.67132        0.677506 
        6.36177         8.60904        0.673171 
        6.37747         8.56408        0.668882 
