# k  (h/Mpc)    Pcb(k)  (Mpc/h)^3    Pcb_linear(k) (Mpc/h)^3   ShotnoiseSubtracted = true
      0.0200456         15681.8         15928.8 
      0.0350414         12472.3         12157.6 
      0.0492313         9086.92         9264.49 
      0.0637834         7362.81         7729.18 
      0.0800726         5714.91         6035.54 
       0.096163            4624         4500.05 
       0.111083         3884.47         3729.58 
       0.126058         3201.25         3273.54 
       0.142273         2732.66         2687.96 
       0.158546         2274.27         2167.78 
        0.17375         2047.19         1894.07 
       0.188953         1910.64         1696.98 
       0.204907         1626.89         1459.02 
       0.220756         1468.08         1247.55 
        0.23588         1320.19         1116.35 
         0.2514          1188.8         1011.58 
       0.267535         1148.81         896.002 
       0.283568         1014.68         792.485 
       0.299022         972.102         718.881 
       0.314451         1000.63         658.144 
       0.330372         869.828         596.318 
       0.346141         802.692          540.56 
       0.361624         770.306         496.135 
       0.377134         731.796         457.982 
       0.392932         705.472         421.301 
       0.408854         671.939         387.488 
       0.424564         654.487         358.733 
       0.440253          600.08         333.491 
       0.455999         574.786         310.033 
       0.471626         583.733         288.651 
        0.48727          551.97         269.531 
       0.502856         516.162         252.403 
       0.518488         511.947         236.597 
       0.534347          480.66         221.803 
       0.550082         462.166         208.443 
       0.565732         458.116         196.307 
       0.581496         445.729          185.04 
       0.597222         432.842         174.636 
       0.612804         423.511         165.129 
       0.628434         405.517         156.328 
       0.644267         390.638          148.06 
       0.660051         385.035         140.407 
       0.675724         379.022         133.344 
       0.691403         368.991         126.765 
       0.707174         355.104         120.596 
       0.722871         348.845         114.864 
        0.73838         345.148         109.567 
       0.754018         331.896         104.565 
       0.769845         329.042         99.8217 
        0.78569         322.109         95.3679 
       0.801365         312.834         91.2296 
       0.817031         307.537         87.3396 
       0.832809         303.069         83.6517 
       0.848511         295.197         80.1933 
       0.864097         288.124         76.9543 
       0.879701         285.746         73.8912 
       0.895507         277.358         70.9588 
       0.911279          270.43         68.1919 
        0.92691         267.931         65.5956 
       0.942635         266.062         63.1203 
       0.958396         257.941         60.7678 
       0.974128         253.966         58.5397 
       0.989692         244.636         56.4456 
        1.00528         244.107          54.451 
        1.02113         240.145         52.5218 
        1.03692         234.411         50.6935 
        1.05264         230.636         48.9608 
        1.06832         229.687          47.312 
        1.08405         223.263         45.7349 
        1.09979         221.547         44.2289 
        1.11537         215.991         42.8058 
        1.13105         212.602         41.4369 
        1.14679         210.215         40.1227 
        1.16256         207.532         38.8631 
        1.17828         204.508         37.6617 
        1.19395          198.82         36.5153 
         1.2097         198.278         35.4108 
        1.22537         196.237         34.3573 
          1.241         191.419           33.35 
        1.25666         188.717         32.3806 
        1.27241         184.856         31.4452 
        1.28819         182.832         30.5452 
        1.30392         179.635          29.683 
        1.31957         175.489         28.8581 
        1.33529         173.415         28.0614 
        1.35108           171.3         27.2917 
        1.36674         168.453         26.5564 
         1.3824         166.611         25.8489 
        1.39811         163.448         25.1648 
        1.41389         160.818         24.5029 
        1.42964           158.5         23.8659 
        1.44531         156.498         23.2547 
        1.46101         153.375         22.6636 
        1.47667         152.243         22.0948 
        1.49229         149.735         21.5471 
        1.50793         147.224         21.0173 
        1.52367         145.624         20.5019 
        1.53953         142.345         20.0004 
        1.55526         141.972         19.5197 
        1.57092         139.845         19.0567 
        1.58662          136.48         18.6076 
        1.60235         135.077         18.1722 
        1.61809         132.818         17.7505 
        1.63369         131.192         17.3459 
        1.64941         130.184          16.951 
        1.66519         127.726          16.567 
        1.68085         125.637         16.1976 
        1.69652         124.278         15.8394 
        1.71228         123.028         15.4899 
        1.72806         121.082         15.1508 
        1.74368         119.328         14.8252 
        1.75933         118.225         14.5085 
        1.77505         115.846         14.1995 
        1.79081         114.495          13.899 
         1.8065         112.368         13.6085 
        1.82218          110.97         13.3266 
        1.83797         110.498         13.0507 
        1.85367         108.415         12.7841 
        1.86928         107.624         12.5266 
        1.88497         105.792         12.2747 
        1.90073         104.844         12.0289 
        1.91647         102.973         11.7899 
        1.93218         101.774          11.558 
        1.94787         100.188         11.3327 
        1.96363         99.3861         11.1125 
        1.97935         98.0831         10.8985 
        1.99499         97.1036         10.6914 
        2.01064          94.996         10.4894 
         2.0264         94.2553         10.2913 
        2.04216         92.3172         10.0985 
        2.05781         91.7297         9.91174 
        2.07353         90.3545         9.72908 
        2.08928         89.0185         9.55062 
        2.10499         87.9393          9.3771 
        2.12065         87.4928         9.20841 
        2.13633         86.3264         9.04373 
        2.15211         84.8921           8.882 
        2.16785         83.6373         8.72467 
        2.18349         82.4216         8.57214 
        2.19916         81.6108         8.42293 
        2.21489         80.4907         8.27677 
        2.23063         79.4242         8.13398 
         2.2463         78.8668         7.99519 
        2.26194         77.6223         7.85998 
        2.27765         76.7357          7.7272 
        2.29341         75.9292         7.59714 
        2.30914         74.9158         7.47034 
        2.32486         73.3981          7.3465 
        2.34061         72.9205         7.22525 
        2.35635          71.913         7.10685 
        2.37203         70.9181         6.99151 
        2.38768         70.1387         6.87896 
        2.40339         69.3961         6.76847 
        2.41914         68.3234         6.66015 
        2.43483         67.6657         6.55459 
         2.4505         66.6596         6.45148 
        2.46622         66.1098         6.35023 
        2.48195         65.2026         6.25115 
        2.49759         64.3102          6.1547 
        2.51328          63.578         6.06004 
        2.52906         62.5326         5.96676 
        2.54479         61.9355          5.8758 
        2.56049         61.2566          5.7869 
        2.57618         60.3058         5.69991 
        2.59189          59.949         5.61458 
        2.60758         59.0608         5.53113 
        2.62325         58.3635         5.44947 
        2.63898          57.687         5.36917 
        2.65468         57.1339         5.29066 
        2.67044         56.4899         5.21337 
        2.68618         55.7933         5.13781 
        2.70184         54.9755         5.06404 
        2.71755         54.3098         4.99154 
        2.73329         53.8463         4.92034 
        2.74897         53.3585         4.85075 
        2.76462         52.8606         4.78267 
        2.78034         52.1522         4.71561 
        2.79607         51.3183         4.64976 
        2.81179          50.739         4.58524 
        2.82749         50.3473         4.52201 
        2.84321         49.8733         4.45991 
        2.85893         49.2624         4.39898 
        2.87462         48.6255          4.3393 
        2.89033         48.0034         4.28067 
        2.90605         47.5171         4.22306 
        2.92176         46.9802         4.16655 
        2.93747         46.3014         4.11109 
        2.95318         46.0399         4.05663 
        2.96891         45.4144         4.00313 
        2.98456         44.9084         3.95083 
        3.00023         44.3018         3.89939 
        3.01596         43.9263         3.84869 
        3.03164         43.5243         3.79905 
        3.04738         43.0015         3.75013 
         3.0631         42.4107         3.70209 
        3.07883         41.9996         3.65488 
        3.09456         41.4662         3.60851 
        3.11026         41.0252           3.563 
        3.12596         40.6534         3.51829 
        3.14163         40.2021         3.47444 
        3.15734         39.7174         3.43124 
        3.17308          39.403         3.38867 
        3.18879         38.9997         3.34693 
        3.20447         38.5226         3.30596 
         3.2202         38.0763         3.26554 
         3.2359         37.7859         3.22587 
        3.25157         37.2849         3.18695 
        3.26729         36.9227         3.14855 
        3.28304         36.6046         3.11071 
        3.29877         36.0364         3.07354 
        3.31446         35.8032         3.03706 
        3.33014         35.4518          3.0012 
        3.34585         34.9392         2.96586 
        3.36158         34.6763         2.93103 
        3.37727          34.253         2.89688 
        3.39294           33.89         2.86329 
        3.40867         33.5883         2.83012 
        3.42439          33.195         2.79749 
        3.44008         32.9369         2.76544 
        3.45578         32.5048         2.73386 
        3.47153         32.2778         2.70271 
        3.48724         31.8287         2.67209 
        3.50292         31.5784         2.64202 
        3.51859         31.3421         2.61243 
        3.53431         31.0016         2.58319 
        3.55007         30.5454         2.55433 
        3.56577         30.4096         2.52602 
        3.58146         30.0881         2.49816 
        3.59719         29.6864         2.47065 
        3.61292         29.4679         2.44356 
        3.62859         29.1034         2.41698 
        3.64429          28.917         2.39074 
        3.66003         28.6008         2.36481 
        3.67578         28.3252         2.33927 
        3.69146         28.1209         2.31421 
        3.70712         27.7267         2.28955 
        3.72284         27.5038         2.26517 
        3.73853         27.3202         2.24118 
        3.75422         27.0075         2.21752 
        3.76993         26.7061         2.19419 
        3.78564         26.4986         2.17121 
        3.80137          26.268         2.14851 
        3.81707         25.9702         2.12618 
        3.83279         25.7325         2.10416 
        3.84853          25.497          2.0824 
        3.86424         25.1475           2.061 
        3.87992         24.9205         2.03993 
        3.89561         24.7783         2.01915 
        3.91134          24.564         1.99862 
        3.92704         24.2394          1.9784 
        3.94273         24.0114         1.95847 
        3.95845          23.865         1.93879 
        3.97418         23.5485         1.91936 
        3.98988          23.336         1.90023 
        4.00554         23.0991         1.88142 
        4.02125         22.9489          1.8628 
        4.03698         22.7777          1.8444 
        4.05268         22.4953          1.8263 
        4.06839         22.2751         1.80842 
         4.0841         22.1457         1.79079 
        4.09983         21.8432         1.77337 
        4.11555         21.6622         1.75618 
        4.13124         21.5329         1.73927 
        4.14693         21.2667         1.72257 
        4.16266         21.0684         1.70604 
        4.17839         21.0014         1.68975 
        4.19408         20.7089          1.6737 
        4.20977         20.5499         1.65785 
        4.22551          20.384         1.64217 
        4.24123         20.1702         1.62671 
        4.25691         19.9672         1.61149 
        4.27259         19.8241         1.59646 
        4.28831         19.6353         1.58159 
        4.30404         19.4574         1.56689 
        4.31974         19.2587         1.55241 
        4.33543         19.1338         1.53813 
        4.35116         18.9457         1.52398 
        4.36688          18.786         1.51002 
        4.38255         18.6239         1.49629 
        4.39825         18.4697          1.4827 
        4.41398         18.3079         1.46925 
         4.4297         18.1343         1.45598 
        4.44541         17.9226         1.44287 
        4.46111         17.8264         1.42994 
        4.47683         17.6226         1.41715 
        4.49251         17.5187         1.40455 
        4.50819         17.4026          1.3921 
         4.5239         17.2137         1.37979 
        4.53962         17.0917          1.3676 
        4.55535          16.911         1.35556 
        4.57106          16.823         1.34368 
        4.58678         16.6643         1.33195 
         4.6025         16.4539         1.32034 
        4.61821         16.3468         1.30888 
        4.63391         16.2258         1.29757 
         4.6496         16.0897         1.28639 
        4.66532         15.9482         1.27533 
        4.68103         15.8306         1.26441 
        4.69673         15.7045         1.25362 
        4.71241         15.6093         1.24297 
        4.72811         15.4577         1.23242 
        4.74384         15.2966         1.22198 
        4.75955         15.2054         1.21168 
        4.77525         15.0749         1.20151 
        4.79096          14.914         1.19143 
        4.80669          14.795         1.18147 
         4.8224         14.6632         1.17163 
        4.83809         14.5604         1.16192 
        4.85379         14.4625         1.15231 
         4.8695         14.3439         1.14279 
        4.88521         14.2195         1.13339 
        4.90093         14.1146          1.1241 
        4.91663         13.9772         1.11491 
        4.93234         13.8597         1.10582 
        4.94807         13.7729         1.09683 
        4.96377         13.6639         1.08795 
        4.97943         13.5298         1.07918 
        4.99514         13.4221          1.0705 
        5.01086         13.3594          1.0619 
        5.02654         13.2334         1.05341 
        5.04227         13.0933         1.04499 
          5.058         13.0419         1.03666 
        5.07371         12.8866         1.02844 
        5.08942         12.8343         1.02031 
        5.10513         12.7195         1.01226 
        5.12084         12.6135          1.0043 
        5.13656         12.5219        0.996418 
        5.15225         12.4111        0.988637 
        5.16796         12.2946        0.980927 
        5.18369          12.218        0.973292 
         5.1994         12.1223        0.965751 
        5.21509          12.027        0.958297 
        5.23079         11.9551        0.950913 
        5.24649         11.8661        0.943612 
        5.26217         11.7567        0.936393 
        5.27788         11.6497        0.929239 
        5.29359         11.5614        0.922157 
        5.30933         11.5127         0.91514 
        5.32504         11.4125        0.908207 
        5.34073         11.3111        0.901353 
        5.35646         11.2235        0.894555 
        5.37218         11.1264        0.887827 
        5.38789         11.0416        0.881178 
        5.40357         10.9814        0.874605 
        5.41929         10.9036        0.868084 
        5.43502          10.813        0.861628 
         5.4507           10.74        0.855254 
        5.46639         10.6295        0.848942 
        5.48212         10.5605         0.84268 
        5.49786         10.5069        0.836473 
        5.51353         10.4109        0.830359 
        5.52921         10.3598          0.8243 
        5.54495         10.2698        0.818283 
        5.56066         10.2019        0.812333 
        5.57637         10.1215        0.806443 
        5.59207         10.0422        0.800616 
        5.60778         9.95753        0.794844 
        5.62346         9.86118        0.789137 
        5.63916         9.81356        0.783481 
        5.65487         9.76477        0.777876 
         5.6706         9.68536         0.77232 
        5.68633         9.58647        0.766816 
        5.70203          9.5413        0.761377 
        5.71773         9.46357        0.755991 
        5.73344         9.40113        0.750654 
        5.74916         9.34753        0.745364 
        5.76486         9.28302        0.740132 
        5.78054         9.21954        0.734958 
        5.79626         9.15525        0.729819 
          5.812         9.05629        0.724723 
         5.8277         9.00303        0.719691 
        5.84339         8.93616        0.714707 
        5.85911         8.87921         0.70976 
        5.87484         8.81849        0.704861 
        5.89053         8.75047        0.700017 
        5.90623         8.68266        0.695217 
        5.92195         8.63231        0.690453 
        5.93767         8.58693        0.685736 
        5.95336         8.49977        0.681071 
        5.96905         8.44221        0.676451 
        5.98476         8.40243        0.671867 
        6.00048         8.34849        0.667324 
        6.01617         8.26238        0.662829 
        6.03185          8.2249        0.658381 
        6.04756         8.15238        0.653963 
        6.06331         8.11526        0.649576 
        6.07903         8.05169        0.645238 
        6.09473          7.9974        0.640943 
        6.11044         7.94613        0.636684 
        6.12616          7.8959        0.632464 
        6.14186         7.83027        0.628286 
        6.15755         7.78613        0.624146 
        6.17326         7.73254         0.62004 
        6.18898         7.66916        0.615969 
        6.20467         7.61475        0.611942 
        6.22036         7.56756        0.607951 
         6.2361         7.52431        0.603985 
         6.2518         7.48027         0.60006 
        6.26748         7.42033        0.596179 
        6.28319          7.3812        0.592321 
        6.29893         7.33367        0.588494 
        6.31463         7.27193        0.584707 
        6.33033         7.22059        0.580955 
        6.34604         7.18301        0.577233 
        6.36177          7.1274        0.573539 
        6.37747         7.07447        0.569885 
