#  k  (h/Mpc)          P(k)  (Mpc/h)^3     P_linear(k) (Mpc/h)^3
      0.0200456           32581         33193.4 
      0.0350414           24406         23527.3 
      0.0492313         16501.3         17018.8 
      0.0637834         13131.8           13951 
      0.0800726         10050.4           10773 
       0.096163         8199.43         7770.11 
       0.111083         6702.45         6264.06 
       0.126058         5512.54         5500.63 
       0.142273         4810.76         4533.72 
       0.158546         3923.19         3569.34 
        0.17375          3583.7         3052.53 
       0.188953         3454.14         2746.71 
       0.204907         2955.45         2374.59 
       0.220756         2695.58         1999.26 
        0.23588         2409.77         1759.72 
         0.2514         2202.49         1596.45 
       0.267535          2102.8         1420.84 
       0.283568         1903.67          1244.8 
       0.299022         1801.22         1116.21 
       0.314451         1878.24          1020.8 
       0.330372         1711.99          927.09 
       0.346141         1581.22         835.977 
       0.361624         1506.94         761.362 
       0.377134         1465.57         701.055 
       0.392932         1368.32          645.21 
       0.408854         1331.66         591.601 
       0.424564         1301.37         544.897 
       0.440253         1233.64         505.184 
       0.455999         1174.17         469.256 
       0.471626         1173.83         435.943 
        0.48727         1116.89         405.723 
       0.502856         1102.99         378.996 
       0.518488         1048.94         354.731 
       0.534347         1022.63         331.978 
       0.550082         988.133         311.234 
       0.565732         957.933         292.505 
       0.581496         936.225         275.262 
       0.597222         926.976         259.369 
       0.612804         895.945         244.803 
       0.628434         866.148         231.329 
       0.644267         846.566         218.753 
       0.660051         830.301         207.146 
       0.675724         818.272         196.441 
       0.691403         782.756         186.478 
       0.707174         768.211         177.146 
       0.722871         768.085         168.485 
        0.73838         734.341         160.492 
       0.754018         731.232         152.953 
       0.769845          710.64         145.814 
        0.78569          694.86         139.121 
       0.801365         679.156         132.912 
       0.817031         665.931         127.085 
       0.832809         653.802         121.569 
       0.848511         631.266         116.405 
       0.864097         626.246         111.576 
       0.879701          624.34         107.015 
       0.895507         608.284         102.655 
       0.911279         601.271         98.5458 
        0.92691         588.337         94.6952 
       0.942635         575.036         91.0286 
       0.958396         569.397         87.5477 
       0.974128         553.231         84.2547 
       0.989692         547.758          81.163 
        1.00528         533.398         78.2213 
        1.02113         522.468         75.3789 
        1.03692         514.994         72.6878 
        1.05264         508.035         70.1399 
        1.06832         500.018         67.7177 
        1.08405         492.539         65.4029 
        1.09979         480.931         63.1947 
        1.11537         469.073         61.1098 
        1.13105         463.412         59.1062 
        1.14679         457.301         57.1844 
        1.16256         450.017          55.344 
        1.17828         444.304         53.5903 
        1.19395         435.496         51.9182 
         1.2097         424.747         50.3087 
        1.22537         419.363         48.7749 
          1.241         411.639         47.3094 
        1.25666         402.066         45.9002 
        1.27241         400.847         44.5416 
        1.28819         393.306         43.2355 
        1.30392         387.074         41.9854 
        1.31957          378.41           40.79 
        1.33529         374.672         39.6366 
        1.35108         373.253         38.5231 
        1.36674         364.627         37.4601 
         1.3824         357.571          36.438 
        1.39811         353.182         35.4505 
        1.41389         349.641         34.4957 
        1.42964         339.867         33.5775 
        1.44531         337.693         32.6971 
        1.46101         328.563         31.8462 
        1.47667         324.674          31.028 
        1.49229         322.601         30.2405 
        1.50793         312.618         29.4795 
        1.52367         311.667         28.7395 
        1.53953          304.88         28.0199 
        1.55526         298.504         27.3306 
        1.57092          295.79         26.6672 
        1.58662         292.188         26.0241 
        1.60235         286.957         25.4009 
        1.61809         281.312         24.7977 
        1.63369         277.226         24.2193 
        1.64941         274.466         23.6552 
        1.66519         270.329         23.1069 
        1.68085          263.78         22.5798 
        1.69652         261.048         22.0689 
        1.71228         257.672         21.5708 
        1.72806         252.582         21.0876 
        1.74368         249.492          20.624 
        1.75933         247.435         20.1733 
        1.77505         242.955          19.734 
        1.79081         240.037         19.3068 
         1.8065         236.976         18.8941 
        1.82218         231.335         18.4937 
        1.83797         229.547         18.1021 
        1.85367          225.39          17.724 
        1.86928         222.402         17.3588 
        1.88497         219.626         17.0019 
        1.90073         215.843         16.6537 
        1.91647         213.231         16.3155 
        1.93218          209.83         15.9873 
        1.94787         207.142         15.6686 
        1.96363          205.38         15.3573 
        1.97935         198.887          15.055 
        1.99499         198.533         14.7625 
        2.01064         194.954         14.4773 
         2.0264         192.518         14.1978 
        2.04216         190.278         13.9258 
        2.05781         186.902         13.6626 
        2.07353         185.056         13.4052 
        2.08928          182.04         13.1539 
        2.10499         180.329         12.9096 
        2.12065         177.105         12.6722 
        2.13633         174.643         12.4406 
        2.15211          172.92         12.2132 
        2.16785         170.764         11.9921 
        2.18349         167.233         11.7778 
        2.19916         166.258         11.5683 
        2.21489         163.806         11.3631 
        2.23063         161.025         11.1628 
         2.2463         158.823         10.9681 
        2.26194         156.526         10.7786 
        2.27765         155.147         10.5925 
        2.29341         153.237         10.4103 
        2.30914         151.288         10.2328 
        2.32486         149.704         10.0594 
        2.34061         146.571          9.8898 
        2.35635         144.967          9.7242 
        2.37203         144.494         9.56294 
        2.38768         141.796         9.40566 
        2.40339         139.387         9.25131 
        2.41914          138.62         9.10005 
        2.43483         136.048         8.95269 
         2.4505         134.866         8.80881 
        2.46622         133.226         8.66758 
        2.48195          131.25         8.52942 
        2.49759         129.793         8.39499 
        2.51328         127.751         8.26309 
        2.52906         126.147         8.13317 
        2.54479         124.971          8.0065 
        2.56049         122.929         7.88277 
        2.57618         122.016         7.76174 
        2.59189         120.555         7.64305 
        2.60758         119.342         7.52701 
        2.62325         117.399         7.41351 
        2.63898         116.088         7.30194 
        2.65468         114.643         7.19288 
        2.67044         113.501         7.08557 
        2.68618         112.147         6.98068 
        2.70184         110.836         6.87832 
        2.71755         109.242         6.77774 
        2.73329         108.409         6.67901 
        2.74897         106.869         6.58255 
        2.76462         105.578          6.4882 
        2.78034         104.252         6.39529 
        2.79607         103.145         6.30409 
        2.81179         101.528         6.21477 
        2.82749         100.641         6.12726 
        2.84321         99.4322         6.04133 
        2.85893         98.4754         5.95706 
        2.87462         96.8519         5.87454 
        2.89033         96.0744         5.79349 
        2.90605         94.6618         5.71388 
        2.92176         93.9919         5.63581 
        2.93747         92.5969         5.55922 
        2.95318          91.667         5.48403 
        2.96891          90.486         5.41019 
        2.98456         89.8957         5.33802 
        3.00023         88.5873         5.26706 
        3.01596         87.5768         5.19716 
        3.03164         86.7765         5.12871 
        3.04738         85.8953         5.06129 
         3.0631         84.8752          4.9951 
        3.07883         84.2102         4.93008 
        3.09456         83.3416         4.86622 
        3.11026          82.178         4.80358 
        3.12596         81.3008         4.74204 
        3.14163         80.2916         4.68172 
        3.15734         79.1645         4.62229 
        3.17308         78.6132         4.56375 
        3.18879         77.2507         4.50637 
        3.20447          76.753         4.45006 
         3.2202          75.942         4.39453 
         3.2359         75.2994         4.34003 
        3.25157         74.4571         4.28659 
        3.26729         73.6605         4.23388 
        3.28304         73.0902         4.18194 
        3.29877         72.1622         4.13094 
        3.31446         71.1898         4.08089 
        3.33014         70.8943         4.03171 
        3.34585         69.9061         3.98326 
        3.36158         69.0846         3.93552 
        3.37727         68.4669         3.88872 
        3.39294         67.6801         3.84271 
        3.40867         67.0178         3.79728 
        3.42439         66.3334          3.7526 
        3.44008         65.6524         3.70872 
        3.45578         65.0227          3.6655 
        3.47153         64.3556         3.62287 
        3.48724          63.465         3.58099 
        3.50292         63.0912         3.53987 
        3.51859          62.516         3.49941 
        3.53431         61.7131         3.45944 
        3.55007         61.1498         3.42001 
        3.56577         60.7179         3.38133 
        3.58146         59.7396         3.34327 
        3.59719         59.3719          3.3057 
        3.61292         58.7255         3.26871 
        3.62859         58.2359         3.23243 
        3.64429         57.6335         3.19663 
        3.66003         57.0464         3.16125 
        3.67578         56.2859         3.12642 
        3.69146         55.8199         3.09224 
        3.70712         55.4624         3.05863 
        3.72284         54.8098         3.02539 
        3.73853         54.0836          2.9927 
        3.75422         53.7186         2.96047 
        3.76993         53.1171         2.92869 
        3.78564         52.6006         2.89739 
        3.80137          52.129         2.86649 
        3.81707         51.6078          2.8361 
        3.83279         51.2463         2.80612 
        3.84853          50.772         2.77653 
        3.86424         50.3381         2.74742 
        3.87992         49.7452         2.71876 
        3.89561          49.363         2.69051 
        3.91134         48.8346          2.6626 
        3.92704         48.3622         2.63511 
        3.94273         47.7883         2.60804 
        3.95845         47.4058         2.58129 
        3.97418         46.8456         2.55492 
        3.98988         46.5635         2.52894 
        4.00554         46.0797         2.50339 
        4.02125         45.6145         2.47812 
        4.03698         45.2768         2.45316 
        4.05268         44.8977         2.42859 
        4.06839         44.4281         2.40434 
         4.0841         44.1108         2.38043 
        4.09983         43.6787         2.35681 
        4.11555         43.2613         2.33351 
        4.13124         42.8956         2.31059 
        4.14693         42.4075         2.28795 
        4.16266         42.0598         2.26557 
        4.17839         41.6687          2.2435 
        4.19408         41.3491         2.22176 
        4.20977         40.8574         2.20031 
        4.22551         40.5222         2.17908 
        4.24123         40.1311         2.15815 
        4.25691         39.8045         2.13756 
        4.27259         39.5313         2.11722 
        4.28831         39.0597         2.09711 
        4.30404         38.7422         2.07723 
        4.31974          38.468         2.05766 
        4.33543         38.1592         2.03834 
        4.35116          37.666         2.01923 
        4.36688          37.387         2.00036 
        4.38255          37.075         1.98181 
        4.39825         36.8099         1.96345 
        4.41398         36.3929         1.94528 
         4.4297         36.1274         1.92736 
        4.44541         35.8719         1.90967 
        4.46111         35.3918         1.89221 
        4.47683         35.1232         1.87496 
        4.49251         34.7558         1.85795 
        4.50819         34.5165         1.84116 
         4.5239         34.2856         1.82455 
        4.53962          34.094         1.80812 
        4.55535         33.7049         1.79189 
        4.57106         33.4125         1.77587 
        4.58678         33.0279         1.76005 
         4.6025         32.8363         1.74442 
        4.61821         32.4847         1.72897 
        4.63391         32.2417         1.71373 
         4.6496          31.988         1.69868 
        4.66532         31.6902         1.68379 
        4.68103         31.4278         1.66908 
        4.69673         31.1622         1.65456 
        4.71241         30.9206         1.64022 
        4.72811         30.6134         1.62603 
        4.74384         30.3557         1.61199 
        4.75955         30.2581         1.59813 
        4.77525         29.8551         1.58445 
        4.79096         29.6235          1.5709 
        4.80669         29.3968         1.55751 
         4.8224         29.1471         1.54429 
        4.83809         28.9504         1.53123 
        4.85379         28.6497         1.51831 
         4.8695         28.4991         1.50553 
        4.88521         28.1596         1.49291 
        4.90093         27.9764         1.48042 
        4.91663         27.7563         1.46809 
        4.93234         27.5068         1.45589 
        4.94807         27.3029         1.44381 
        4.96377         27.1198         1.43189 
        4.97943         26.8873         1.42013 
        4.99514         26.6366         1.40847 
        5.01086         26.3824         1.39694 
        5.02654         26.1728         1.38556 
        5.04227         25.9753         1.37427 
          5.058         25.7414          1.3631 
        5.07371         25.5337         1.35208 
        5.08942         25.3796         1.34118 
        5.10513          25.175         1.33039 
        5.12084         24.9876         1.31972 
        5.13656          24.737         1.30917 
        5.15225         24.5983         1.29874 
        5.16796         24.3374         1.28842 
        5.18369         24.1807         1.27819 
         5.1994         23.9507          1.2681 
        5.21509         23.7781         1.25812 
        5.23079         23.5562         1.24824 
        5.24649         23.4073         1.23847 
        5.26217           23.25         1.22881 
        5.27788         23.0999         1.21924 
        5.29359         22.8936         1.20977 
        5.30933         22.6788         1.20038 
        5.32504         22.5447         1.19111 
        5.34073         22.3323         1.18195 
        5.35646         22.0826         1.17286 
        5.37218         21.9632         1.16387 
        5.38789         21.7993         1.15498 
        5.40357         21.7123          1.1462 
        5.41929         21.5299         1.13749 
        5.43502         21.3096         1.12886 
         5.4507         21.1026         1.12035 
        5.46639         20.9854         1.11192 
        5.48212          20.854         1.10356 
        5.49786         20.6825         1.09528 
        5.51353         20.5198         1.08712 
        5.52921         20.3719         1.07903 
        5.54495         20.2385           1.071 
        5.56066          20.061         1.06306 
        5.57637           19.88         1.05521 
        5.59207         19.7449         1.04743 
        5.60778         19.6131         1.03974 
        5.62346         19.4306         1.03213 
        5.63916         19.2782         1.02459 
        5.65487         19.1476         1.01712 
         5.6706         19.0264         1.00971 
        5.68633          18.844         1.00238 
        5.70203         18.7413         0.99513 
        5.71773         18.5926        0.987955 
        5.73344         18.4523        0.980846 
        5.74916         18.3292        0.973801 
        5.76486         18.1688        0.966833 
        5.78054         18.0644        0.959944 
        5.79626         17.8925        0.953103 
          5.812          17.809        0.946321 
         5.8277         17.6477        0.939624 
        5.84339         17.5093        0.932991 
        5.85911         17.3687        0.926409 
        5.87484         17.2553        0.919891 
        5.89053         17.1936        0.913449 
        5.90623          16.999        0.907065 
        5.92195           16.86         0.90073 
        5.93767         16.7461        0.894459 
        5.95336         16.6169        0.888257 
        5.96905         16.4952        0.882116 
        5.98476           16.39        0.876024 
        6.00048         16.2472        0.869987 
        6.01617           16.15        0.864014 
        6.03185          16.047        0.858105 
        6.04756         15.9062        0.852236 
        6.06331         15.8107        0.846409 
        6.07903         15.7012        0.840649 
        6.09473         15.5624        0.834947 
        6.11044         15.4387        0.829292 
        6.12616         15.3629         0.82369 
        6.14186         15.2393        0.818145 
        6.15755         15.1466        0.812652 
        6.17326         15.0084        0.807204 
        6.18898         14.9234        0.801803 
        6.20467         14.7942         0.79646 
        6.22036         14.7191        0.791166 
         6.2361         14.5907        0.785906 
         6.2518         14.5154        0.780702 
        6.26748         14.3379        0.775556 
        6.28319         14.2902        0.770442 
        6.29893         14.1782        0.765369 
        6.31463         14.0653         0.76035 
        6.33033         13.9947        0.755378 
        6.34604         13.8999        0.750446 
        6.36177         13.7968        0.745553 
        6.37747         13.6925        0.740712 
