# k  (h/Mpc)    Pcb(k)  (Mpc/h)^3    Pcb_linear(k) (Mpc/h)^3   ShotnoiseSubtracted = true
      0.0200456         16393.7         16634.9 
      0.0350414         10996.4         10590.9 
      0.0492313         7255.63         7311.18 
      0.0637834         5835.26         6063.74 
      0.0800726         4380.92         4558.79 
       0.096163         3312.48         3117.39 
       0.111083         2707.03         2525.18 
       0.126058         2266.58         2267.61 
       0.142273         1893.18         1820.96 
       0.158546         1517.59         1389.92 
        0.17375         1347.47          1206.8 
       0.188953         1260.34         1100.72 
       0.204907         1054.44         933.542 
       0.220756         938.258          772.69 
        0.23588         837.647         687.609 
         0.2514         747.721         629.017 
       0.267535         719.495         553.168 
       0.283568         626.031         480.315 
       0.299022          595.98         433.314 
       0.314451         607.382         398.103 
       0.330372          518.58         359.285 
       0.346141         477.624         322.359 
       0.361624          455.11         294.417 
       0.377134         427.995         271.801 
       0.392932         410.353         249.416 
       0.408854         391.239         228.039 
       0.424564         377.962         210.302 
       0.440253          342.12         195.228 
       0.455999         326.108         181.127 
       0.471626         328.568         168.051 
        0.48727         308.995         156.435 
       0.502856         285.972         146.242 
       0.518488         284.653         136.833 
       0.534347          266.05         127.972 
       0.550082         255.376         119.985 
       0.565732         254.016         112.806 
       0.581496          241.81         106.158 
       0.597222         234.404         100.013 
       0.612804         226.876         94.3948 
       0.628434         219.178         89.2228 
       0.644267         209.161         84.3865 
       0.660051         206.395         79.9167 
       0.675724         201.766         75.7942 
       0.691403         197.288         71.9579 
       0.707174         189.467         68.3648 
       0.722871         185.896         65.0305 
        0.73838         183.843         61.9538 
       0.754018         175.306         59.0527 
       0.769845         175.079         56.3058 
        0.78569         169.199         53.7313 
       0.801365         163.888         51.3434 
       0.817031         161.741         49.1026 
       0.832809         157.988         46.9817 
       0.848511         153.925         44.9958 
       0.864097         149.751         43.1385 
       0.879701         149.002         41.3845 
       0.895507         145.497         39.7075 
       0.911279         141.269          38.127 
        0.92691         138.365         36.6457 
       0.942635         136.778         35.2351 
       0.958396         133.916         33.8957 
       0.974128         131.569         32.6284 
       0.989692         127.023         31.4385 
        1.00528         126.497         30.3062 
        1.02113         123.624         29.2119 
        1.03692         121.393         28.1758 
        1.05264         119.385         27.1947 
        1.06832          118.06          26.262 
        1.08405         115.103         25.3705 
        1.09979         114.082         24.5199 
        1.11537         111.932         23.7168 
        1.13105         110.051         22.9449 
        1.14679          108.55         22.2044 
        1.16256         106.156         21.4952 
        1.17828         105.109         20.8193 
        1.19395         102.846         20.1748 
         1.2097         101.514         19.5543 
        1.22537          100.46         18.9629 
          1.241         98.1501         18.3978 
        1.25666         96.6627         17.8544 
        1.27241         94.5623         17.3303 
        1.28819         93.8575         16.8264 
        1.30392         92.5476          16.344 
        1.31957         90.7185         15.8827 
        1.33529         89.3238         15.4375 
        1.35108         88.4141         15.0076 
        1.36674         86.9605         14.5971 
         1.3824          86.144         14.2024 
        1.39811         84.6288          13.821 
        1.41389         83.3815         13.4521 
        1.42964         81.8368         13.0973 
        1.44531         81.1731          12.757 
        1.46101         79.7216         12.4281 
        1.47667         79.2377         12.1118 
        1.49229         78.2054         11.8073 
        1.50793         76.7926         11.5129 
        1.52367         75.8187         11.2267 
        1.53953         75.0964         10.9483 
        1.55526         73.8827         10.6815 
        1.57092         73.2193         10.4248 
        1.58662         72.1446         10.1758 
        1.60235         71.2407         9.93455 
        1.61809         70.2529         9.70095 
        1.63369         69.2092         9.47693 
        1.64941          69.073         9.25839 
        1.66519         67.7258         9.04594 
        1.68085         66.5027         8.84167 
        1.69652         65.6465         8.64364 
        1.71228         64.8049         8.45055 
        1.72806         64.5441          8.2632 
        1.74368         63.2137          8.0834 
        1.75933         62.6655          7.9086 
        1.77505         62.1549         7.73814 
        1.79081         60.9466          7.5724 
         1.8065         60.2786         7.41222 
        1.82218         59.6237         7.25681 
        1.83797         59.0177         7.10479 
        1.85367         58.0769         6.95795 
        1.86928          57.471         6.81615 
        1.88497         56.7928         6.67752 
        1.90073         56.1701         6.54224 
        1.91647         55.4575         6.41081 
        1.93218         54.6634         6.28328 
        1.94787         54.0404         6.15939 
        1.96363         53.3495         6.03835 
        1.97935         52.9274         5.92081 
        1.99499         52.2549         5.80706 
        2.01064         51.5727         5.69613 
         2.0264         50.9801          5.5874 
        2.04216         50.2964         5.48155 
        2.05781         49.6787         5.37912 
        2.07353         49.1579         5.27893 
        2.08928          48.725         5.18107 
        2.10499         47.9284         5.08595 
        2.12065         47.6715          4.9935 
        2.13633         46.9695         4.90326 
        2.15211         46.3887         4.81467 
        2.16785         45.6191         4.72852 
        2.18349         45.2663         4.64501 
        2.19916         44.7915         4.56333 
        2.21489         44.2464         4.48335 
        2.23063         43.7377         4.40523 
         2.2463         43.3131         4.32931 
        2.26194         43.0007         4.25538 
        2.27765         42.3448         4.18278 
        2.29341         41.8799         4.11169 
        2.30914         41.1917          4.0424 
        2.32486         40.9239         3.97474 
        2.34061         40.4619         3.90851 
        2.35635         40.0304         3.84385 
        2.37203         39.3093         3.78087 
        2.38768         39.1597         3.71943 
        2.40339         38.7054         3.65913 
        2.41914         38.0758         3.60002 
        2.43483         37.8519         3.54243 
         2.4505         37.5421         3.48619 
        2.46622         37.0082         3.43098 
        2.48195         36.5162         3.37695 
        2.49759         36.1364         3.32438 
        2.51328         35.7682         3.27279 
        2.52906         35.4734         3.22196 
        2.54479         35.1114          3.1724 
        2.56049         34.4308         3.12397 
        2.57618         34.1718          3.0766 
        2.59189         33.9578         3.03014 
        2.60758         33.3663          2.9847 
        2.62325         33.1663         2.94026 
        2.63898         32.9008         2.89656 
        2.65468         32.4932         2.85383 
        2.67044         32.2713         2.81179 
        2.68618         31.9045         2.77069 
        2.70184         31.3711         2.73057 
        2.71755         31.1118         2.69114 
        2.73329         30.7248         2.65243 
        2.74897         30.5302         2.61461 
        2.76462         30.1863         2.57761 
        2.78034         29.8175         2.54117 
        2.79607         29.4039         2.50539 
        2.81179         29.1443         2.47034 
        2.82749         28.8775           2.436 
        2.84321         28.5856         2.40227 
        2.85893         28.2277         2.36919 
        2.87462         27.9019         2.33679 
        2.89033         27.6878         2.30497 
        2.90605         27.3742          2.2737 
        2.92176         27.1657         2.24303 
        2.93747         26.9007         2.21295 
        2.95318         26.6565          2.1834 
        2.96891         26.3009         2.15438 
        2.98456         26.1474         2.12602 
        3.00023          25.924         2.09812 
        3.01596         25.5307         2.07064 
        3.03164         25.2704         2.04372 
        3.04738         25.0285         2.01721 
         3.0631          24.856         1.99117 
        3.07883         24.4959         1.96559 
        3.09456         24.2635         1.94046 
        3.11026         23.9449         1.91581 
        3.12596         23.7802         1.89159 
        3.14163         23.5444         1.86785 
        3.15734         23.3489         1.84445 
        3.17308         23.0903          1.8214 
        3.18879         22.8395          1.7988 
        3.20447         22.5444         1.77662 
         3.2202         22.4068         1.75475 
         3.2359         22.1994         1.73328 
        3.25157          21.974         1.71221 
        3.26729         21.7539         1.69144 
        3.28304         21.4709         1.67097 
        3.29877         21.2707         1.65086 
        3.31446         21.0632         1.63113 
        3.33014         20.8653         1.61173 
        3.34585         20.7097         1.59262 
        3.36158         20.5102         1.57379 
        3.37727         20.2925         1.55533 
        3.39294         20.0695         1.53717 
        3.40867         19.8909         1.51924 
        3.42439         19.7444         1.50161 
        3.44008         19.5578         1.48429 
        3.45578         19.3713         1.46723 
        3.47153         19.1623         1.45039 
        3.48724         18.9823         1.43386 
        3.50292         18.8057         1.41761 
        3.51859         18.6385         1.40163 
        3.53431         18.4178         1.38584 
        3.55007         18.2398         1.37026 
        3.56577         18.0852         1.35497 
        3.58146         17.9149         1.33993 
        3.59719         17.7571         1.32508 
        3.61292         17.6374         1.31045 
        3.62859         17.4021         1.29611 
        3.64429         17.1908         1.28195 
        3.66003         17.1245         1.26796 
        3.67578         16.9129         1.25418 
        3.69146         16.8169         1.24065 
        3.70712         16.6066         1.22735 
        3.72284         16.5008          1.2142 
        3.73853         16.3831         1.20126 
        3.75422         16.1638         1.18851 
        3.76993         16.0075         1.17592 
        3.78564          15.864         1.16353 
        3.80137         15.7247         1.15129 
        3.81707         15.5514         1.13926 
        3.83279         15.4297         1.12738 
        3.84853         15.2997         1.11566 
        3.86424         15.1678         1.10412 
        3.87992         15.0054         1.09277 
        3.89561         14.9161         1.08157 
        3.91134         14.7523         1.07051 
        3.92704         14.6024         1.05961 
        3.94273         14.4852         1.04888 
        3.95845         14.3517         1.03827 
        3.97418         14.2158         1.02781 
        3.98988         14.1104         1.01751 
        4.00554         13.9921         1.00737 
        4.02125         13.8443        0.997345 
        4.03698         13.7013        0.987439 
        4.05268         13.5705        0.977691 
        4.06839         13.4811        0.968066 
         4.0841         13.3582        0.958573 
        4.09983         13.2291        0.949195 
        4.11555         13.1315        0.939945 
        4.13124         13.0157        0.930843 
        4.14693         12.9221        0.921854 
        4.16266         12.7984        0.912962 
        4.17839         12.6791        0.904193 
        4.19408          12.578        0.895559 
        4.20977         12.4759        0.887033 
        4.22551         12.3476        0.878597 
        4.24123         12.2242         0.87028 
        4.25691         12.1025        0.862093 
        4.27259         12.0369        0.854007 
        4.28831         11.9581         0.84601 
        4.30404         11.8506        0.838106 
        4.31974         11.7384        0.830321 
        4.33543         11.6545        0.822639 
        4.35116         11.5409        0.815035 
        4.36688         11.4357         0.80753 
        4.38255         11.3508        0.800147 
        4.39825         11.2244         0.79284 
        4.41398         11.1506        0.785609 
         4.4297         11.0217        0.778477 
        4.44541         10.9416        0.771433 
        4.46111         10.8653        0.764483 
        4.47683         10.7775        0.757612 
        4.49251         10.6964         0.75084 
        4.50819         10.6009        0.744151 
         4.5239         10.5097        0.737535 
        4.53962         10.4156        0.730991 
        4.55535         10.3589        0.724522 
        4.57106         10.2549        0.718141 
        4.58678         10.1826        0.711835 
         4.6025         10.1014        0.705604 
        4.61821         10.0157        0.699447 
        4.63391         9.92266        0.693372 
         4.6496         9.83787        0.687371 
        4.66532          9.7806        0.681432 
        4.68103         9.69437        0.675566 
        4.69673         9.60733        0.669774 
        4.71241         9.52571        0.664055 
        4.72811         9.45798        0.658393 
        4.74384         9.38339        0.652791 
        4.75955         9.29917        0.647261 
        4.77525         9.23358        0.641799 
        4.79096         9.16444        0.636393 
        4.80669         9.09763        0.631046 
         4.8224         9.02425        0.625767 
        4.83809         8.94729        0.620553 
        4.85379         8.87975        0.615395 
         4.8695         8.80122        0.610292 
        4.88521         8.72989        0.605249 
        4.90093         8.66885        0.600262 
        4.91663         8.59565        0.595335 
        4.93234          8.5365        0.590458 
        4.94807         8.47446        0.585632 
        4.96377         8.39212        0.580869 
        4.97943         8.32955        0.576169 
        4.99514         8.26646        0.571509 
        5.01086         8.19259        0.566897 
        5.02654         8.15658        0.562347 
        5.04227         8.07365        0.557833 
          5.058         8.01176        0.553367 
        5.07371         7.95409        0.548958 
        5.08942         7.89691        0.544597 
        5.10513         7.83905        0.540282 
        5.12084         7.78695        0.536012 
        5.13656         7.71639        0.531789 
        5.15225         7.66256        0.527618 
        5.16796         7.59811        0.523485 
        5.18369         7.55912        0.519393 
         5.1994         7.48375        0.515351 
        5.21509         7.40966        0.511356 
        5.23079         7.37272        0.507399 
        5.24649         7.31693        0.503487 
        5.26217         7.26942        0.499618 
        5.27788         7.20613        0.495784 
        5.29359         7.17096         0.49199 
        5.30933         7.10608         0.48823 
        5.32504         7.05861        0.484515 
        5.34073         7.00399        0.480843 
        5.35646         6.94012        0.477202 
        5.37218         6.90405        0.473598 
        5.38789           6.857        0.470036 
        5.40357         6.82221        0.466515 
        5.41929         6.77332        0.463022 
        5.43502         6.71009        0.459565 
         5.4507         6.65697        0.456151 
        5.46639         6.60094        0.452771 
        5.48212         6.56367        0.449417 
        5.49786         6.52241        0.446093 
        5.51353         6.46735        0.442819 
        5.52921         6.42834        0.439575 
        5.54495          6.3722        0.436353 
        5.56066         6.32516        0.433168 
        5.57637         6.28163        0.430014 
        5.59207         6.24357        0.426895 
        5.60778          6.1887        0.423805 
        5.62346         6.15165         0.42075 
        5.63916         6.11291        0.417722 
        5.65487         6.07621        0.414722 
         5.6706         6.02753        0.411748 
        5.68633         5.98736        0.408802 
        5.70203         5.94163        0.405891 
        5.71773         5.89765        0.403008 
        5.73344         5.86367        0.400152 
        5.74916         5.81821        0.397321 
        5.76486         5.77983        0.394522 
        5.78054         5.75338        0.391753 
        5.79626         5.70932        0.389003 
          5.812         5.66109        0.386277 
         5.8277         5.63241        0.383584 
        5.84339         5.58063        0.380918 
        5.85911         5.54433        0.378271 
        5.87484          5.5102         0.37565 
        5.89053         5.47506        0.373059 
        5.90623         5.43977        0.370491 
        5.92195         5.40375        0.367943 
        5.93767         5.35086         0.36542 
        5.95336         5.32656        0.362925 
        5.96905         5.29251        0.360454 
        5.98476            5.26        0.358002 
        6.00048         5.21935        0.355572 
        6.01617         5.17837        0.353168 
        6.03185         5.14803         0.35079 
        6.04756         5.12528        0.348427 
        6.06331         5.08389        0.346081 
        6.07903         5.04276        0.343761 
        6.09473          5.0152        0.341465 
        6.11044         4.98262        0.339188 
        6.12616         4.95366        0.336932 
        6.14186         4.91341        0.334698 
        6.15755         4.88667        0.332485 
        6.17326          4.8536         0.33029 
        6.18898         4.82613        0.328114 
        6.20467         4.78701        0.325961 
        6.22036         4.76166        0.323827 
         6.2361         4.72639        0.321707 
         6.2518         4.69926        0.319609 
        6.26748         4.66833        0.317535 
        6.28319         4.63428        0.315473 
        6.29893         4.61235        0.313428 
        6.31463         4.58208        0.311404 
        6.33033         4.55247        0.309399 
        6.34604         4.52285        0.307409 
        6.36177         4.49072        0.305436 
        6.37747         4.46608        0.303483 
