# k  (h/Mpc)    Pcb(k)  (Mpc/h)^3    Pcb_linear(k) (Mpc/h)^3   ShotnoiseSubtracted = true
      0.0200456         4537.16         4593.13 
      0.0350414          3000.5         2924.29 
      0.0492313         2023.14         2018.72 
      0.0637834         1639.26         1674.28 
      0.0800726         1233.07         1258.74 
       0.096163         891.509         860.755 
       0.111083         725.472         697.235 
       0.126058         622.236         626.118 
       0.142273         505.147         502.792 
       0.158546         398.156         383.777 
        0.17375         349.159         333.213 
       0.188953         317.924         303.924 
       0.204907         262.257         257.764 
       0.220756          228.11          213.35 
        0.23588         202.677         189.858 
         0.2514         182.919          173.68 
       0.267535         168.306         152.737 
       0.283568         145.419         132.621 
       0.299022         135.144         119.644 
       0.314451         128.808         109.922 
       0.330372         112.664         99.2035 
       0.346141          102.66         89.0078 
       0.361624         95.0946         81.2925 
       0.377134         86.8572          75.048 
       0.392932         83.5729          68.867 
       0.408854         77.1849         62.9645 
       0.424564         73.2485         58.0673 
       0.440253          66.677         53.9051 
       0.455999          60.847         50.0116 
       0.471626         58.1016         46.4013 
        0.48727         56.0833         43.1939 
       0.502856         51.8634         40.3795 
       0.518488         49.2681         37.7813 
       0.534347         46.2815         35.3349 
       0.550082         44.5695         33.1294 
       0.565732         42.9049         31.1473 
       0.581496         39.7427         29.3116 
       0.597222         38.0017         27.6149 
       0.612804         36.2491         26.0637 
       0.628434         35.5434         24.6356 
       0.644267         33.5198         23.3002 
       0.660051         32.0143         22.0661 
       0.675724         30.6311         20.9278 
       0.691403         29.9806         19.8686 
       0.707174         28.7434         18.8764 
       0.722871           27.84         17.9558 
        0.73838         26.4592         17.1063 
       0.754018          24.952         16.3052 
       0.769845         24.5255         15.5468 
        0.78569         23.6614         14.8359 
       0.801365          22.835         14.1766 
       0.817031         21.8725         13.5579 
       0.832809         21.3681         12.9723 
       0.848511         20.6409          12.424 
       0.864097         20.0527         11.9111 
       0.879701          19.664         11.4268 
       0.895507         18.8803         10.9638 
       0.911279         18.1727         10.5274 
        0.92691          17.851         10.1184 
       0.942635         17.3897         9.72888 
       0.958396          16.883         9.35906 
       0.974128         16.4218         9.00916 
       0.989692          15.671         8.68059 
        1.00528         15.5274         8.36794 
        1.02113         15.0344         8.06581 
        1.03692         14.7214         7.77972 
        1.05264         14.3977         7.50884 
        1.06832         14.0875         7.25128 
        1.08405          13.663         7.00514 
        1.09979         13.3983         6.77029 
        1.11537         12.9643         6.54853 
        1.13105         12.7871          6.3354 
        1.14679         12.4415         6.13094 
        1.16256         12.2168         5.93512 
        1.17828         11.9682          5.7485 
        1.19395         11.7472         5.57054 
         1.2097         11.4515         5.39921 
        1.22537         11.2223         5.23593 
          1.241         10.9322         5.07989 
        1.25666          10.802         4.92983 
        1.27241         10.6147         4.78513 
        1.28819         10.1736           4.646 
        1.30392         10.2352          4.5128 
        1.31957          9.9178         4.38542 
        1.33529         9.78044          4.2625 
        1.35108         9.61643          4.1438 
        1.36674         9.39072         4.03047 
         1.3824         9.20555         3.92148 
        1.39811         9.06233         3.81616 
        1.41389         8.91593          3.7143 
        1.42964         8.76897         3.61634 
        1.44531         8.61455         3.52239 
        1.46101         8.50785         3.43157 
        1.47667         8.33386         3.34423 
        1.49229           8.112         3.26015 
        1.50793         8.04244         3.17888 
        1.52367         7.92915         3.09985 
        1.53953         7.79649         3.02297 
        1.55526         7.62969         2.94932 
        1.57092         7.57323         2.87842 
        1.58662         7.43418         2.80969 
        1.60235         7.34706         2.74306 
        1.61809         7.22133         2.67856 
        1.63369          7.0989         2.61671 
        1.64941         6.97603         2.55637 
        1.66519         6.91016         2.49771 
        1.68085         6.75842          2.4413 
        1.69652          6.7265         2.38663 
        1.71228         6.62904         2.33331 
        1.72806         6.52164         2.28158 
        1.74368         6.43528         2.23194 
        1.75933         6.33787         2.18367 
        1.77505         6.23946          2.1366 
        1.79081         6.16246         2.09084 
         1.8065           6.116         2.04661 
        1.82218         6.04571          2.0037 
        1.83797          5.9307         1.96173 
        1.85367         5.86388         1.92119 
        1.86928          5.7717         1.88203 
        1.88497         5.72612         1.84375 
        1.90073         5.62706          1.8064 
        1.91647         5.50202         1.77011 
        1.93218         5.48242          1.7349 
        1.94787         5.40372         1.70069 
        1.96363         5.35079         1.66727 
        1.97935         5.30594         1.63482 
        1.99499         5.22864         1.60341 
        2.01064         5.15876         1.57278 
         2.0264         5.10766         1.54276 
        2.04216         5.07487         1.51353 
        2.05781         5.00463         1.48525 
        2.07353         4.92494         1.45758 
        2.08928         4.86969         1.43056 
        2.10499         4.81946          1.4043 
        2.12065         4.79099         1.37877 
        2.13633         4.71896         1.35386 
        2.15211         4.67552          1.3294 
        2.16785         4.60192         1.30561 
        2.18349         4.58595         1.28255 
        2.19916         4.52853            1.26 
        2.21489         4.48657         1.23791 
        2.23063         4.42888         1.21634 
         2.2463         4.36783         1.19538 
        2.26194         4.31702         1.17497 
        2.27765         4.27096         1.15492 
        2.29341         4.21754         1.13529 
        2.30914         4.20236         1.11616 
        2.32486         4.13905         1.09748 
        2.34061         4.12214         1.07919 
        2.35635         4.07294         1.06134 
        2.37203         4.03426         1.04395 
        2.38768         3.99573         1.02698 
        2.40339         3.94099         1.01033 
        2.41914         3.91866        0.994015 
        2.43483         3.88876        0.978113 
         2.4505         3.82482        0.962584 
        2.46622         3.79435        0.947339 
        2.48195         3.78395        0.932423 
        2.49759         3.71996        0.917906 
        2.51328         3.69455         0.90366 
        2.52906         3.64905        0.889626 
        2.54479         3.62422        0.875942 
        2.56049         3.58606        0.862572 
        2.57618          3.5635        0.849491 
        2.59189         3.55327        0.836662 
        2.60758         3.50286        0.824117 
        2.62325         3.44421        0.811844 
        2.63898         3.44989        0.799778 
        2.65468         3.40541        0.787982 
        2.67044         3.38661        0.776373 
        2.68618         3.34298        0.765024 
        2.70184         3.32985        0.753947 
        2.71755         3.28891        0.743061 
        2.73329         3.25536        0.732373 
        2.74897         3.23277         0.72193 
        2.76462         3.21128        0.711712 
        2.78034         3.18263         0.70165 
        2.79607         3.15283        0.691772 
        2.81179         3.12842        0.682095 
        2.82749         3.09372        0.672613 
        2.84321          3.0813          0.6633 
        2.85893         3.04288        0.654167 
        2.87462         3.03373         0.64522 
        2.89033         3.00657        0.636432 
        2.90605         2.97757          0.6278 
        2.92176         2.94234        0.619332 
        2.93747         2.93303        0.611024 
        2.95318         2.90725        0.602867 
        2.96891          2.8822        0.594854 
        2.98456         2.86055        0.587022 
        3.00023         2.84647         0.57932 
        3.01596         2.81097        0.571731 
        3.03164         2.79319          0.5643 
        3.04738         2.77907        0.556979 
         3.0631         2.76062         0.54979 
        3.07883         2.73377        0.542727 
        3.09456         2.70233        0.535789 
        3.11026          2.6933        0.528982 
        3.12596         2.67868        0.522295 
        3.14163         2.64781        0.515738 
        3.15734         2.62926        0.509278 
        3.17308         2.61596        0.502913 
        3.18879         2.59542        0.496674 
        3.20447         2.58301        0.490549 
         3.2202         2.55397        0.484509 
         3.2359         2.53792        0.478581 
        3.25157         2.52443        0.472766 
        3.26729         2.50427        0.467029 
        3.28304         2.47611        0.461377 
        3.29877         2.46765        0.455825 
        3.31446          2.4535        0.450376 
        3.33014         2.42893        0.445021 
        3.34585         2.41902        0.439745 
        3.36158         2.39864        0.434546 
        3.37727           2.381        0.429447 
        3.39294         2.36977        0.424435 
        3.40867         2.35408        0.419484 
        3.42439         2.33429        0.414615 
        3.44008         2.31874        0.409832 
        3.45578         2.30057        0.405121 
        3.47153         2.28796        0.400474 
        3.48724         2.27272        0.395907 
        3.50292         2.25969        0.391422 
        3.51859         2.24007        0.387009 
        3.53431         2.22499        0.382649 
        3.55007         2.21359        0.378346 
        3.56577         2.19669        0.374126 
        3.58146         2.18773        0.369972 
        3.59719         2.18034        0.365871 
        3.61292         2.15416        0.361834 
        3.62859         2.14474        0.357873 
        3.64429         2.12905        0.353963 
        3.66003         2.11714          0.3501 
        3.67578         2.10747        0.346295 
        3.69146         2.08778        0.342561 
        3.70712         2.08249        0.338889 
        3.72284         2.06398        0.335257 
        3.73853         2.05083        0.331685 
        3.75422         2.03498        0.328163 
        3.76993         2.02025        0.324689 
        3.78564         2.01025        0.321266 
        3.80137         1.99431        0.317887 
        3.81707         1.98753        0.314564 
        3.83279         1.97063        0.311285 
        3.84853         1.95722        0.308048 
        3.86424         1.94376        0.304863 
        3.87992         1.93891        0.301727 
        3.89561         1.92334        0.298636 
        3.91134         1.90876        0.295581 
        3.92704         1.89702        0.292573 
        3.94273         1.88465        0.289609 
        3.95845         1.87595         0.28668 
        3.97418         1.86313        0.283792 
        3.98988         1.85018        0.280947 
        4.00554         1.83889        0.278149 
        4.02125         1.82578         0.27538 
        4.03698         1.81282        0.272645 
        4.05268         1.80446        0.269954 
        4.06839          1.7922        0.267296 
         4.0841         1.78107        0.264675 
        4.09983         1.76786        0.262085 
        4.11555         1.75716        0.259531 
        4.13124         1.74896        0.257018 
        4.14693         1.73741        0.254536 
        4.16266         1.72588        0.252081 
        4.17839         1.71262         0.24966 
        4.19408         1.69895        0.247276 
        4.20977         1.69462        0.244922 
        4.22551         1.67944        0.242593 
        4.24123         1.67291        0.240296 
        4.25691          1.6628        0.238035 
        4.27259         1.65041        0.235803 
        4.28831         1.63766        0.233595 
        4.30404         1.63086        0.231413 
        4.31974         1.62469        0.229263 
        4.33543         1.61099        0.227142 
        4.35116         1.59948        0.225042 
        4.36688         1.59155         0.22297 
        4.38255         1.58375        0.220931 
        4.39825         1.57395        0.218914 
        4.41398         1.56824        0.216917 
         4.4297         1.55681        0.214948 
        4.44541         1.54495        0.213003 
        4.46111         1.53904        0.211084 
        4.47683         1.52812        0.209187 
        4.49251         1.51989        0.207317 
        4.50819         1.51497         0.20547 
         4.5239         1.50648        0.203643 
        4.53962         1.49861        0.201836 
        4.55535         1.48798         0.20005 
        4.57106         1.47976        0.198289 
        4.58678         1.47131        0.196547 
         4.6025         1.46282        0.194827 
        4.61821         1.45736        0.193127 
        4.63391         1.45191        0.191449 
         4.6496         1.43935        0.189793 
        4.66532         1.43532        0.188153 
        4.68103         1.42847        0.186533 
        4.69673         1.41883        0.184934 
        4.71241         1.41353        0.183355 
        4.72811         1.40937        0.181791 
        4.74384         1.40037        0.180244 
        4.75955         1.39514        0.178718 
        4.77525         1.38641        0.177209 
        4.79096         1.37978        0.175717 
        4.80669          1.3746         0.17424 
         4.8224         1.36168        0.172783 
        4.83809         1.36035        0.171343 
        4.85379         1.35652        0.169919 
         4.8695         1.35011         0.16851 
        4.88521         1.34031        0.167117 
        4.90093         1.33699         0.16574 
        4.91663         1.33039         0.16438 
        4.93234         1.32624        0.163033 
        4.94807         1.31991        0.161701 
        4.96377         1.31284        0.160386 
        4.97943         1.30799        0.159088 
        4.99514         1.30248        0.157801 
        5.01086         1.29587        0.156528 
        5.02654         1.28988        0.155272 
        5.04227         1.28354        0.154025 
          5.058         1.27944        0.152792 
        5.07371         1.27582        0.151575 
        5.08942         1.27261        0.150371 
        5.10513         1.26659        0.149179 
        5.12084         1.25668           0.148 
        5.13656         1.25366        0.146834 
        5.15225         1.24928        0.145682 
        5.16796         1.24578        0.144541 
        5.18369         1.24001        0.143411 
         5.1994         1.23666        0.142295 
        5.21509          1.2304        0.141192 
        5.23079         1.22681          0.1401 
        5.24649         1.22436        0.139019 
        5.26217         1.21781        0.137951 
        5.27788         1.21007        0.136893 
        5.29359         1.20889        0.135845 
        5.30933         1.20245        0.134807 
        5.32504         1.19959        0.133781 
        5.34073         1.19457        0.132767 
        5.35646         1.18873        0.131762 
        5.37218         1.18793        0.130767 
        5.38789         1.18182        0.129783 
        5.40357         1.17613        0.128811 
        5.41929         1.17255        0.127847 
        5.43502         1.16996        0.126892 
         5.4507         1.16377        0.125949 
        5.46639         1.15871        0.125016 
        5.48212         1.15753         0.12409 
        5.49786         1.15141        0.123172 
        5.51353         1.14815        0.122268 
        5.52921         1.14629        0.121373 
        5.54495         1.14516        0.120483 
        5.56066            1.14        0.119603 
        5.57637         1.13246        0.118733 
        5.59207         1.12844        0.117871 
        5.60778         1.12693        0.117018 
        5.62346         1.12281        0.116175 
        5.63916         1.11908        0.115339 
        5.65487         1.11469         0.11451 
         5.6706         1.11373        0.113689 
        5.68633         1.10919        0.112876 
        5.70203         1.10336        0.112072 
        5.71773         1.10266        0.111276 
        5.73344         1.09957        0.110488 
        5.74916         1.09602        0.109706 
        5.76486         1.09271        0.108933 
        5.78054         1.08901        0.108168 
        5.79626         1.08599        0.107409 
          5.812         1.08124        0.106656 
         5.8277         1.08041        0.105913 
        5.84339         1.07638        0.105177 
        5.85911         1.07397        0.104446 
        5.87484         1.06842        0.103722 
        5.89053         1.06779        0.103007 
        5.90623         1.06529        0.102298 
        5.92195         1.06071        0.101594 
        5.93767         1.05649        0.100897 
        5.95336         1.05537        0.100208 
        5.96905         1.05012       0.0995261 
        5.98476         1.04878       0.0988492 
        6.00048         1.04454       0.0981784 
        6.01617         1.04262       0.0975146 
        6.03185         1.03963       0.0968578 
        6.04756         1.03667       0.0962054 
        6.06331         1.03338       0.0955577 
        6.07903          1.0321       0.0949172 
        6.09473          1.0312       0.0942832 
        6.11044         1.02553       0.0936544 
        6.12616         1.02041       0.0930314 
        6.14186         1.02127       0.0924147 
        6.15755          1.0158       0.0918036 
        6.17326         1.01483       0.0911975 
        6.18898         1.01343       0.0905966 
        6.20467         1.00959       0.0900022 
        6.22036         1.00738       0.0894131 
         6.2361         1.00264       0.0888277 
         6.2518         1.00255       0.0882485 
        6.26748        0.996971       0.0876757 
        6.28319        0.996839       0.0871064 
        6.29893        0.995006       0.0865417 
        6.31463        0.989799       0.0859829 
        6.33033        0.988331       0.0854291 
        6.34604        0.984601       0.0848799 
        6.36177        0.982321        0.084335 
        6.37747        0.979765       0.0837958 
