# k  (h/Mpc)    Pcb(k)  (Mpc/h)^3    Pcb_linear(k) (Mpc/h)^3   ShotnoiseSubtracted = true
      0.0200456         28918.8         29426.2 
      0.0350414         19578.2         18734.7 
      0.0492313           12702           12933 
      0.0637834         10195.5         10726.4 
      0.0800726         7644.15         8064.23 
       0.096163         5954.28         5514.49 
       0.111083         4858.37         4466.89 
       0.126058         4035.54         4011.27 
       0.142273         3446.86         3221.18 
       0.158546         2765.08         2458.69 
        0.17375         2501.15         2134.75 
       0.188953          2388.4         1947.11 
       0.204907         2021.18         1651.38 
       0.220756         1826.55         1366.84 
        0.23588         1628.36         1216.34 
         0.2514         1473.51         1112.69 
       0.267535         1410.66         978.521 
       0.283568         1258.06         849.648 
       0.299022         1188.43         766.507 
       0.314451         1244.33          704.22 
       0.330372         1099.96         635.554 
       0.346141         1007.34         570.235 
       0.361624          963.81         520.806 
       0.377134         927.897           480.8 
       0.392932         870.676         441.201 
       0.408854         841.353         403.387 
       0.424564         821.157         372.012 
       0.440253         762.232         345.347 
       0.455999         724.928         320.403 
       0.471626         738.071         297.273 
        0.48727         691.549         276.725 
       0.502856         673.628         258.694 
       0.518488         643.846         242.049 
       0.534347         625.207         226.375 
       0.550082         594.794         212.246 
       0.565732          581.71         199.548 
       0.581496         568.794         187.787 
       0.597222         557.267         176.917 
       0.612804         541.086         166.979 
       0.628434         518.913          157.83 
       0.644267         504.003         149.275 
       0.660051         498.622         141.368 
       0.675724          486.24         134.075 
       0.691403         470.161         127.289 
       0.707174         456.808         120.933 
       0.722871         457.092         115.035 
        0.73838         439.836         109.593 
       0.754018         430.319         104.461 
       0.769845         424.958         99.6016 
        0.78569         414.984         95.0475 
       0.801365         401.227         90.8234 
       0.817031         396.102         86.8596 
       0.832809         390.413         83.1078 
       0.848511         384.168         79.5949 
       0.864097         372.809         76.3095 
       0.879701         374.348         73.2068 
       0.895507         359.343         70.2402 
       0.911279         354.256         67.4445 
        0.92691         349.567         64.8241 
       0.942635         343.471         62.3287 
       0.958396         333.456         59.9595 
       0.974128         327.241         57.7178 
       0.989692         320.864         55.6128 
        1.00528         313.885         53.6098 
        1.02113         310.718         51.6742 
        1.03692         305.784         49.8413 
        1.05264         301.655         48.1059 
        1.06832         293.837         46.4559 
        1.08405         292.749         44.8789 
        1.09979         285.811         43.3743 
        1.11537         278.812         41.9536 
        1.13105         275.366         40.5882 
        1.14679         270.482         39.2783 
        1.16256         268.533         38.0238 
        1.17828         264.461         36.8282 
        1.19395         258.249          35.688 
         1.2097          255.16         34.5904 
        1.22537         252.039         33.5443 
          1.241         245.592         32.5447 
        1.25666         243.318         31.5833 
        1.27241         240.869         30.6563 
        1.28819         234.594         29.7649 
        1.30392         234.069         28.9116 
        1.31957         228.193         28.0955 
        1.33529         223.433          27.308 
        1.35108         223.512         26.5475 
        1.36674         218.322         25.8215 
         1.3824         214.079         25.1232 
        1.39811         211.039         24.4485 
        1.41389         208.132          23.796 
        1.42964         204.158         23.1683 
        1.44531         202.967         22.5664 
        1.46101         198.224         21.9846 
        1.47667         195.339          21.425 
        1.49229           194.1         20.8864 
        1.50793          190.05         20.3657 
        1.52367         186.963         19.8594 
        1.53953         184.697         19.3669 
        1.55526         181.145          18.895 
        1.57092         180.174         18.4408 
        1.58662         176.918         18.0005 
        1.60235         173.999         17.5736 
        1.61809         171.974         17.1604 
        1.63369          168.59         16.7641 
        1.64941         167.137         16.3775 
        1.66519          163.81         16.0017 
        1.68085         161.284         15.6404 
        1.69652         159.851         15.2901 
        1.71228         157.572         14.9485 
        1.72806         155.723         14.6171 
        1.74368         153.097         14.2991 
        1.75933         151.467         13.9898 
        1.77505         149.488         13.6883 
        1.79081         146.817         13.3951 
         1.8065         145.799         13.1118 
        1.82218         142.118         12.8369 
        1.83797         140.951         12.5679 
        1.85367          139.14         12.3082 
        1.86928         137.052         12.0574 
        1.88497         136.568         11.8121 
        1.90073         134.342         11.5728 
        1.91647          132.25         11.3404 
        1.93218         129.732         11.1147 
        1.94787          127.81         10.8956 
        1.96363          127.12         10.6815 
        1.97935         125.793         10.4736 
        1.99499         123.634         10.2724 
        2.01064          121.89         10.0761 
         2.0264          120.91         9.88378 
        2.04216         118.474         9.69655 
        2.05781         117.054         9.51534 
        2.07353         115.945         9.33811 
        2.08928         113.718         9.16501 
        2.10499         113.149         8.99674 
        2.12065          111.97         8.83321 
        2.13633         110.224         8.67359 
        2.15211         108.629         8.51688 
        2.16785          107.51         8.36447 
        2.18349          106.21         8.21674 
        2.19916         105.297         8.07227 
        2.21489         102.958         7.93078 
        2.23063         101.741         7.79259 
         2.2463          100.46          7.6583 
        2.26194         99.4994         7.52751 
        2.27765         98.0832          7.3991 
        2.29341          96.703         7.27334 
        2.30914           95.76         7.15076 
        2.32486         94.9089         7.03107 
        2.34061         93.4701         6.91392 
        2.35635         92.3166         6.79954 
        2.37203         91.0423         6.68813 
        2.38768         89.7167         6.57945 
        2.40339         89.0349         6.47278 
        2.41914         87.8007         6.36823 
        2.43483         86.8441         6.26635 
         2.4505          85.851         6.16686 
        2.46622         84.6286          6.0692 
        2.48195         83.4471         5.97363 
        2.49759         82.3765         5.88063 
        2.51328         81.7381         5.78936 
        2.52906         80.7614         5.69945 
        2.54479         79.9306         5.61178 
        2.56049         78.6672         5.52613 
        2.57618         77.8414         5.44233 
        2.59189         76.9282         5.36013 
        2.60758         75.6995         5.27977 
        2.62325         74.9269         5.20114 
        2.63898         74.1368         5.12384 
        2.65468         73.5139         5.04826 
        2.67044         72.4273         4.97389 
        2.68618          71.415         4.90118 
        2.70184         70.7614         4.83021 
        2.71755          70.092         4.76047 
        2.73329         68.9701           4.692 
        2.74897            68.5         4.62509 
        2.76462          67.695         4.55964 
        2.78034         66.9031         4.49517 
        2.79607         66.2546         4.43189 
        2.81179         65.2734         4.36989 
        2.82749         64.7092         4.30914 
        2.84321         63.7624         4.24948 
        2.85893          63.137         4.19096 
        2.87462         62.3647         4.13365 
        2.89033         61.7536         4.07735 
        2.90605         61.0806         4.02205 
        2.92176         60.3793         3.96779 
        2.93747         59.6938         3.91457 
        2.95318          59.009         3.86231 
        2.96891         58.5608         3.81098 
        2.98456         57.6696          3.7608 
        3.00023         57.0353         3.71145 
        3.01596         56.5955         3.66284 
        3.03164         55.8935         3.61523 
        3.04738         55.3202         3.56832 
         3.0631         54.7189         3.52227 
        3.07883         54.1396         3.47702 
        3.09456         53.3333         3.43257 
        3.11026         53.2108         3.38896 
        3.12596         52.3696         3.34612 
        3.14163         51.9827         3.30411 
        3.15734         51.1015         3.26273 
        3.17308         50.7639         3.22195 
        3.18879         50.2333         3.18198 
        3.20447         49.7878         3.14274 
         3.2202         49.0049         3.10404 
         3.2359         48.5804         3.06606 
        3.25157         48.1023         3.02881 
        3.26729         47.6971         2.99206 
        3.28304         47.2644         2.95584 
        3.29877         46.7296         2.92027 
        3.31446         46.1297         2.88537 
        3.33014         45.7046         2.85106 
        3.34585         45.1249         2.81726 
        3.36158         44.9311         2.78395 
        3.37727         44.4376         2.75128 
        3.39294          43.937         2.71917 
        3.40867         43.4775         2.68745 
        3.42439         43.0055         2.65626 
        3.44008         42.6423         2.62562 
        3.45578         42.0437         2.59544 
        3.47153         41.6425         2.56566 
        3.48724         41.1643         2.53641 
        3.50292         40.9092         2.50767 
        3.51859          40.562          2.4794 
        3.53431         39.9878         2.45147 
        3.55007         39.6625          2.4239 
        3.56577         39.2604         2.39687 
        3.58146         38.8581         2.37025 
        3.59719          38.526         2.34398 
        3.61292         38.1328         2.31812 
        3.62859         37.8318         2.29274 
        3.64429          37.514         2.26769 
        3.66003         37.0099         2.24294 
        3.67578         36.6709         2.21856 
        3.69146         36.3038         2.19464 
        3.70712          36.007         2.17112 
        3.72284         35.6875         2.14785 
        3.73853         35.4365         2.12496 
        3.75422         34.9473          2.1024 
        3.76993         34.7648         2.08014 
        3.78564         34.3688         2.05821 
        3.80137         34.0552         2.03657 
        3.81707         33.6736         2.01528 
        3.83279         33.3685         1.99427 
        3.84853         33.1379         1.97353 
        3.86424         32.7625         1.95313 
        3.87992         32.4131         1.93304 
        3.89561         32.1129         1.91323 
        3.91134         31.8437         1.89366 
        3.92704         31.5177         1.87439 
        3.94273         31.3433          1.8554 
        3.95845         31.0114         1.83664 
        3.97418         30.7092         1.81813 
        3.98988          30.418         1.79991 
        4.00554         30.1831         1.78198 
        4.02125         29.8992         1.76424 
        4.03698         29.6145         1.74672 
        4.05268         29.3104         1.72948 
        4.06839         29.0806         1.71245 
         4.0841         28.7952         1.69566 
        4.09983         28.5326         1.67907 
        4.11555         28.3533         1.66271 
        4.13124         28.0263         1.64661 
        4.14693         27.8472          1.6307 
        4.16266          27.593         1.61498 
        4.17839         27.2698         1.59946 
        4.19408         27.0482         1.58419 
        4.20977           26.78         1.56911 
        4.22551         26.5846         1.55419 
        4.24123         26.3486         1.53947 
        4.25691         26.1552         1.52499 
        4.27259         25.8251         1.51069 
        4.28831         25.6613         1.49654 
        4.30404         25.4059         1.48256 
        4.31974         25.2053         1.46879 
        4.33543         25.0035          1.4552 
        4.35116         24.8461         1.44175 
        4.36688         24.4909         1.42847 
        4.38255         24.4117         1.41541 
        4.39825           24.18         1.40249 
        4.41398         23.9913          1.3897 
         4.4297         23.7277         1.37708 
        4.44541          23.527         1.36462 
        4.46111         23.3173         1.35232 
        4.47683         23.1572         1.34017 
        4.49251         22.9722         1.32819 
        4.50819         22.7715         1.31636 
         4.5239         22.4814         1.30466 
        4.53962         22.4208         1.29308 
        4.55535         22.1993         1.28164 
        4.57106         22.0447         1.27035 
        4.58678         21.7982         1.25919 
         4.6025         21.5879         1.24817 
        4.61821          21.477         1.23728 
        4.63391         21.3111         1.22653 
         4.6496         21.0878         1.21592 
        4.66532         20.9176         1.20541 
        4.68103         20.7064         1.19504 
        4.69673         20.5767         1.18479 
        4.71241         20.4114         1.17467 
        4.72811         20.2566         1.16466 
        4.74384         20.1194         1.15475 
        4.75955         19.9313         1.14497 
        4.77525          19.761          1.1353 
        4.79096         19.6129         1.12574 
        4.80669         19.4337         1.11628 
         4.8224         19.2644         1.10694 
        4.83809         19.0985         1.09772 
        4.85379         18.9946          1.0886 
         4.8695         18.7952         1.07957 
        4.88521         18.6799         1.07065 
        4.90093         18.4865         1.06183 
        4.91663         18.3837         1.05311 
        4.93234         18.2107         1.04448 
        4.94807         18.0624         1.03595 
        4.96377          17.875         1.02752 
        4.97943         17.7538         1.01921 
        4.99514         17.6585         1.01097 
        5.01086         17.5264         1.00281 
        5.02654         17.3749        0.994758 
        5.04227         17.2006        0.986774 
          5.058         17.1002        0.978873 
        5.07371         16.9417        0.971075 
        5.08942         16.8243         0.96336 
        5.10513         16.6933        0.955727 
        5.12084          16.574        0.948174 
        5.13656         16.4181        0.940703 
        5.15225         16.3241        0.933325 
        5.16796         16.1691        0.926014 
        5.18369         16.0566        0.918775 
         5.1994         15.9277        0.911626 
        5.21509          15.823        0.904559 
        5.23079         15.6782        0.897559 
        5.24649         15.5768        0.890638 
        5.26217         15.4492        0.883795 
        5.27788         15.3454        0.877013 
        5.29359         15.1864        0.870301 
        5.30933         15.1074         0.86365 
        5.32504           14.98        0.857079 
        5.34073         14.8597        0.850584 
        5.35646         14.7391        0.844142 
        5.37218         14.6257        0.837766 
        5.38789         14.5424        0.831466 
        5.40357         14.4531        0.825238 
        5.41929         14.3188        0.819059 
        5.43502         14.2084        0.812943 
         5.4507         14.1119        0.806904 
        5.46639         14.0082        0.800925 
        5.48212         13.8914        0.794992 
        5.49786         13.7967        0.789113 
        5.51353         13.6615        0.783321 
        5.52921         13.5968        0.777582 
        5.54495         13.4867        0.771884 
        5.56066         13.3854        0.766248 
        5.57637         13.3143         0.76067 
        5.59207         13.2154        0.755151 
        5.60778         13.0724        0.749685 
        5.62346         13.0166        0.744281 
        5.63916         12.9204        0.738925 
        5.65487         12.8522        0.733618 
         5.6706         12.7163        0.728358 
        5.68633         12.6216        0.723147 
        5.70203         12.5394        0.717997 
        5.71773         12.4739        0.712898 
        5.73344          12.372        0.707846 
        5.74916         12.2861        0.702838 
        5.76486         12.1756        0.697885 
        5.78054         12.0906        0.692988 
        5.79626         12.0146        0.688123 
          5.812         11.9088        0.683301 
         5.8277         11.8304        0.678538 
        5.84339         11.7719        0.673821 
        5.85911         11.6843        0.669139 
        5.87484         11.5824        0.664503 
        5.89053         11.4855        0.659919 
        5.90623         11.4276        0.655377 
        5.92195         11.3246        0.650869 
        5.93767         11.2486        0.646406 
        5.95336         11.1935        0.641992 
        5.96905         11.1076        0.637621 
        5.98476         11.0304        0.633284 
        6.00048         10.9637        0.628987 
        6.01617         10.8603        0.624734 
        6.03185         10.7967        0.620526 
        6.04756         10.7327        0.616347 
        6.06331         10.6532        0.612197 
        6.07903         10.5643        0.608094 
        6.09473         10.4955        0.604032 
        6.11044         10.4426        0.600003 
        6.12616         10.3605        0.596012 
        6.14186         10.3039        0.592061 
        6.15755         10.2077        0.588146 
        6.17326         10.1473        0.584263 
        6.18898         10.0759        0.580414 
        6.20467         10.0139        0.576605 
        6.22036         9.93256        0.572831 
         6.2361         9.86357        0.569081 
         6.2518         9.80157         0.56537 
        6.26748         9.74539        0.561701 
        6.28319         9.67345        0.558053 
        6.29893         9.60698        0.554435 
        6.31463         9.52852        0.550855 
        6.33033         9.47757        0.547308 
        6.34604         9.41323        0.543789 
        6.36177         9.34037        0.540298 
        6.37747         9.29304        0.536844 
