# k  (h/Mpc)    Pcb(k)  (Mpc/h)^3    Pcb_linear(k) (Mpc/h)^3   ShotnoiseSubtracted = true
      0.0200456         8162.81         8268.74 
      0.0350414            5428         5264.44 
      0.0492313         3631.53         3634.18 
      0.0637834         2932.34         3014.11 
      0.0800726         2204.25         2266.04 
       0.096163          1621.1         1549.57 
       0.111083         1322.36         1255.19 
       0.126058         1122.23         1127.16 
       0.142273         919.561         905.148 
       0.158546         731.149         690.891 
        0.17375         643.276         599.863 
       0.188953         591.119         547.137 
       0.204907         488.812         464.037 
       0.220756         429.604         384.082 
        0.23588         382.605         341.791 
         0.2514         342.682         312.666 
       0.267535         322.865         274.964 
       0.283568         278.406         238.751 
       0.299022         262.611         215.388 
       0.314451         256.157         197.885 
       0.330372         220.398          178.59 
       0.346141         202.455         160.236 
       0.361624         190.174         146.346 
       0.377134         174.368         135.105 
       0.392932         168.304         123.977 
       0.408854         158.516         113.351 
       0.424564         150.707         104.535 
       0.440253         136.279         97.0423 
       0.455999         126.688          90.033 
       0.471626         123.477         83.5336 
        0.48727         118.134         77.7595 
       0.502856          107.72         72.6929 
       0.518488         105.867         68.0156 
       0.534347         98.7882         63.6114 
       0.550082         96.1392         59.6409 
       0.565732          93.742         56.0727 
       0.581496         85.8508         52.7681 
       0.597222         83.6566         49.7136 
       0.612804          80.241         46.9209 
       0.628434         78.3437         44.3501 
       0.644267         73.9359         41.9461 
       0.660051         71.6549         39.7243 
       0.675724          69.742         37.6751 
       0.691403         68.1076         35.7682 
       0.707174         65.4412         33.9822 
       0.722871         64.0007         32.3248 
        0.73838         61.8545         30.7955 
       0.754018         58.0837         29.3534 
       0.769845         57.6003          27.988 
        0.78569         55.7488         26.7083 
       0.801365         53.8164         25.5213 
       0.817031         51.9286         24.4075 
       0.832809         50.8292         23.3533 
       0.848511         49.6475         22.3661 
       0.864097         48.5807         21.4429 
       0.879701         47.4265         20.5711 
       0.895507         45.6259         19.7375 
       0.911279         44.6746         18.9519 
        0.92691         43.6654         18.2155 
       0.942635         42.5132         17.5143 
       0.958396         42.3101         16.8486 
       0.974128         41.1965         16.2187 
       0.989692         39.8974         15.6272 
        1.00528         39.0886         15.0643 
        1.02113         38.1294         14.5204 
        1.03692         37.8847         14.0054 
        1.05264         36.9688         13.5177 
        1.06832         36.0229         13.0541 
        1.08405         35.2776         12.6109 
        1.09979         34.9862         12.1882 
        1.11537         33.9606         11.7889 
        1.13105          33.124         11.4053 
        1.14679         32.6676         11.0372 
        1.16256         32.1737         10.6847 
        1.17828          31.773         10.3487 
        1.19395         30.8247         10.0283 
         1.2097         30.7974         9.71989 
        1.22537         29.9234         9.42594 
          1.241         29.5797         9.14504 
        1.25666         28.8149         8.87489 
        1.27241         28.6604          8.6144 
        1.28819         27.9197         8.36392 
        1.30392         27.5469         8.12414 
        1.31957         27.2975         7.89483 
        1.33529         26.7852         7.67353 
        1.35108         26.3173         7.45984 
        1.36674         25.8747         7.25582 
         1.3824         25.4725         7.05961 
        1.39811         24.9972         6.87001 
        1.41389         24.6344         6.68665 
        1.42964         24.5385         6.51029 
        1.44531          23.971         6.34115 
        1.46101         23.7201         6.17766 
        1.47667          23.417         6.02042 
        1.49229         22.9094         5.86907 
        1.50793         22.7834         5.72275 
        1.52367         22.2804         5.58048 
        1.53953         22.2127         5.44209 
        1.55526         21.7749         5.30949 
        1.57092         21.5526         5.18186 
        1.58662         21.2577         5.05812 
        1.60235         20.9359         4.93818 
        1.61809         20.6871         4.82206 
        1.63369         20.4454         4.71071 
        1.64941         20.1265         4.60208 
        1.66519         19.9295         4.49648 
        1.68085         19.5366         4.39494 
        1.69652         19.3451          4.2965 
        1.71228         19.2855         4.20052 
        1.72806         18.8918          4.1074 
        1.74368         18.6609         4.01803 
        1.75933         18.5043         3.93114 
        1.77505         18.2956         3.84641 
        1.79081         18.0508         3.76402 
         1.8065         17.8598          3.6844 
        1.82218         17.6287         3.60715 
        1.83797          17.526         3.53159 
        1.85367         17.3004          3.4586 
        1.86928         17.1932         3.38811 
        1.88497         16.9035         3.31921 
        1.90073         16.7298         3.25196 
        1.91647         16.4938         3.18663 
        1.93218         16.4598         3.12324 
        1.94787         16.2259         3.06166 
        1.96363         16.0285         3.00149 
        1.97935         15.8051         2.94307 
        1.99499         15.6995         2.88652 
        2.01064           15.44         2.83138 
         2.0264         15.3554         2.77734 
        2.04216          15.291         2.72472 
        2.05781         15.0279          2.6738 
        2.07353         14.9096           2.624 
        2.08928         14.6927         2.57536 
        2.10499         14.4955         2.52808 
        2.12065         14.4012         2.48213 
        2.13633         14.2977         2.43727 
        2.15211         14.0703         2.39324 
        2.16785         14.0477         2.35041 
        2.18349         13.8509          2.3089 
        2.19916         13.7017          2.2683 
        2.21489          13.517         2.22854 
        2.23063          13.457         2.18971 
         2.2463         13.3069         2.15198 
        2.26194         13.1385         2.11523 
        2.27765         12.9892         2.07914 
        2.29341         12.8542          2.0438 
        2.30914         12.7394         2.00936 
        2.32486         12.6792         1.97573 
        2.34061          12.516         1.94281 
        2.35635         12.3746         1.91067 
        2.37203         12.2754         1.87936 
        2.38768         12.1362         1.84882 
        2.40339         12.1231         1.81885 
        2.41914         11.9679         1.78947 
        2.43483         11.8041         1.76084 
         2.4505         11.6745         1.73289 
        2.46622         11.6133         1.70544 
        2.48195         11.5016         1.67859 
        2.49759          11.373         1.65245 
        2.51328          11.287         1.62681 
        2.52906         11.1799         1.60154 
        2.54479         11.0747         1.57691 
        2.56049         10.9552         1.55284 
        2.57618         10.9295         1.52929 
        2.59189         10.7857         1.50619 
        2.60758         10.6403         1.48361 
        2.62325         10.5864         1.46152 
        2.63898         10.5329         1.43979 
        2.65468         10.3975         1.41856 
        2.67044         10.3304         1.39766 
        2.68618         10.2125         1.37723 
        2.70184         10.1478         1.35729 
        2.71755         10.0289         1.33769 
        2.73329         9.96291         1.31845 
        2.74897         9.86923         1.29965 
        2.76462         9.78146         1.28125 
        2.78034         9.69755         1.26314 
        2.79607         9.60899         1.24536 
        2.81179         9.56204         1.22794 
        2.82749         9.46288         1.21087 
        2.84321         9.39694          1.1941 
        2.85893         9.27324         1.17766 
        2.87462         9.23208         1.16155 
        2.89033         9.11699         1.14573 
        2.90605         9.07059         1.13019 
        2.92176         9.00456         1.11495 
        2.93747         8.92581         1.09999 
        2.95318         8.86196         1.08531 
        2.96891         8.76268         1.07088 
        2.98456         8.68491         1.05678 
        3.00023         8.63179         1.04292 
        3.01596         8.56312         1.02926 
        3.03164         8.48459         1.01588 
        3.04738          8.4075          1.0027 
         3.0631         8.31582        0.989754 
        3.07883         8.26928         0.97704 
        3.09456         8.18552         0.96455 
        3.11026          8.1154        0.952296 
        3.12596         8.07803        0.940257 
        3.14163         8.00476        0.928453 
        3.15734         7.94383        0.916824 
        3.17308         7.88287        0.905365 
        3.18879         7.81874        0.894133 
        3.20447          7.7555        0.883108 
         3.2202         7.68275        0.872234 
         3.2359         7.61276        0.861562 
        3.25157         7.57226        0.851093 
        3.26729         7.50388        0.840766 
        3.28304         7.42618         0.83059 
        3.29877         7.39216        0.820595 
        3.31446         7.34083        0.810786 
        3.33014         7.27431        0.801146 
        3.34585         7.18645        0.791647 
        3.36158         7.16336        0.782288 
        3.37727         7.10479        0.773109 
        3.39294          7.0566        0.764085 
        3.40867         7.01943        0.755173 
        3.42439         6.93476        0.746407 
        3.44008         6.88727        0.737797 
        3.45578         6.83419        0.729316 
        3.47153         6.79104         0.72095 
        3.48724         6.71385        0.712729 
        3.50292         6.66419        0.704655 
        3.51859         6.62875        0.696709 
        3.53431         6.55373        0.688861 
        3.55007         6.50101        0.681115 
        3.56577         6.45052        0.673518 
        3.58146         6.42981         0.66604 
        3.59719         6.35599        0.658657 
        3.61292         6.33307        0.651389 
        3.62859         6.28337        0.644258 
        3.64429         6.23249        0.637219 
        3.66003         6.18654        0.630264 
        3.67578         6.14781        0.623415 
        3.69146          6.1002        0.616693 
        3.70712         6.04745        0.610083 
        3.72284         6.00746        0.603544 
        3.73853         5.96608        0.597113 
        3.75422         5.92972        0.590772 
        3.76993         5.87275        0.584518 
        3.78564          5.8352        0.578357 
        3.80137         5.77486        0.572274 
        3.81707         5.73209        0.566291 
        3.83279          5.6963        0.560389 
        3.84853         5.65158        0.554561 
        3.86424         5.60659        0.548827 
        3.87992         5.58649        0.543183 
        3.89561         5.52645        0.537617 
        3.91134         5.49208        0.532118 
        3.92704         5.43494        0.526702 
        3.94273          5.4154        0.521366 
        3.95845         5.36842        0.516094 
        3.97418         5.33502        0.510894 
        3.98988         5.28896        0.505773 
        4.00554          5.2572        0.500735 
        4.02125         5.22375        0.495751 
        4.03698         5.17786        0.490828 
        4.05268         5.14169        0.485982 
        4.06839         5.08249        0.481198 
         4.0841         5.07039        0.476479 
        4.09983         5.01172        0.471817 
        4.11555         4.99063         0.46722 
        4.13124         4.95134        0.462695 
        4.14693         4.91358        0.458227 
        4.16266          4.8799        0.453807 
        4.17839         4.83848        0.449449 
        4.19408          4.8177        0.445157 
        4.20977          4.7752        0.440919 
        4.22551         4.74573        0.436726 
        4.24123         4.69949        0.432591 
        4.25691         4.66899        0.428522 
        4.27259           4.627        0.424503 
        4.28831         4.60544        0.420527 
        4.30404         4.55952        0.416599 
        4.31974         4.53644        0.412729 
        4.33543          4.4929         0.40891 
        4.35116         4.46538         0.40513 
        4.36688         4.44038          0.4014 
        4.38255         4.41357         0.39773 
        4.39825          4.3807        0.394098 
        4.41398          4.3417        0.390504 
         4.4297         4.31581        0.386958 
        4.44541          4.2919        0.383458 
        4.46111         4.26085        0.380002 
        4.47683         4.22974        0.376587 
        4.49251         4.20761        0.373221 
        4.50819         4.18473        0.369896 
         4.5239         4.13698        0.366608 
        4.53962         4.12146        0.363355 
        4.55535          4.0842        0.360139 
        4.57106         4.06641        0.356967 
        4.58678         4.03044        0.353833 
         4.6025         4.01215        0.350735 
        4.61821         3.98746        0.347675 
        4.63391         3.94758        0.344655 
         4.6496         3.91773        0.341673 
        4.66532         3.88786         0.33872 
        4.68103         3.87279        0.335804 
        4.69673         3.84268        0.332925 
        4.71241         3.82007        0.330083 
        4.72811         3.79022        0.327269 
        4.74384         3.77222        0.324484 
        4.75955          3.7358        0.321735 
        4.77525         3.71524         0.31902 
        4.79096         3.70088        0.316333 
        4.80669         3.67725        0.313675 
         4.8224         3.64876        0.311051 
        4.83809          3.6213        0.308459 
        4.85379         3.60154        0.305895 
         4.8695         3.56928        0.303359 
        4.88521         3.55022        0.300852 
        4.90093         3.52464        0.298373 
        4.91663          3.5056        0.295924 
        4.93234           3.484          0.2935 
        4.94807         3.46134        0.291101 
        4.96377         3.44552        0.288733 
        4.97943         3.41247        0.286397 
        4.99514         3.40374        0.284081 
        5.01086         3.37415        0.281788 
        5.02654         3.35442        0.279526 
        5.04227         3.34045        0.277283 
          5.058         3.30231        0.275063 
        5.07371         3.28463        0.272871 
        5.08942         3.27078        0.270703 
        5.10513         3.25649        0.268559 
        5.12084         3.23676        0.266436 
        5.13656         3.20829        0.264337 
        5.15225         3.18988        0.262264 
        5.16796         3.16912        0.260209 
        5.18369         3.15075        0.258175 
         5.1994         3.12899        0.256166 
        5.21509          3.1133        0.254181 
        5.23079         3.08817        0.252214 
        5.24649           3.079        0.250269 
        5.26217         3.05222        0.248346 
        5.27788         3.03497         0.24644 
        5.29359          3.0134        0.244554 
        5.30933         3.00408        0.242685 
        5.32504         2.98162        0.240839 
        5.34073         2.96874        0.239014 
        5.35646         2.94854        0.237204 
        5.37218         2.92878        0.235412 
        5.38789         2.91357        0.233641 
        5.40357          2.8913        0.231891 
        5.41929         2.87493        0.230155 
        5.43502         2.85963        0.228437 
         5.4507          2.8376        0.226739 
        5.46639         2.82988        0.225059 
        5.48212         2.81142        0.223392 
        5.49786         2.78308         0.22174 
        5.51353         2.77047        0.220113 
        5.52921         2.76048          0.2185 
        5.54495         2.74297        0.216899 
        5.56066          2.7256        0.215315 
        5.57637           2.705        0.213748 
        5.59207         2.69473        0.212197 
        5.60778         2.67672        0.210661 
        5.62346         2.66962        0.209143 
        5.63916         2.64888        0.207637 
        5.65487         2.63317        0.206146 
         5.6706         2.61812        0.204668 
        5.68633         2.60336        0.203204 
        5.70203          2.5872        0.201757 
        5.71773         2.56972        0.200324 
        5.73344         2.55679        0.198904 
        5.74916         2.54128        0.197497 
        5.76486         2.52887        0.196105 
        5.78054         2.51365        0.194729 
        5.79626         2.50059        0.193362 
          5.812         2.48915        0.192007 
         5.8277         2.46998        0.190669 
        5.84339         2.45905        0.189343 
        5.85911         2.44922        0.188028 
        5.87484         2.43285        0.186725 
        5.89053         2.41447        0.185437 
        5.90623         2.40753         0.18416 
        5.92195          2.3918        0.182894 
        5.93767         2.38041         0.18164 
        5.95336         2.36435        0.180399 
        5.96905         2.35695        0.179171 
        5.98476         2.34036        0.177953 
        6.00048         2.32541        0.176745 
        6.01617         2.31309         0.17555 
        6.03185         2.30407        0.174368 
        6.04756         2.28845        0.173193 
        6.06331         2.27755        0.172027 
        6.07903         2.26253        0.170874 
        6.09473         2.25315        0.169733 
        6.11044         2.23841        0.168601 
        6.12616         2.23098        0.167479 
        6.14186         2.21742        0.166369 
        6.15755         2.20839        0.165269 
        6.17326         2.19283        0.164178 
        6.18898         2.18223        0.163096 
        6.20467         2.17308        0.162026 
        6.22036         2.15965        0.160965 
         6.2361         2.14614        0.159911 
         6.2518         2.13898        0.158869 
        6.26748         2.12967        0.157838 
        6.28319         2.11828        0.156813 
        6.29893         2.10554        0.155796 
        6.31463         2.09384         0.15479 
        6.33033         2.08509        0.153793 
        6.34604         2.07326        0.152804 
        6.36177         2.06278        0.151823 
        6.37747          2.0551        0.150853 
