# k  (h/Mpc)    Pcb(k)  (Mpc/h)^3    Pcb_linear(k) (Mpc/h)^3   ShotnoiseSubtracted = true
      0.0200456         21338.1         21675.9 
      0.0350414         14370.6         13800.4 
      0.0492313         9414.98         9526.75 
      0.0637834         7562.89         7901.29 
      0.0800726         5674.66         5940.28 
       0.096163         4346.18         4062.08 
       0.111083          3551.1          3290.4 
       0.126058         2960.12         2954.78 
       0.142273         2496.81         2372.78 
       0.158546         2003.51         1811.12 
        0.17375          1791.1          1572.5 
       0.188953         1690.07         1434.28 
       0.204907         1422.01         1216.44 
       0.220756         1273.06         1006.84 
        0.23588         1136.24          895.98 
         0.2514         1018.26         819.633 
       0.267535         979.805         720.799 
       0.283568         860.793         625.868 
       0.299022         817.875         564.625 
       0.314451         846.492         518.743 
       0.330372         729.998         468.162 
       0.346141         669.928         420.047 
       0.361624         640.233         383.636 
       0.377134         609.401         354.167 
       0.392932         579.352         324.998 
       0.408854         554.823         297.143 
       0.424564         538.808         274.032 
       0.440253         492.408          254.39 
       0.455999         469.418         236.015 
       0.471626         477.438         218.977 
        0.48727         447.465         203.841 
       0.502856         423.255          190.56 
       0.518488         413.703         178.298 
       0.534347          393.02         166.753 
       0.550082         374.095         156.344 
       0.565732         369.997         146.991 
       0.581496         358.648         138.328 
       0.597222         348.611         130.321 
       0.612804         338.562             123 
       0.628434          325.57         116.261 
       0.644267         313.429         109.959 
       0.660051         309.813         104.134 
       0.675724         301.402         98.7627 
       0.691403         295.626         93.7639 
       0.707174         283.882         89.0819 
       0.722871         279.605         84.7373 
        0.73838          274.18         80.7281 
       0.754018         264.683         76.9479 
       0.769845         263.693         73.3686 
        0.78569         255.566         70.0139 
       0.801365         247.241         66.9024 
       0.817031         246.025         63.9826 
       0.832809         240.093         61.2189 
       0.848511         235.119         58.6312 
       0.864097         227.558         56.2112 
       0.879701         227.056         53.9256 
       0.895507         220.313         51.7404 
       0.911279          215.49          49.681 
        0.92691         212.545         47.7508 
       0.942635         209.972         45.9126 
       0.958396         204.321         44.1674 
       0.974128         201.998         42.5161 
       0.989692         194.391         40.9655 
        1.00528         193.852         39.4901 
        1.02113         191.391         38.0642 
        1.03692         186.891         36.7141 
        1.05264         182.987         35.4358 
        1.06832         181.673         34.2203 
        1.08405         177.532         33.0587 
        1.09979         175.046         31.9504 
        1.11537         172.743         30.9039 
        1.13105         168.905         29.8981 
        1.14679         167.635         28.9332 
        1.16256         164.232         28.0091 
        1.17828           162.3         27.1284 
        1.19395         158.182         26.2885 
         1.2097         157.475           25.48 
        1.22537         155.937         24.7094 
          1.241         150.722         23.9731 
        1.25666         150.325         23.2649 
        1.27241         147.311          22.582 
        1.28819         145.475         21.9254 
        1.30392          143.69         21.2969 
        1.31957         140.238         20.6957 
        1.33529         137.663         20.1156 
        1.35108         137.067         19.5555 
        1.36674         133.648         19.0206 
         1.3824          132.71         18.5063 
        1.39811         131.242         18.0093 
        1.41389         128.001         17.5286 
        1.42964         126.054         17.0663 
        1.44531         125.422         16.6229 
        1.46101         122.847         16.1943 
        1.47667         122.022         15.7821 
        1.49229          120.41         15.3854 
        1.50793         117.836         15.0018 
        1.52367          116.15         14.6288 
        1.53953         114.152         14.2661 
        1.55526         113.329         13.9185 
        1.57092          112.22         13.5839 
        1.58662         109.908         13.2595 
        1.60235         108.653         12.9451 
        1.61809         106.996         12.6407 
        1.63369         105.111         12.3488 
        1.64941         104.679          12.064 
        1.66519         102.713         11.7872 
        1.68085         101.026          11.521 
        1.69652         100.123          11.263 
        1.71228         98.3234         11.0114 
        1.72806         97.9832         10.7673 
        1.74368         96.6558          10.533 
        1.75933          95.325         10.3052 
        1.77505         94.0619         10.0831 
        1.79081         92.5228         9.86712 
         1.8065         90.7906          9.6584 
        1.82218         89.8842          9.4559 
        1.83797         89.2771         9.25781 
        1.85367         88.0687         9.06648 
        1.86928         87.3593          8.8817 
        1.88497         85.5631         8.70107 
        1.90073         84.9288         8.52478 
        1.91647          83.345         8.35353 
        1.93218         82.5947         8.18735 
        1.94787          80.998         8.02592 
        1.96363         80.5514         7.86821 
        1.97935         79.6708         7.71505 
        1.99499         78.8783         7.56683 
        2.01064         77.4064         7.42228 
         2.0264         76.3674          7.2806 
        2.04216         75.4146         7.14268 
        2.05781         74.3777         7.00919 
        2.07353         73.7323         6.87864 
        2.08928         72.7742         6.75113 
        2.10499         71.9414         6.62719 
        2.12065         70.9864         6.50672 
        2.13633         70.0545         6.38914 
        2.15211         69.0141         6.27371 
        2.16785         68.1034         6.16144 
        2.18349         67.1102         6.05262 
        2.19916         66.6688          5.9462 
        2.21489         65.7866         5.84198 
        2.23063         64.6371         5.74018 
         2.2463         63.9249         5.64126 
        2.26194         63.6328         5.54492 
        2.27765         62.2929         5.45033 
        2.29341         61.7594         5.35769 
        2.30914           60.92          5.2674 
        2.32486         60.3884         5.17923 
        2.34061         59.3635         5.09293 
        2.35635         58.8652         5.00868 
        2.37203         57.8729         4.92661 
        2.38768         57.5045         4.84655 
        2.40339         56.6984         4.76798 
        2.41914         55.8019         4.69097 
        2.43483         55.4783         4.61592 
         2.4505         54.6681         4.54264 
        2.46622         54.1727         4.47069 
        2.48195         53.5763          4.4003 
        2.49759         52.8318         4.33179 
        2.51328         52.0931         4.26456 
        2.52906         51.6286         4.19833 
        2.54479          51.106         4.13376 
        2.56049         50.3314         4.07066 
        2.57618         49.8167         4.00893 
        2.59189         49.2077         3.94838 
        2.60758         48.5122         3.88918 
        2.62325         48.1107         3.83126 
        2.63898          47.709         3.77432 
        2.65468         47.0798         3.71865 
        2.67044         46.6641         3.66387 
        2.68618         46.3375         3.61031 
        2.70184         45.5771         3.55804 
        2.71755         45.0071         3.50666 
        2.73329          44.387         3.45622 
        2.74897           44.02         3.40694 
        2.76462         43.4792         3.35872 
        2.78034         43.1559         3.31124 
        2.79607         42.7026         3.26462 
        2.81179         42.1122         3.21895 
        2.82749         41.7304          3.1742 
        2.84321         41.2728         3.13025 
        2.85893         40.7695         3.08715 
        2.87462          40.463         3.04493 
        2.89033         39.7431         3.00346 
        2.90605         39.3238         2.96272 
        2.92176         39.0557         2.92276 
        2.93747         38.6233         2.88355 
        2.95318         38.1827         2.84506 
        2.96891         37.6893         2.80724 
        2.98456         37.3812         2.77028 
        3.00023          36.951         2.73393 
        3.01596         36.3292         2.69812 
        3.03164         36.0309         2.66305 
        3.04738         35.7197          2.6285 
         3.0631         35.4414         2.59457 
        3.07883         35.0101         2.56124 
        3.09456         34.5887          2.5285 
        3.11026         34.3357         2.49638 
        3.12596         33.9481         2.46482 
        3.14163         33.5395         2.43388 
        3.15734         33.1743         2.40339 
        3.17308         32.9167         2.37335 
        3.18879         32.5763         2.34391 
        3.20447          32.142         2.31501 
         3.2202         31.8864          2.2865 
         3.2359         31.5951         2.25852 
        3.25157         31.2614         2.23108 
        3.26729         30.9327         2.20401 
        3.28304          30.587         2.17733 
        3.29877         30.2091         2.15113 
        3.31446         29.9281         2.12542 
        3.33014         29.6189         2.10015 
        3.34585         29.3009         2.07525 
        3.36158          29.096         2.05071 
        3.37727         28.7168         2.02665 
        3.39294         28.4764           2.003 
        3.40867         28.1964         1.97963 
        3.42439         27.9212         1.95665 
        3.44008         27.6461         1.93408 
        3.45578         27.3906         1.91185 
        3.47153         27.0745         1.88992 
        3.48724         26.8074         1.86837 
        3.50292         26.6392          1.8472 
        3.51859         26.3081         1.82637 
        3.53431         26.0454          1.8058 
        3.55007         25.8088          1.7855 
        3.56577         25.5579         1.76558 
        3.58146         25.3082         1.74598 
        3.59719         25.1009         1.72662 
        3.61292         24.8788         1.70757 
        3.62859         24.5306         1.68888 
        3.64429         24.3547         1.67043 
        3.66003         24.1462         1.65219 
        3.67578         23.8426         1.63424 
        3.69146         23.6451         1.61662 
        3.70712         23.4066         1.59929 
        3.72284         23.2325         1.58215 
        3.73853         23.0448         1.56529 
        3.75422         22.7565         1.54867 
        3.76993         22.5674         1.53227 
        3.78564         22.4076         1.51612 
        3.80137         22.1709         1.50018 
        3.81707         21.9682         1.48449 
        3.83279         21.7533         1.46902 
        3.84853          21.492         1.45374 
        3.86424         21.3579         1.43871 
        3.87992         21.1613         1.42392 
        3.89561         20.8798         1.40933 
        3.91134         20.6754         1.39491 
        3.92704         20.5382         1.38071 
        3.94273         20.3704         1.36672 
        3.95845         20.1749         1.35291 
        3.97418         19.9662         1.33927 
        3.98988         19.7046         1.32585 
        4.00554         19.5731         1.31264 
        4.02125         19.4296         1.29958 
        4.03698         19.2163         1.28667 
        4.05268         19.0569         1.27397 
        4.06839         18.8718         1.26143 
         4.0841         18.6826         1.24906 
        4.09983          18.524         1.23684 
        4.11555         18.3775         1.22478 
        4.13124         18.2528         1.21292 
        4.14693         18.0189         1.20121 
        4.16266         17.8574         1.18962 
        4.17839         17.7776          1.1782 
        4.19408         17.6082         1.16695 
        4.20977         17.4375         1.15584 
        4.22551         17.2884         1.14485 
        4.24123         17.1409         1.13401 
        4.25691         17.0038         1.12334 
        4.27259         16.8628          1.1128 
        4.28831         16.7329         1.10238 
        4.30404          16.562         1.09208 
        4.31974         16.4217         1.08194 
        4.33543          16.261         1.07193 
        4.35116         16.1523         1.06202 
        4.36688         16.0022         1.05224 
        4.38255         15.8625         1.04262 
        4.39825         15.7269          1.0331 
        4.41398           15.62         1.02368 
         4.4297         15.4273         1.01438 
        4.44541          15.359         1.00521 
        4.46111         15.1542         0.99615 
        4.47683         15.0742        0.987197 
        4.49251         14.9481        0.978373 
        4.50819         14.7995        0.969658 
         4.5239         14.6905        0.961036 
        4.53962         14.5574        0.952509 
        4.55535         14.4577         0.94408 
        4.57106          14.348        0.935765 
        4.58678         14.1729        0.927549 
         4.6025         14.0739        0.919428 
        4.61821         13.9898        0.911407 
        4.63391         13.8661         0.90349 
         4.6496         13.7337        0.895671 
        4.66532         13.6072        0.887932 
        4.68103         13.5183        0.880288 
        4.69673         13.4031        0.872741 
        4.71241         13.2933        0.865289 
        4.72811         13.1964        0.857912 
        4.74384         13.0639        0.850611 
        4.75955         12.9555        0.843406 
        4.77525         12.8826        0.836288 
        4.79096         12.7548        0.829244 
        4.80669         12.6679        0.822277 
         4.8224         12.5344        0.815398 
        4.83809         12.4452        0.808604 
        4.85379         12.3505        0.801884 
         4.8695         12.2484        0.795234 
        4.88521         12.1431        0.788662 
        4.90093         12.0804        0.782164 
        4.91663         11.9499        0.775744 
        4.93234         11.8583        0.769389 
        4.94807         11.7737        0.763101 
        4.96377         11.6693        0.756895 
        4.97943         11.5771         0.75077 
        4.99514         11.4862        0.744698 
        5.01086         11.4092        0.738688 
        5.02654         11.3115        0.732759 
        5.04227         11.2211        0.726878 
          5.058         11.1508        0.721058 
        5.07371         11.0623        0.715314 
        5.08942         10.9874         0.70963 
        5.10513         10.9044        0.704008 
        5.12084         10.8184        0.698444 
        5.13656         10.7094        0.692941 
        5.15225         10.6304        0.687506 
        5.16796         10.5633        0.682121 
        5.18369         10.4765        0.676789 
         5.1994         10.3892        0.671522 
        5.21509         10.3113        0.666317 
        5.23079         10.2495         0.66116 
        5.24649         10.1591        0.656062 
        5.26217         10.0775        0.651021 
        5.27788         10.0159        0.646026 
        5.29359          9.9178        0.641082 
        5.30933         9.86891        0.636182 
        5.32504         9.79884        0.631342 
        5.34073         9.70295        0.626557 
        5.35646         9.63972        0.621813 
        5.37218         9.55643        0.617116 
        5.38789         9.52208        0.612475 
        5.40357         9.43567        0.607887 
        5.41929         9.36274        0.603336 
        5.43502          9.2954         0.59883 
         5.4507         9.23087        0.594382 
        5.46639         9.15423        0.589978 
        5.48212         9.07632        0.585608 
        5.49786         9.02219        0.581276 
        5.51353         8.96735        0.577011 
        5.52921         8.89314        0.572783 
        5.54495         8.83084        0.568585 
        5.56066         8.76176        0.564434 
        5.57637         8.69293        0.560325 
        5.59207         8.64088         0.55626 
        5.60778         8.57782        0.552234 
        5.62346         8.52523        0.548253 
        5.63916         8.45759        0.544307 
        5.65487         8.40968        0.540398 
         5.6706         8.31933        0.536523 
        5.68633         8.27324        0.532685 
        5.70203         8.21462        0.528891 
        5.71773         8.15879        0.525135 
        5.73344         8.09583        0.521414 
        5.74916         8.04515        0.517725 
        5.76486         8.00405        0.514077 
        5.78054         7.92289        0.510469 
        5.79626         7.86633        0.506886 
          5.812         7.81133        0.503333 
         5.8277         7.74166        0.499825 
        5.84339          7.7069         0.49635 
        5.85911         7.64366        0.492902 
        5.87484         7.61059        0.489486 
        5.89053         7.56188         0.48611 
        5.90623         7.50015        0.482764 
        5.92195         7.43161        0.479443 
        5.93767         7.39779        0.476156 
        5.95336         7.33729        0.472905 
        5.96905         7.28712        0.469685 
        5.98476         7.25382         0.46649 
        6.00048         7.18626        0.463324 
        6.01617         7.16339        0.460192 
        6.03185         7.09704        0.457092 
        6.04756         7.03934        0.454014 
        6.06331         6.98962        0.450957 
        6.07903         6.95144        0.447934 
        6.09473         6.90984        0.444942 
        6.11044         6.85904        0.441975 
        6.12616         6.81051        0.439035 
        6.14186         6.76547        0.436124 
        6.15755         6.73289         0.43324 
        6.17326         6.66686         0.43038 
        6.18898         6.64074        0.427544 
        6.20467         6.58184        0.424739 
        6.22036         6.54608        0.421959 
         6.2361         6.49678        0.419197 
         6.2518         6.46889        0.416463 
        6.26748         6.41376         0.41376 
        6.28319          6.3777        0.411074 
        6.29893         6.33886        0.408408 
        6.31463         6.28633        0.405771 
        6.33033         6.25399        0.403158 
        6.34604         6.21083        0.400566 
        6.36177         6.17628        0.397995 
        6.37747         6.13092         0.39545 
