# k  (h/Mpc)    Pcb(k)  (Mpc/h)^3    Pcb_linear(k) (Mpc/h)^3   ShotnoiseSubtracted = true
      0.0200456         16640.9           16938 
      0.0350414         10248.4         10561.9 
      0.0492313         6893.35         6913.24 
      0.0637834          5827.3         5635.09 
      0.0800726         4575.44         4454.48 
       0.096163         3006.56         3023.92 
       0.111083          2296.9          2274.7 
       0.126058         2115.92         2034.24 
       0.142273         1857.16         1754.83 
       0.158546         1532.06         1334.76 
        0.17375         1186.34          1073.7 
       0.188953         1149.51         973.482 
       0.204907         1082.18         879.976 
       0.220756         915.688         734.358 
        0.23588         800.735         617.241 
         0.2514         689.726         555.212 
       0.267535         674.524         509.484 
       0.283568         609.451         448.684 
       0.299022         568.522          391.62 
       0.314451         533.503         353.424 
       0.330372         489.473         325.689 
       0.346141         443.625         296.337 
       0.361624         428.553         266.654 
       0.377134          394.29         242.679 
       0.392932         373.846         224.204 
       0.408854         359.178         206.976 
       0.424564         336.744         189.962 
       0.440253         328.512          174.81 
       0.455999         307.652         162.261 
       0.471626         290.929         151.251 
        0.48727         278.018         140.702 
       0.502856         269.083         130.961 
       0.518488         265.985         122.356 
       0.534347         249.242         114.605 
       0.550082         235.341         107.476 
       0.565732         231.319         100.852 
       0.581496         218.082          94.774 
       0.597222         213.378         89.2847 
       0.612804         207.052         84.2751 
       0.628434         198.374         79.5966 
       0.644267         192.094         75.1999 
       0.660051         189.263         71.1712 
       0.675724         184.583         67.4743 
       0.691403         179.176         64.0348 
       0.707174         172.789         60.8132 
       0.722871         169.618         57.8237 
        0.73838         166.548          55.065 
       0.754018         162.561          52.464 
       0.769845         156.965         50.0013 
        0.78569         155.534         47.6934 
       0.801365         149.494         45.5531 
       0.817031         145.094         43.5452 
       0.832809         144.107         41.6455 
       0.848511         139.186         39.8678 
       0.864097         137.837         38.2062 
       0.879701         134.759         36.6378 
       0.895507         131.042         35.1391 
       0.911279         127.416         33.7274 
        0.92691         127.247          32.405 
       0.942635         123.343         31.1462 
       0.958396         123.043         29.9517 
       0.974128          119.76          28.822 
       0.989692         117.398         27.7617 
        1.00528         115.344         26.7531 
        1.02113         113.981         25.7788 
        1.03692         111.119         24.8566 
        1.05264         108.786         23.9837 
        1.06832         106.884          23.154 
        1.08405         105.387         22.3614 
        1.09979          104.48         21.6053 
        1.11537         101.914         20.8916 
        1.13105         100.681         20.2058 
        1.14679         99.8692         19.5481 
        1.16256         98.4848         18.9184 
        1.17828         96.6654         18.3185 
        1.19395         94.7121         17.7466 
         1.2097         93.4911         17.1961 
        1.22537         92.7101         16.6716 
          1.241         91.0772         16.1706 
        1.25666          89.546         15.6888 
        1.27241         87.8081         15.2244 
        1.28819          87.154          14.778 
        1.30392         85.1276         14.3508 
        1.31957         84.8524         13.9423 
        1.33529         82.7556         13.5483 
        1.35108         82.0138         13.1678 
        1.36674         81.3556         12.8047 
         1.3824         79.7858         12.4556 
        1.39811         78.6812         12.1183 
        1.41389         77.8207         11.7922 
        1.42964         76.1149         11.4786 
        1.44531         74.9791         11.1779 
        1.46101         73.9854         10.8874 
        1.47667         73.9106          10.608 
        1.49229         72.6645         10.3391 
        1.50793         71.9393         10.0793 
        1.52367         70.7073         9.82668 
        1.53953         69.7213         9.58102 
        1.55526         69.2283          9.3457 
        1.57092         68.8308         9.11923 
        1.58662         66.8749         8.89972 
        1.60235         66.8742         8.68699 
        1.61809         65.7982         8.48109 
        1.63369         65.1152         8.28367 
        1.64941         64.7709         8.09111 
        1.66519         63.0977         7.90397 
        1.68085         63.0566         7.72406 
        1.69652         61.5953         7.54968 
        1.71228         61.3263         7.37968 
        1.72806          60.871         7.21478 
        1.74368         60.0009         7.05655 
        1.75933         58.9253         6.90273 
        1.77505         58.7537         6.75278 
        1.79081         57.7696           6.607 
         1.8065         56.9875         6.46613 
        1.82218         56.4881         6.32949 
        1.83797         55.7793         6.19585 
        1.85367         55.5361         6.06679 
        1.86928         54.7365         5.94217 
        1.88497         54.1064         5.82037 
        1.90073         53.3568         5.70152 
        1.91647         53.0508         5.58609 
        1.93218         52.5089         5.47409 
        1.94787         51.8744         5.36531 
        1.96363         51.2492         5.25905 
        1.97935         50.8901         5.15588 
        1.99499         50.2586         5.05606 
        2.01064         49.6666         4.95872 
         2.0264         48.8282         4.86333 
        2.04216         48.5768         4.77048 
        2.05781         47.9859         4.68064 
        2.07353         47.1297         4.59278 
        2.08928         46.9647         4.50699 
        2.10499         46.2648          4.4236 
        2.12065         45.9767         4.34257 
        2.13633         45.4994         4.26349 
        2.15211         45.2395         4.18587 
        2.16785         44.7418         4.11039 
        2.18349         44.4094         4.03724 
        2.19916           43.67         3.96571 
        2.21489         43.4243         3.89566 
        2.23063         43.0384         3.82726 
         2.2463         42.4192          3.7608 
        2.26194         41.8105         3.69609 
        2.27765         41.8592         3.63255 
        2.29341          41.148         3.57034 
        2.30914         40.6095         3.50971 
        2.32486         40.0172         3.45052 
        2.34061         39.9374         3.39259 
        2.35635         39.2155         3.33604 
        2.37203         39.0047         3.28096 
        2.38768         38.5105         3.22724 
        2.40339         38.2048         3.17453 
        2.41914         37.8336         3.12286 
        2.43483         37.5999         3.07252 
         2.4505         37.3726         3.02338 
        2.46622          36.668         2.97513 
        2.48195         36.4705         2.92793 
        2.49759         35.9346         2.88201 
        2.51328         35.6945         2.83694 
        2.52906         35.2798         2.79255 
        2.54479         34.9801         2.74927 
        2.56049         34.4334         2.70699 
        2.57618         34.3389         2.66564 
        2.59189         33.7869         2.62508 
        2.60758         33.7125         2.58542 
        2.62325         33.2106         2.54663 
        2.63898         32.9225          2.5085 
        2.65468         32.4015         2.47122 
        2.67044         32.1842         2.43454 
        2.68618         31.9036         2.39869 
        2.70184         31.6543          2.3637 
        2.71755         31.3094         2.32932 
        2.73329         31.1245         2.29556 
        2.74897         30.6873         2.26258 
        2.76462         30.3789         2.23033 
        2.78034         30.2244         2.19856 
        2.79607          29.875         2.16738 
        2.81179         29.6027         2.13683 
        2.82749         29.2373         2.10691 
        2.84321         29.0358         2.07752 
        2.85893         28.8178          2.0487 
        2.87462         28.4996         2.02047 
        2.89033         28.1457         1.99275 
        2.90605           27.99         1.96552 
        2.92176         27.7193         1.93882 
        2.93747         27.4346         1.91262 
        2.95318           27.16         1.88689 
        2.96891         26.9334         1.86163 
        2.98456         26.6981         1.83694 
        3.00023         26.3781         1.81266 
        3.01596         26.1542         1.78874 
        3.03164         25.9705         1.76532 
        3.04738         25.7156         1.74225 
         3.0631         25.4027         1.71959 
        3.07883         25.2443         1.69734 
        3.09456         25.0151         1.67548 
        3.11026         24.8059         1.65404 
        3.12596         24.5882         1.63298 
        3.14163         24.3558         1.61233 
        3.15734         24.1102         1.59198 
        3.17308          23.875         1.57194 
        3.18879         23.7159          1.5523 
        3.20447         23.5069         1.53302 
         3.2202         23.2255           1.514 
         3.2359         23.0523         1.49534 
        3.25157         22.8093         1.47704 
        3.26729         22.6922         1.45899 
        3.28304         22.4124          1.4412 
        3.29877         22.2401         1.42373 
        3.31446         21.9512         1.40659 
        3.33014         21.8232         1.38974 
        3.34585         21.6161         1.37315 
        3.36158         21.3928          1.3568 
        3.37727         21.2654         1.34076 
        3.39294         21.0562           1.325 
        3.40867         20.8895         1.30943 
        3.42439         20.6668         1.29412 
        3.44008         20.5773         1.27908 
        3.45578         20.2738         1.26427 
        3.47153         20.0933         1.24967 
        3.48724         19.9387         1.23531 
        3.50292         19.8599         1.22122 
        3.51859         19.6008         1.20735 
        3.53431         19.4476         1.19365 
        3.55007         19.2847         1.18013 
        3.56577         19.0761         1.16687 
        3.58146          18.898         1.15382 
        3.59719         18.7461         1.14094 
        3.61292         18.5934         1.12826 
        3.62859          18.452         1.11582 
        3.64429         18.2755         1.10354 
        3.66003         18.1265         1.09141 
        3.67578         18.0315         1.07947 
        3.69146         17.8814         1.06774 
        3.70712         17.6257         1.05621 
        3.72284         17.5318         1.04481 
        3.73853         17.3728          1.0336 
        3.75422         17.2637         1.02255 
        3.76993          17.081         1.01164 
        3.78564         16.9084          1.0009 
        3.80137         16.7998        0.990301 
        3.81707         16.6685        0.979874 
        3.83279         16.4777        0.969587 
        3.84853         16.3349        0.959432 
        3.86424         16.2148        0.949441 
        3.87992         16.0645        0.939606 
        3.89561         15.9382         0.92991 
        3.91134         15.8285         0.92033 
        3.92704         15.6619        0.910896 
        3.94273         15.5787        0.901602 
        3.95845         15.4159        0.892421 
        3.97418         15.3182        0.883365 
        3.98988         15.1926        0.874446 
        4.00554         15.0306        0.865675 
        4.02125         14.9585        0.856998 
        4.03698         14.8002        0.848426 
        4.05268         14.6678         0.83999 
        4.06839         14.5356        0.831662 
         4.0841         14.4373        0.823449 
        4.09983         14.3335        0.815335 
        4.11555         14.1838        0.807333 
        4.13124         14.0979         0.79946 
        4.14693         13.9974        0.791685 
        4.16266         13.8613        0.783995 
        4.17839         13.7608        0.776411 
        4.19408         13.6605        0.768944 
        4.20977         13.5225        0.761572 
        4.22551         13.3826        0.754278 
        4.24123         13.2876        0.747087 
        4.25691         13.1729        0.740009 
        4.27259         13.0971         0.73302 
        4.28831         12.9878        0.726106 
        4.30404         12.8982        0.719275 
        4.31974         12.7724        0.712547 
        4.33543         12.6665        0.705907 
        4.35116         12.5594        0.699336 
        4.36688         12.4816        0.692851 
        4.38255         12.3759        0.686472 
        4.39825         12.2978        0.680159 
        4.41398         12.1717        0.673912 
         4.4297         12.0797        0.667751 
        4.44541         11.9784        0.661667 
        4.46111         11.8766        0.655663 
        4.47683         11.7779        0.649729 
        4.49251         11.6985         0.64388 
        4.50819         11.6279        0.638104 
         4.5239          11.519        0.632391 
        4.53962         11.4122         0.62674 
        4.55535         11.3612        0.621155 
        4.57106         11.2628        0.615646 
        4.58678         11.1618        0.610202 
         4.6025         11.0721        0.604822 
        4.61821         11.0055        0.599508 
        4.63391         10.9249        0.594265 
         4.6496         10.8379        0.589086 
        4.66532         10.7445         0.58396 
        4.68103          10.651        0.578898 
        4.69673         10.5861          0.5739 
        4.71241         10.5055        0.568965 
        4.72811         10.4224         0.56408 
        4.74384         10.3448        0.559247 
        4.75955         10.2489        0.554477 
        4.77525         10.1722        0.549764 
        4.79096         10.0977        0.545101 
        4.80669         10.0147        0.540489 
         4.8224         9.96884        0.535936 
        4.83809         9.88315         0.53144 
        4.85379         9.79106        0.526992 
         4.8695         9.72579        0.522591 
        4.88521         9.66861        0.518243 
        4.90093         9.61132        0.513943 
        4.91663         9.52914        0.509695 
        4.93234         9.46255         0.50549 
        4.94807         9.39273         0.50133 
        4.96377         9.31593        0.497225 
        4.97943         9.25992        0.493174 
        4.99514         9.18651        0.489157 
        5.01086         9.11471        0.485182 
        5.02654         9.02903        0.481261 
        5.04227         8.97468        0.477371 
          5.058         8.92619        0.473523 
        5.07371         8.85774        0.469724 
        5.08942         8.77183        0.465966 
        5.10513         8.72586        0.462249 
        5.12084         8.65811         0.45857 
        5.13656         8.60368        0.454932 
        5.15225         8.52787        0.451339 
        5.16796         8.46684        0.447779 
        5.18369         8.40261        0.444254 
         5.1994         8.36112        0.440774 
        5.21509         8.31404        0.437333 
        5.23079         8.22304        0.433925 
        5.24649         8.16753        0.430556 
        5.26217         8.11492        0.427225 
        5.27788         8.05925        0.423924 
        5.29359         7.99204        0.420658 
        5.30933         7.93427        0.417421 
        5.32504         7.88184        0.414223 
        5.34073         7.81987        0.411062 
        5.35646         7.75777        0.407927 
        5.37218         7.71123        0.404825 
        5.38789         7.64388        0.401759 
        5.40357         7.62418        0.398729 
        5.41929         7.55998        0.395723 
        5.43502         7.51106        0.392748 
         5.4507         7.45683         0.38981 
        5.46639         7.38787        0.386902 
        5.48212         7.33962        0.384016 
        5.49786         7.30852        0.381157 
        5.51353         7.23459         0.37834 
        5.52921         7.20066        0.375549 
        5.54495          7.1521        0.372778 
        5.56066          7.0971        0.370037 
        5.57637         7.06131        0.367325 
        5.59207         6.99973        0.364642 
        5.60778         6.96027        0.361984 
        5.62346         6.91739        0.359357 
        5.63916         6.86077        0.356753 
        5.65487         6.81857        0.354174 
         5.6706         6.77039        0.351616 
        5.68633         6.73148        0.349083 
        5.70203         6.68651         0.34658 
        5.71773         6.62688        0.344102 
        5.73344         6.59139        0.341647 
        5.74916         6.55262        0.339213 
        5.76486         6.50503        0.336807 
        5.78054          6.4765        0.334427 
        5.79626         6.42013        0.332063 
          5.812         6.38843         0.32972 
         5.8277         6.33533        0.327406 
        5.84339          6.2995        0.325114 
        5.85911          6.2626         0.32284 
        5.87484         6.21821        0.320588 
        5.89053         6.16204        0.318361 
        5.90623         6.12647        0.316155 
        5.92195         6.09106        0.313965 
        5.93767         6.04627        0.311798 
        5.95336          6.0072        0.309654 
        5.96905         5.95994        0.307531 
        5.98476         5.92544        0.305426 
        6.00048         5.89988        0.303339 
        6.01617         5.86324        0.301274 
        6.03185         5.82287        0.299231 
        6.04756         5.78912        0.297201 
        6.06331         5.75245        0.295187 
        6.07903         5.72026        0.293195 
        6.09473         5.67226        0.291223 
        6.11044         5.63807        0.289267 
        6.12616         5.59839         0.28733 
        6.14186         5.56727        0.285412 
        6.15755         5.52726        0.283512 
        6.17326         5.49657        0.281628 
        6.18898          5.4626        0.279759 
        6.20467         5.42712        0.277911 
        6.22036         5.38943         0.27608 
         6.2361         5.35906         0.27426 
         6.2518         5.32457        0.272459 
        6.26748         5.28996        0.270679 
        6.28319         5.26494        0.268909 
        6.29893           5.227        0.267154 
        6.31463         5.18365        0.265417 
        6.33033         5.15878        0.263696 
        6.34604         5.12956        0.261989 
        6.36177         5.10368        0.260296 
        6.37747         5.07118        0.258621 
