# k  (h/Mpc)    Pcb(k)  (Mpc/h)^3    Pcb_linear(k) (Mpc/h)^3   ShotnoiseSubtracted = true
      0.0200456         2988.42         3024.45 
      0.0350414         1930.14         1885.94 
      0.0492313         1240.83         1234.43 
      0.0637834         993.923          1006.2 
      0.0800726         779.202         795.395 
       0.096163         555.208         539.953 
       0.111083         421.961         406.171 
       0.126058          362.44         363.235 
       0.142273         311.232         313.342 
       0.158546         243.284         238.335 
        0.17375         200.017          191.72 
       0.188953         180.335         173.825 
       0.204907         156.428         157.129 
       0.220756         135.803         131.127 
        0.23588         115.511         110.215 
         0.2514         103.273         99.1389 
       0.267535         96.3275         90.9738 
       0.283568         84.2461         80.1173 
       0.299022         75.8461         69.9278 
       0.314451         70.6801         63.1076 
       0.330372         63.0904         58.1551 
       0.346141         57.5715         52.9141 
       0.361624         52.4618         47.6139 
       0.377134         47.6041         43.3329 
       0.392932         45.7015         40.0339 
       0.408854         41.7703         36.9578 
       0.424564         39.5725         33.9197 
       0.440253         35.8767         31.2141 
       0.455999         32.5683         28.9735 
       0.471626         30.8239         27.0075 
        0.48727         29.7123         25.1238 
       0.502856         27.6541         23.3845 
       0.518488         25.7106          21.848 
       0.534347         24.0775         20.4639 
       0.550082         23.0701          19.191 
       0.565732         22.0642         18.0081 
       0.581496         20.6029         16.9229 
       0.597222         19.4612         15.9427 
       0.612804         18.3757         15.0482 
       0.628434         17.9846         14.2128 
       0.644267         16.9333         13.4277 
       0.660051         16.0142         12.7084 
       0.675724          15.203         12.0482 
       0.691403         14.8083         11.4341 
       0.707174         14.0942         10.8588 
       0.722871         13.6168          10.325 
        0.73838         12.8647         9.83244 
       0.754018         12.1179         9.36799 
       0.769845         11.7821         8.92826 
        0.78569         11.4017         8.51616 
       0.801365         10.9034         8.13398 
       0.817031         10.4461         7.77545 
       0.832809         10.0785         7.43624 
       0.848511         9.72369         7.11882 
       0.864097         9.37211         6.82212 
       0.879701         9.17564         6.54207 
       0.895507         8.80812         6.27446 
       0.911279         8.41184         6.02239 
        0.92691         8.20511         5.78625 
       0.942635         7.94339         5.56149 
       0.958396         7.67842         5.34819 
       0.974128         7.46173         5.14647 
       0.989692         7.07376         4.95713 
        1.00528         6.99647         4.77705 
        1.02113         6.74193         4.60308 
        1.03692         6.58065         4.43841 
        1.05264         6.38917         4.28255 
        1.06832          6.2296          4.1344 
        1.08405         6.03868         3.99285 
        1.09979         5.87081         3.85785 
        1.11537         5.69536         3.73041 
        1.13105         5.56533         3.60796 
        1.14679         5.43283         3.49053 
        1.16256         5.28652         3.37809 
        1.17828          5.1668         3.27096 
        1.19395         5.02086         3.16884 
         1.2097         4.85408         3.07055 
        1.22537         4.74793          2.9769 
          1.241         4.60804         2.88743 
        1.25666         4.57434         2.80141 
        1.27241         4.46619         2.71848 
        1.28819         4.27261         2.63877 
        1.30392         4.22416         2.56249 
        1.31957         4.10458         2.48955 
        1.33529         4.02329         2.41918 
        1.35108         3.93459         2.35125 
        1.36674         3.81971         2.28641 
         1.3824         3.77016         2.22407 
        1.39811         3.69071         2.16385 
        1.41389         3.58966         2.10562 
        1.42964         3.52461         2.04962 
        1.44531         3.44696         1.99594 
        1.46101         3.41363         1.94406 
        1.47667         3.32397         1.89417 
        1.49229         3.21283         1.84616 
        1.50793         3.16059         1.79976 
        1.52367         3.09101         1.75466 
        1.53953         3.03882         1.71079 
        1.55526         3.01054         1.66877 
        1.57092         2.93448         1.62833 
        1.58662          2.8819         1.58914 
        1.60235         2.83499         1.55115 
        1.61809         2.77609         1.51439 
        1.63369         2.71868         1.47914 
        1.64941         2.66308         1.44475 
        1.66519         2.63866         1.41134 
        1.68085         2.57608         1.37921 
        1.69652         2.53599         1.34807 
        1.71228         2.50565         1.31772 
        1.72806         2.45388         1.28827 
        1.74368         2.41177         1.26002 
        1.75933         2.37063         1.23256 
        1.77505         2.32177         1.20578 
        1.79081          2.2885         1.17975 
         1.8065         2.26101          1.1546 
        1.82218         2.21412          1.1302 
        1.83797         2.16886         1.10633 
        1.85367         2.13854         1.08329 
        1.86928         2.11256         1.06104 
        1.88497         2.06831         1.03929 
        1.90073         2.04625         1.01807 
        1.91647         2.00577        0.997455 
        1.93218         1.97649        0.977456 
        1.94787         1.95497        0.958033 
        1.96363         1.92602        0.939059 
        1.97935         1.89414        0.920637 
        1.99499         1.86647        0.902812 
        2.01064         1.84065        0.885431 
         2.0264         1.81256        0.868398 
        2.04216         1.78306         0.85182 
        2.05781         1.75963        0.835777 
        2.07353         1.74053         0.82009 
        2.08928         1.71116         0.80477 
        2.10499         1.67908        0.789881 
        2.12065         1.67424        0.775412 
        2.13633         1.64624        0.761292 
        2.15211         1.61176        0.747431 
        2.16785         1.59687        0.733953 
        2.18349         1.57646        0.720891 
        2.19916         1.55865        0.708118 
        2.21489         1.54313        0.695612 
        2.23063         1.51306        0.683398 
         2.2463         1.49088        0.671531 
        2.26194          1.4741        0.659975 
        2.27765         1.44121         0.64863 
        2.29341         1.42972        0.637522 
        2.30914         1.41399        0.626696 
        2.32486         1.40471        0.616127 
        2.34061         1.38267        0.605783 
        2.35635         1.36591        0.595684 
        2.37203          1.3569         0.58585 
        2.38768          1.3374        0.576258 
        2.40339         1.31095        0.566845 
        2.41914         1.30064         0.55762 
        2.43483         1.28402        0.548632 
         2.4505         1.26816        0.539856 
        2.46622         1.25369        0.531241 
        2.48195         1.24275        0.522813 
        2.49759         1.22331        0.514613 
        2.51328         1.21438        0.506566 
        2.52906         1.19883        0.498639 
        2.54479         1.18359        0.490912 
        2.56049         1.17296        0.483362 
        2.57618         1.15949        0.475977 
        2.59189         1.14745        0.468735 
        2.60758         1.13695        0.461654 
        2.62325         1.11681        0.454728 
        2.63898         1.10463        0.447919 
        2.65468         1.09135        0.441263 
        2.67044         1.08509        0.434713 
        2.68618         1.07471        0.428311 
        2.70184         1.06522        0.422063 
        2.71755         1.05057        0.415924 
        2.73329         1.03636        0.409897 
        2.74897         1.02961        0.404008 
        2.76462         1.01996        0.398248 
        2.78034         1.00967        0.392576 
        2.79607        0.996822        0.387008 
        2.81179        0.986935        0.381554 
        2.82749        0.976844         0.37621 
        2.84321         0.96694        0.370963 
        2.85893        0.956622        0.365817 
        2.87462          0.9523        0.360777 
        2.89033        0.942799        0.355827 
        2.90605        0.931517        0.350965 
        2.92176        0.923945        0.346196 
        2.93747        0.914755        0.341518 
        2.95318        0.906208        0.336925 
        2.96891        0.899402        0.332414 
        2.98456        0.889912        0.328005 
        3.00023        0.881304        0.323669 
        3.01596        0.869096        0.319398 
        3.03164        0.864772        0.315216 
        3.04738        0.857724        0.311096 
         3.0631        0.850316        0.307051 
        3.07883        0.841284        0.303078 
        3.09456         0.83463        0.299175 
        3.11026        0.828284        0.295347 
        3.12596        0.819671        0.291585 
        3.14163        0.814278        0.287898 
        3.15734        0.804724        0.284266 
        3.17308        0.799404        0.280687 
        3.18879        0.794992        0.277179 
        3.20447        0.784541        0.273736 
         3.2202        0.781378        0.270341 
         3.2359        0.774365        0.267009 
        3.25157          0.7642        0.263741 
        3.26729        0.760455        0.260518 
        3.28304        0.754637        0.257342 
        3.29877        0.747158        0.254222 
        3.31446        0.742934        0.251162 
        3.33014         0.73631        0.248153 
        3.34585        0.729684         0.24519 
        3.36158        0.725636         0.24227 
        3.37727        0.721865        0.239407 
        3.39294        0.713529        0.236592 
        3.40867        0.710919        0.233812 
        3.42439        0.703008        0.231079 
        3.44008        0.699286        0.228394 
        3.45578         0.69361        0.225749 
        3.47153        0.688523        0.223141 
        3.48724        0.683267        0.220578 
        3.50292        0.677235        0.218061 
        3.51859        0.675145        0.215585 
        3.53431        0.668727        0.213139 
        3.55007        0.664595        0.210725 
        3.56577        0.660113        0.208357 
        3.58146        0.656646        0.206027 
        3.59719        0.651077        0.203727 
        3.61292        0.645999        0.201463 
        3.62859        0.642374        0.199241 
        3.64429        0.637255        0.197049 
        3.66003        0.633019        0.194883 
        3.67578        0.628922         0.19275 
        3.69146        0.624469        0.190657 
        3.70712        0.620179        0.188598 
        3.72284        0.615687        0.186562 
        3.73853        0.610744         0.18456 
        3.75422        0.609483        0.182586 
        3.76993        0.603031        0.180639 
        3.78564        0.598255        0.178722 
        3.80137        0.595309        0.176829 
        3.81707        0.589742        0.174967 
        3.83279        0.588332         0.17313 
        3.84853        0.583307        0.171317 
        3.86424        0.579448        0.169533 
        3.87992        0.576882        0.167777 
        3.89561         0.57216        0.166045 
        3.91134        0.568588        0.164335 
        3.92704        0.565631         0.16265 
        3.94273        0.562715        0.160991 
        3.95845        0.555998        0.159351 
        3.97418        0.553102        0.157734 
        3.98988        0.550492        0.156142 
        4.00554        0.546497        0.154575 
        4.02125        0.542158        0.153026 
        4.03698        0.538338        0.151495 
        4.05268        0.532583        0.149989 
        4.06839        0.528064        0.148502 
         4.0841        0.525921        0.147035 
        4.09983        0.522815        0.145587 
        4.11555        0.517474        0.144158 
        4.13124        0.512751        0.142752 
        4.14693        0.509591        0.141364 
        4.16266         0.50632         0.13999 
        4.17839        0.501563        0.138636 
        4.19408        0.497469        0.137303 
        4.20977        0.495423        0.135987 
        4.22551        0.490039        0.134684 
        4.24123        0.486936          0.1334 
        4.25691        0.483935        0.132136 
        4.27259        0.480932        0.130888 
        4.28831        0.479506        0.129654 
        4.30404        0.474443        0.128434 
        4.31974        0.471787        0.127233 
        4.33543        0.467856        0.126047 
        4.35116        0.465845        0.124874 
        4.36688        0.462708        0.123716 
        4.38255        0.460826        0.122577 
        4.39825        0.457996         0.12145 
        4.41398        0.455448        0.120334 
         4.4297        0.453613        0.119234 
        4.44541        0.450426        0.118148 
        4.46111        0.448314        0.117075 
        4.47683        0.445985        0.116016 
        4.49251         0.44332        0.114972 
        4.50819        0.441167         0.11394 
         4.5239        0.439183         0.11292 
        4.53962         0.43657        0.111911 
        4.55535        0.434918        0.110914 
        4.57106        0.432333         0.10993 
        4.58678        0.431655        0.108958 
         4.6025        0.430032        0.107997 
        4.61821         0.42866        0.107049 
        4.63391        0.427279        0.106112 
         4.6496        0.423401        0.105187 
        4.66532        0.423431        0.104272 
        4.68103        0.421291        0.103368 
        4.69673         0.42037        0.102476 
        4.71241        0.418555        0.101595 
        4.72811        0.417245        0.100722 
        4.74384        0.417544       0.0998594 
        4.75955        0.414765       0.0990076 
        4.77525         0.41301       0.0981662 
        4.79096        0.413349       0.0973335 
        4.80669        0.412094       0.0965101 
         4.8224        0.410301        0.095697 
        4.83809        0.410304       0.0948942 
        4.85379         0.40856          0.0941 
         4.8695        0.407741       0.0933142 
        4.88521        0.406432       0.0925377 
        4.90093        0.406743       0.0917699 
        4.91663        0.405265       0.0910114 
        4.93234        0.404164       0.0902606 
        4.94807        0.403434       0.0895178 
        4.96377        0.404427       0.0887847 
        4.97943         0.40403       0.0880613 
        4.99514         0.40263       0.0873441 
        5.01086        0.402444       0.0866343 
        5.02654        0.402023       0.0859341 
        5.04227        0.401717       0.0852396 
          5.058        0.402035       0.0845524 
        5.07371        0.401533       0.0838741 
        5.08942        0.400929       0.0832031 
        5.10513         0.40115       0.0825394 
        5.12084        0.400332       0.0818825 
        5.13656        0.400509       0.0812329 
        5.15225        0.400304       0.0805913 
        5.16796          0.4012       0.0799557 
        5.18369        0.402062       0.0793263 
         5.1994        0.401361       0.0787048 
        5.21509        0.401552       0.0780905 
        5.23079        0.402173       0.0774819 
        5.24649        0.402225       0.0768804 
        5.26217        0.403094       0.0762855 
        5.27788        0.403088       0.0756961 
        5.29359        0.404174       0.0751128 
        5.30933        0.404287       0.0745348 
        5.32504        0.404193       0.0739638 
        5.34073        0.404324       0.0733994 
        5.35646        0.405443       0.0728397 
        5.37218        0.405048       0.0722857 
        5.38789         0.40547       0.0717384 
        5.40357        0.407041       0.0711973 
        5.41929        0.408244       0.0706606 
        5.43502        0.407713       0.0701293 
         5.4507        0.408573       0.0696047 
        5.46639        0.409556       0.0690854 
        5.48212          0.4099       0.0685702 
        5.49786        0.412318       0.0680595 
        5.51353        0.414185       0.0675566 
        5.52921        0.412769       0.0670582 
        5.54495        0.413828       0.0665634 
        5.56066        0.416179       0.0660741 
        5.57637        0.417533       0.0655897 
        5.59207        0.417713       0.0651106 
        5.60778        0.418563       0.0646361 
        5.62346        0.420892        0.064167 
        5.63916        0.420232        0.063702 
        5.65487        0.421405       0.0632414 
         5.6706        0.420486       0.0627848 
        5.68633        0.423864       0.0623325 
        5.70203          0.4253       0.0618856 
        5.71773        0.426559       0.0614431 
        5.73344          0.4276       0.0610047 
        5.74916        0.428491       0.0605701 
        5.76486        0.429055       0.0601404 
        5.78054        0.431449       0.0597154 
        5.79626        0.432829       0.0592934 
          5.812        0.433142        0.058875 
         5.8277        0.434452       0.0584618 
        5.84339        0.436924       0.0580526 
        5.85911        0.436715       0.0576465 
        5.87484        0.439252       0.0572443 
        5.89053        0.440411       0.0568467 
        5.90623        0.441305       0.0564528 
        5.92195        0.443284       0.0560618 
        5.93767        0.444999       0.0556748 
        5.95336        0.445734        0.055292 
        5.96905        0.447117        0.054913 
        5.98476        0.447336       0.0545369 
        6.00048        0.449442       0.0541643 
        6.01617         0.44954       0.0537956 
        6.03185        0.452112       0.0534308 
        6.04756        0.453672       0.0530684 
        6.06331         0.45565       0.0527087 
        6.07903        0.456119        0.052353 
        6.09473        0.457228       0.0520009 
        6.11044        0.459043       0.0516517 
        6.12616        0.461082       0.0513058 
        6.14186         0.46152       0.0509634 
        6.15755        0.463909       0.0506241 
        6.17326        0.465033       0.0502876 
        6.18898        0.465598        0.049954 
        6.20467         0.46809        0.049624 
        6.22036        0.469304        0.049297 
         6.2361        0.471018        0.048972 
         6.2518        0.470751       0.0486505 
        6.26748        0.472642       0.0483326 
        6.28319        0.474745       0.0480166 
        6.29893        0.475404       0.0477032 
        6.31463        0.477679        0.047393 
        6.33033        0.476429       0.0470858 
        6.34604        0.479868        0.046781 
        6.36177        0.480908       0.0464786 
        6.37747        0.482904       0.0461794 
