# k  (h/Mpc)    Pcb(k)  (Mpc/h)^3    Pcb_linear(k) (Mpc/h)^3   ShotnoiseSubtracted = true
      0.0200456         13613.1         13802.8 
      0.0350414         8927.49         8606.95 
      0.0492313         5621.83         5633.63 
      0.0637834         4468.44         4592.06 
      0.0800726         3489.65         3629.98 
       0.096163         2604.92         2464.21 
       0.111083         2004.41         1853.66 
       0.126058         1676.27         1657.71 
       0.142273         1460.59         1430.01 
       0.158546         1165.07          1087.7 
        0.17375         985.761         874.963 
       0.188953         912.854         793.295 
       0.204907         781.328         717.096 
       0.220756         694.611         598.431 
        0.23588          606.47         502.992 
         0.2514         536.765         452.445 
       0.267535         519.959         415.181 
       0.283568         451.378         365.635 
       0.299022         426.214         319.133 
       0.314451         426.333         288.007 
       0.330372         363.589         265.405 
       0.346141         335.279         241.487 
       0.361624          317.72         217.298 
       0.377134         295.093          197.76 
       0.392932         283.842         182.704 
       0.408854         269.868         168.666 
       0.424564         259.197         154.801 
       0.440253         233.436         142.453 
       0.455999         220.712         132.228 
       0.471626         220.124         123.255 
        0.48727         207.782         114.659 
       0.502856         190.174         106.721 
       0.518488         189.813         99.7085 
       0.534347         176.324          93.392 
       0.550082         170.541         87.5826 
       0.565732          169.12         82.1845 
       0.581496          157.64         77.2318 
       0.597222         153.424         72.7585 
       0.612804         147.667         68.6761 
       0.628434         143.714         64.8636 
       0.644267         136.006         61.2808 
       0.660051         133.497         57.9978 
       0.675724         130.645         54.9851 
       0.691403         127.712         52.1823 
       0.707174         122.755         49.5569 
       0.722871         120.387         47.1207 
        0.73838         118.597         44.8727 
       0.754018         111.856         42.7531 
       0.769845         111.725         40.7463 
        0.78569         108.176         38.8656 
       0.801365         104.233         37.1214 
       0.817031         101.891         35.4851 
       0.832809         99.7993         33.9371 
       0.848511         97.2705         32.4884 
       0.864097         95.2624         31.1344 
       0.879701         93.9157         29.8563 
       0.895507         91.1044          28.635 
       0.911279          88.508         27.4846 
        0.92691         86.7255          26.407 
       0.942635         84.7041         25.3812 
       0.958396         84.1005         24.4078 
       0.974128         82.3555         23.4872 
       0.989692         79.8842         22.6231 
        1.00528         78.9726         21.8012 
        1.02113         76.8597         21.0073 
        1.03692         76.4321         20.2558 
        1.05264         75.3776         19.5444 
        1.06832         73.2933         18.8683 
        1.08405         72.0799         18.2224 
        1.09979         71.4318         17.6062 
        1.11537         69.6363         17.0246 
        1.13105         68.5005         16.4658 
        1.14679         67.5828         15.9299 
        1.16256         66.1479         15.4167 
        1.17828         65.6787         14.9278 
        1.19395         64.3161         14.4618 
         1.2097         63.4795         14.0132 
        1.22537         62.3145         13.5858 
          1.241         61.9907         13.1775 
        1.25666         60.0271         12.7849 
        1.27241         59.5218         12.4065 
        1.28819         58.8949         12.0427 
        1.30392         57.8724         11.6945 
        1.31957         57.3741         11.3617 
        1.33529         56.4348         11.0405 
        1.35108         55.9923         10.7305 
        1.36674         54.9568         10.4346 
         1.3824         54.3562         10.1501 
        1.39811         53.2522         9.87524 
        1.41389         52.5071         9.60949 
        1.42964         51.8568         9.35395 
        1.44531         51.3685         9.10894 
        1.46101         50.9006         8.87217 
        1.47667         50.1767          8.6445 
        1.49229         49.3124         8.42542 
        1.50793          48.763         8.21366 
        1.52367         48.5692         8.00781 
        1.53953         47.8179         7.80762 
        1.55526         46.7663         7.61585 
        1.57092         46.6085          7.4313 
        1.58662         46.1304         7.25242 
        1.60235         45.6244         7.07906 
        1.61809         44.6304         6.91127 
        1.63369         44.2996          6.7504 
        1.64941         43.8485         6.59348 
        1.66519         42.9883         6.44098 
        1.68085         42.4769         6.29437 
        1.69652         41.9581         6.15227 
        1.71228         41.5124         6.01374 
        1.72806         41.3361         5.87935 
        1.74368         40.6022         5.75041 
        1.75933         40.3779         5.62507 
        1.77505          39.796         5.50287 
        1.79081         39.4035         5.38407 
         1.8065         39.1253         5.26928 
        1.82218         38.3368         5.15793 
        1.83797         37.7823         5.04902 
        1.85367         37.5065         4.94385 
        1.86928         37.2032          4.8423 
        1.88497         36.6951         4.74304 
        1.90073         36.2538         4.64619 
        1.91647         36.1744         4.55213 
        1.93218           35.64         4.46086 
        1.94787         35.2725         4.37222 
        1.96363         34.8503         4.28563 
        1.97935         34.3801         4.20155 
        1.99499         34.1257          4.1202 
        2.01064         33.5861         4.04088 
         2.0264          33.518         3.96314 
        2.04216          33.008         3.88749 
        2.05781         32.6782         3.81427 
        2.07353         32.2132         3.74268 
        2.08928         32.1787         3.67276 
        2.10499         31.7329         3.60481 
        2.12065         31.4387         3.53878 
        2.13633         31.2003         3.47434 
        2.15211         30.8438         3.41108 
        2.16785          30.328         3.34957 
        2.18349         30.0858         3.28996 
        2.19916         29.8631         3.23167 
        2.21489         29.6805         3.17459 
        2.23063         29.3271         3.11885 
         2.2463         28.9945          3.0647 
        2.26194         28.7216         3.01196 
        2.27765          28.384         2.96018 
        2.29341         28.0489         2.90949 
        2.30914         27.7408         2.86008 
        2.32486         27.5971         2.81184 
        2.34061         27.2964         2.76464 
        2.35635         26.9947         2.71855 
        2.37203         26.7208         2.67367 
        2.38768         26.6187         2.62989 
        2.40339         26.2604         2.58694 
        2.41914         26.1636         2.54483 
        2.43483         25.7502         2.50381 
         2.4505         25.6858         2.46376 
        2.46622         25.2599         2.42445 
        2.48195         25.0572         2.38599 
        2.49759         24.8584         2.34856 
        2.51328         24.5829         2.31184 
        2.52906         24.3381         2.27566 
        2.54479         24.2626         2.24039 
        2.56049         23.8646         2.20594 
        2.57618         23.6986         2.17224 
        2.59189         23.5503         2.13919 
        2.60758         23.1324         2.10687 
        2.62325         23.1022         2.07526 
        2.63898         22.9202         2.04419 
        2.65468         22.5418         2.01381 
        2.67044         22.4891         1.98392 
        2.68618         22.1921          1.9547 
        2.70184         22.0051         1.92619 
        2.71755         21.7915         1.89817 
        2.73329         21.6368         1.87066 
        2.74897         21.3703         1.84379 
        2.76462         21.1416          1.8175 
        2.78034         20.9975         1.79162 
        2.79607         20.8111          1.7662 
        2.81179         20.5921         1.74131 
        2.82749         20.4504         1.71693 
        2.84321         20.2344         1.69298 
        2.85893         20.0306         1.66949 
        2.87462         19.8561         1.64649 
        2.89033         19.6305          1.6239 
        2.90605         19.5126         1.60171 
        2.92176         19.3685         1.57995 
        2.93747         19.1541          1.5586 
        2.95318         19.0354         1.53764 
        2.96891         18.8366         1.51705 
        2.98456          18.683         1.49693 
        3.00023         18.4316         1.47714 
        3.01596         18.2008         1.45765 
        3.03164         18.1532         1.43857 
        3.04738         17.9941         1.41976 
         3.0631         17.8487          1.4013 
        3.07883         17.6318         1.38317 
        3.09456         17.4688         1.36536 
        3.11026         17.3121         1.34789 
        3.12596         17.1889         1.33072 
        3.14163         17.0004         1.31389 
        3.15734         16.9333         1.29732 
        3.17308         16.7058         1.28098 
        3.18879         16.5694         1.26497 
        3.20447         16.4712         1.24926 
         3.2202         16.2421         1.23377 
         3.2359         16.1225         1.21856 
        3.25157         15.9855         1.20365 
        3.26729         15.8967         1.18894 
        3.28304         15.7281         1.17444 
        3.29877          15.593         1.16021 
        3.31446         15.4947         1.14624 
        3.33014         15.3098         1.13251 
        3.34585         15.2022         1.11898 
        3.36158         15.0544         1.10566 
        3.37727         14.9544         1.09259 
        3.39294         14.8216         1.07975 
        3.40867         14.7324         1.06706 
        3.42439         14.5486         1.05458 
        3.44008         14.4058         1.04233 
        3.45578         14.3616         1.03026 
        3.47153         14.1853         1.01836 
        3.48724         14.0906         1.00666 
        3.50292         13.9387        0.995176 
        3.51859         13.8351        0.983873 
        3.53431         13.7512        0.972711 
        3.55007          13.644        0.961694 
        3.56577         13.4578         0.95089 
        3.58146         13.3732        0.940255 
        3.59719         13.2768        0.929759 
        3.61292           13.21        0.919425 
        3.62859         13.0517        0.909287 
        3.64429         12.9426        0.899281 
        3.66003         12.8381        0.889395 
        3.67578          12.744        0.879661 
        3.69146         12.6633        0.870108 
        3.70712         12.5142        0.860714 
        3.72284         12.4038        0.851423 
        3.73853         12.3322        0.842285 
        3.75422         12.2046        0.833277 
        3.76993         12.1217        0.824392 
        3.78564         12.0618         0.81564 
        3.80137         11.9437           0.807 
        3.81707         11.7978        0.798503 
        3.83279         11.7759        0.790121 
        3.84853         11.6449        0.781845 
        3.86424         11.5535        0.773703 
        3.87992         11.4775        0.765689 
        3.89561         11.3372        0.757788 
        3.91134         11.2861        0.749981 
        3.92704         11.2016        0.742293 
        3.94273         11.0671         0.73472 
        3.95845         10.9912        0.727238 
        3.97418         10.9366        0.719858 
        3.98988         10.8348         0.71259 
        4.00554         10.6909        0.705442 
        4.02125         10.6669        0.698371 
        4.03698         10.5518        0.691386 
        4.05268         10.5045        0.684511 
        4.06839         10.3839        0.677725 
         4.0841          10.333        0.671032 
        4.09983          10.245         0.66442 
        4.11555          10.145        0.657899 
        4.13124         10.0529        0.651483 
        4.14693         10.0203        0.645147 
        4.16266          9.9515        0.638881 
        4.17839         9.83373        0.632701 
        4.19408         9.76186        0.626616 
        4.20977         9.67305        0.620608 
        4.22551         9.59574        0.614664 
        4.24123         9.53386        0.608804 
        4.25691         9.46589        0.603036 
        4.27259         9.38036        0.597341 
        4.28831         9.32998        0.591707 
        4.30404         9.22097         0.58614 
        4.31974         9.18217        0.580657 
        4.33543         9.10746        0.575247 
        4.35116         9.03031        0.569892 
        4.36688         8.96035        0.564607 
        4.38255         8.88016        0.559409 
        4.39825         8.83806        0.554264 
        4.41398          8.7582        0.549174 
         4.4297         8.68436        0.544153 
        4.44541         8.62149        0.539195 
        4.46111          8.5536        0.534302 
        4.47683          8.4932        0.529467 
        4.49251         8.41834          0.5247 
        4.50819         8.37485        0.519994 
         4.5239         8.30281        0.515338 
        4.53962         8.24497        0.510733 
        4.55535         8.17289        0.506182 
        4.57106         8.12521        0.501692 
        4.58678         8.04337        0.497256 
         4.6025         8.00566        0.492872 
        4.61821         7.94697        0.488542 
        4.63391         7.86379        0.484269 
         4.6496         7.80275        0.480048 
        4.66532         7.75483        0.475872 
        4.68103         7.69829        0.471746 
        4.69673          7.6253        0.467673 
        4.71241         7.60237        0.463652 
        4.72811         7.52377        0.459672 
        4.74384         7.47939        0.455732 
        4.75955         7.40603        0.451845 
        4.77525         7.36902        0.448005 
        4.79096         7.31164        0.444205 
        4.80669         7.25624        0.440447 
         4.8224         7.20049        0.436737 
        4.83809         7.16693        0.433073 
        4.85379         7.11129        0.429448 
         4.8695         7.04455        0.425862 
        4.88521         7.00852        0.422318 
        4.90093         6.95872        0.418814 
        4.91663         6.89952        0.415353 
        4.93234         6.85278        0.411926 
        4.94807         6.79774        0.408536 
        4.96377         6.74865        0.405191 
        4.97943         6.70755        0.401889 
        4.99514         6.65557        0.398616 
        5.01086         6.60528        0.395377 
        5.02654         6.56173        0.392181 
        5.04227         6.51486        0.389012 
          5.058          6.4698        0.385876 
        5.07371         6.41524         0.38278 
        5.08942         6.37796        0.379718 
        5.10513         6.34597        0.376688 
        5.12084         6.27823        0.373691 
        5.13656         6.24392        0.370726 
        5.15225          6.2003        0.367798 
        5.16796         6.14832        0.364897 
        5.18369         6.10996        0.362025 
         5.1994         6.08498        0.359188 
        5.21509         6.04052        0.356385 
        5.23079         5.99029        0.353608 
        5.24649         5.95194        0.350862 
        5.26217         5.91341        0.348148 
        5.27788         5.86961        0.345458 
        5.29359            5.82        0.342796 
        5.30933         5.79246        0.340158 
        5.32504         5.74808        0.337552 
        5.34073          5.7111        0.334976 
        5.35646         5.66217        0.332422 
        5.37218         5.64038        0.329894 
        5.38789          5.6068        0.327396 
        5.40357         5.56358        0.324926 
        5.41929         5.52205        0.322477 
        5.43502         5.49656        0.320052 
         5.4507         5.45639        0.317658 
        5.46639         5.40396        0.315288 
        5.48212         5.37157        0.312937 
        5.49786         5.34372        0.310606 
        5.51353         5.31778        0.308311 
        5.52921         5.26933        0.306037 
        5.54495          5.2395        0.303778 
        5.56066         5.20376        0.301545 
        5.57637         5.17339        0.299335 
        5.59207         5.13257        0.297148 
        5.60778         5.10454        0.294983 
        5.62346          5.0724        0.292842 
        5.63916         5.03029         0.29072 
        5.65487         5.01316        0.288618 
         5.6706         4.97393        0.286534 
        5.68633         4.94642         0.28447 
        5.70203         4.89576         0.28243 
        5.71773         4.86581        0.280411 
        5.73344         4.84399         0.27841 
        5.74916         4.80243        0.276426 
        5.76486         4.77966        0.274465 
        5.78054          4.7504        0.272526 
        5.79626         4.72985          0.2706 
          5.812         4.67989         0.26869 
         5.8277         4.65571        0.266805 
        5.84339         4.62952        0.264937 
        5.85911         4.59352        0.263084 
        5.87484         4.56859        0.261248 
        5.89053         4.53667        0.259434 
        5.90623         4.51468        0.257636 
        5.92195         4.48614        0.255852 
        5.93767         4.45786        0.254085 
        5.95336         4.41918        0.252339 
        5.96905         4.39333        0.250609 
        5.98476          4.3701        0.248893 
        6.00048         4.33561        0.247192 
        6.01617         4.31636        0.245509 
        6.03185         4.29489        0.243844 
        6.04756         4.27434        0.242191 
        6.06331         4.23688        0.240549 
        6.07903          4.2111        0.238926 
        6.09473         4.18945        0.237319 
        6.11044         4.16021        0.235725 
        6.12616         4.12541        0.234146 
        6.14186         4.11104        0.232584 
        6.15755         4.08716        0.231035 
        6.17326          4.0506          0.2295 
        6.18898         4.03356        0.227977 
        6.20467         4.00678        0.226471 
        6.22036         3.98059        0.224979 
         6.2361         3.96149        0.223496 
         6.2518         3.93478        0.222028 
        6.26748         3.91017        0.220577 
        6.28319          3.8887        0.219135 
        6.29893         3.86508        0.217705 
        6.31463         3.84444         0.21629 
        6.33033         3.82281        0.214887 
        6.34604         3.79471        0.213496 
        6.36177          3.7756        0.212116 
        6.37747         3.76413        0.210751 
