# k  (h/Mpc)    Pcb(k)  (Mpc/h)^3    Pcb_linear(k) (Mpc/h)^3   ShotnoiseSubtracted = true
      0.0200456         3739.98         3785.44 
      0.0350414         2419.49         2360.47 
      0.0492313         1552.28         1545.03 
      0.0637834         1242.02         1259.38 
      0.0800726         973.407         995.526 
       0.096163         696.902         675.812 
       0.111083         530.339         508.369 
       0.126058         454.039          454.63 
       0.142273         390.244         392.183 
       0.158546          305.89         298.303 
        0.17375         252.092          239.96 
       0.188953         227.738         217.562 
       0.204907         196.965         196.665 
       0.220756         171.602         164.121 
        0.23588         146.323         137.946 
         0.2514         130.609         124.084 
       0.267535         122.403         113.864 
       0.283568          106.86         100.276 
       0.299022         96.8435         87.5226 
       0.314451         90.6975         78.9863 
       0.330372         80.5209         72.7877 
       0.346141          73.578          66.228 
       0.361624         67.3502         59.5942 
       0.377134         61.1176         54.2361 
       0.392932         58.7753         50.1069 
       0.408854         54.0303         46.2568 
       0.424564          51.176         42.4543 
       0.440253         46.4091          39.068 
       0.455999         42.1636         36.2636 
       0.471626         40.0731         33.8029 
        0.48727         38.6546         31.4453 
       0.502856         35.8658         29.2683 
       0.518488         33.6245         27.3452 
       0.534347         31.5273         25.6129 
       0.550082          30.258         24.0197 
       0.565732         29.0015         22.5392 
       0.581496         26.9778         21.1809 
       0.597222         25.6037         19.9541 
       0.612804         24.2625         18.8345 
       0.628434         23.7965         17.7889 
       0.644267         22.3939         16.8063 
       0.660051         21.2554          15.906 
       0.675724         20.2323         15.0797 
       0.691403         19.7586         14.3111 
       0.707174         18.8529         13.5911 
       0.722871         18.2166         12.9229 
        0.73838         17.2615         12.3064 
       0.754018         16.2447         11.7251 
       0.769845         15.8896         11.1747 
        0.78569         15.3432         10.6589 
       0.801365          14.724         10.1806 
       0.817031         14.0898         9.73185 
       0.832809         13.6823          9.3073 
       0.848511         13.1828            8.91 
       0.864097         12.7429         8.53865 
       0.879701         12.4991         8.18814 
       0.895507         11.9946         7.85319 
       0.911279         11.4746          7.5377 
        0.92691         11.2371         7.24215 
       0.942635         10.9151         6.96083 
       0.958396         10.5514         6.69386 
       0.974128         10.2554         6.44138 
       0.989692         9.73775         6.20441 
        1.00528         9.64106         5.97901 
        1.02113         9.30567         5.76128 
        1.03692         9.09241         5.55518 
        1.05264         8.86678         5.36009 
        1.06832         8.65943         5.17466 
        1.08405         8.39047         4.99751 
        1.09979         8.17662         4.82853 
        1.11537         7.92207         4.66902 
        1.13105         7.78386         4.51577 
        1.14679         7.59343         4.36879 
        1.16256         7.41588         4.22806 
        1.17828         7.23925         4.09398 
        1.19395         7.08014         3.96616 
         1.2097         6.85628         3.84314 
        1.22537         6.72269         3.72592 
          1.241         6.52225         3.61394 
        1.25666         6.46385         3.50628 
        1.27241         6.33266         3.40249 
        1.28819         6.05642         3.30272 
        1.30392         6.04206         3.20724 
        1.31957         5.84618         3.11595 
        1.33529         5.76783         3.02788 
        1.35108         5.63688         2.94286 
        1.36674         5.48615          2.8617 
         1.3824         5.39722         2.78368 
        1.39811         5.30525          2.7083 
        1.41389         5.18161         2.63542 
        1.42964         5.08571         2.56534 
        1.44531          4.9824         2.49814 
        1.46101          4.9319          2.4332 
        1.47667         4.81303         2.37077 
        1.49229         4.66343         2.31068 
        1.50793          4.6122         2.25261 
        1.52367         4.51937         2.19615 
        1.53953         4.44196         2.14125 
        1.55526         4.37295         2.08866 
        1.57092         4.29562         2.03804 
        1.58662         4.21128         1.98899 
        1.60235         4.16477         1.94144 
        1.61809         4.08274         1.89543 
        1.63369         4.00276         1.85131 
        1.64941         3.91881         1.80827 
        1.66519         3.88616         1.76645 
        1.68085         3.80059         1.72624 
        1.69652         3.75311         1.68727 
        1.71228         3.71548         1.64928 
        1.72806         3.64155         1.61242 
        1.74368         3.58286         1.57706 
        1.75933         3.52191         1.54268 
        1.77505         3.45474         1.50917 
        1.79081         3.41319         1.47659 
         1.8065          3.3794         1.44511 
        1.82218         3.32341         1.41457 
        1.83797         3.24994          1.3847 
        1.85367         3.21237         1.35586 
        1.86928         3.17048         1.32801 
        1.88497         3.12169         1.30079 
        1.90073         3.07798         1.27423 
        1.91647         3.01144         1.24843 
        1.93218         2.98549          1.2234 
        1.94787         2.94864         1.19909 
        1.96363         2.91354         1.17534 
        1.97935         2.87535         1.15228 
        1.99499         2.83673         1.12997 
        2.01064          2.7923         1.10822 
         2.0264         2.76524          1.0869 
        2.04216         2.71889         1.06615 
        2.05781         2.68549         1.04607 
        2.07353         2.65509         1.02644 
        2.08928         2.61263         1.00726 
        2.10499          2.5772        0.988625 
        2.12065         2.56681        0.970515 
        2.13633         2.53279        0.952843 
        2.15211         2.48554        0.935494 
        2.16785         2.45555        0.918625 
        2.18349         2.43883        0.902277 
        2.19916         2.40264         0.88629 
        2.21489         2.38321        0.870637 
        2.23063         2.34278         0.85535 
         2.2463         2.31325        0.840497 
        2.26194         2.28256        0.826033 
        2.27765         2.24475        0.811834 
        2.29341         2.22277        0.797931 
        2.30914         2.20193        0.784381 
        2.32486         2.18087        0.771152 
        2.34061         2.16174        0.758205 
        2.35635         2.13403        0.745566 
        2.37203         2.12171        0.733258 
        2.38768         2.09767        0.721252 
        2.40339         2.05665        0.709471 
        2.41914          2.0434        0.697924 
        2.43483         2.01617        0.686674 
         2.4505         1.99115         0.67569 
        2.46622         1.97694        0.664908 
        2.48195         1.96219         0.65436 
        2.49759         1.93151        0.644096 
        2.51328         1.91866        0.634024 
        2.52906         1.89219        0.624104 
        2.54479         1.87693        0.614431 
        2.56049         1.85699        0.604982 
        2.57618         1.83892        0.595739 
        2.59189         1.82902        0.586675 
        2.60758         1.81085        0.577812 
        2.62325         1.77514        0.569143 
        2.63898         1.76654        0.560621 
        2.65468         1.74412         0.55229 
        2.67044         1.73682        0.544093 
        2.68618          1.7207         0.53608 
        2.70184         1.70262         0.52826 
        2.71755         1.68083        0.520576 
        2.73329         1.66652        0.513032 
        2.74897         1.65289        0.505662 
        2.76462         1.63745        0.498452 
        2.78034           1.623        0.491353 
        2.79607         1.60561        0.484384 
        2.81179         1.59223        0.477557 
        2.82749         1.57297         0.47087 
        2.84321         1.56252        0.464302 
        2.85893         1.54287        0.457861 
        2.87462         1.53715        0.451553 
        2.89033         1.52688        0.445357 
        2.90605         1.50922        0.439272 
        2.92176          1.4926        0.433303 
        2.93747         1.48567        0.427448 
        2.95318          1.4715        0.421699 
        2.96891         1.45899        0.416053 
        2.98456         1.44608        0.410535 
        3.00023         1.43723        0.405109 
        3.01596         1.42029        0.399763 
        3.03164         1.40945        0.394529 
        3.04738         1.40243        0.389372 
         3.0631         1.38919         0.38431 
        3.07883         1.37808        0.379336 
        3.09456          1.3643        0.374451 
        3.11026         1.35355         0.36966 
        3.12596          1.3453        0.364952 
        3.14163         1.33558        0.360337 
        3.15734         1.32235         0.35579 
        3.17308         1.31237        0.351311 
        3.18879          1.3081        0.346921 
        3.20447          1.2941        0.342612 
         3.2202         1.28237        0.338362 
         3.2359         1.27893        0.334192 
        3.25157         1.26338        0.330102 
        3.26729         1.25272        0.326067 
        3.28304         1.24385        0.322092 
        3.29877         1.23482        0.318188 
        3.31446         1.22289        0.314357 
        3.33014          1.2213        0.310592 
        3.34585         1.20901        0.306883 
        3.36158         1.19745        0.303228 
        3.37727         1.19411        0.299644 
        3.39294         1.18459        0.296122 
        3.40867         1.17744        0.292643 
        3.42439         1.16747        0.289221 
        3.44008         1.15599        0.285861 
        3.45578         1.15011        0.282551 
        3.47153         1.14511        0.279286 
        3.48724         1.13357        0.276078 
        3.50292         1.12653        0.272928 
        3.51859         1.12005        0.269829 
        3.53431         1.11183        0.266767 
        3.55007         1.10374        0.263746 
        3.56577         1.09912        0.260783 
        3.58146         1.09129        0.257866 
        3.59719         1.08533        0.254988 
        3.61292         1.07502        0.252154 
        3.62859         1.06931        0.249373 
        3.64429         1.06436        0.246629 
        3.66003         1.05601        0.243918 
        3.67578          1.0515        0.241248 
        3.69146         1.03921        0.238628 
        3.70712         1.03963        0.236052 
        3.72284         1.02761        0.233504 
        3.73853         1.01946        0.230998 
        3.75422         1.01677        0.228527 
        3.76993         1.00835        0.226091 
        3.78564        0.998861         0.22369 
        3.80137        0.995341        0.221321 
        3.81707        0.987015        0.218991 
        3.83279        0.986821        0.216692 
        3.84853        0.978356        0.214422 
        3.86424        0.970482        0.212189 
        3.87992        0.965703        0.209991 
        3.89561          0.9593        0.207824 
        3.91134        0.951491        0.205683 
        3.92704        0.948759        0.203575 
        3.94273        0.942194        0.201498 
        3.95845        0.935005        0.199446 
        3.97418        0.928068        0.197422 
        3.98988        0.923876        0.195429 
        4.00554         0.91894        0.193468 
        4.02125        0.911639        0.191529 
        4.03698        0.906466        0.189613 
        4.05268         0.89905        0.187728 
        4.06839        0.890953        0.185867 
         4.0841        0.887466        0.184031 
        4.09983        0.882758        0.182218 
        4.11555        0.872963         0.18043 
        4.13124        0.868513         0.17867 
        4.14693        0.861433        0.176933 
        4.16266        0.856373        0.175214 
        4.17839        0.850951        0.173519 
        4.19408        0.843396         0.17185 
        4.20977        0.840064        0.170203 
        4.22551        0.834876        0.168573 
        4.24123        0.829165        0.166965 
        4.25691        0.823507        0.165384 
        4.27259        0.818679        0.163822 
        4.28831        0.813788        0.162277 
        4.30404        0.806975         0.16075 
        4.31974        0.802807        0.159246 
        4.33543        0.797606        0.157762 
        4.35116         0.79239        0.156294 
        4.36688        0.789852        0.154844 
        4.38255        0.786407        0.153419 
        4.39825        0.780108        0.152008 
        4.41398        0.776304        0.150612 
         4.4297        0.774073        0.149235 
        4.44541        0.765766        0.147875 
        4.46111        0.764995        0.146533 
        4.47683        0.759145        0.145207 
        4.49251        0.754615          0.1439 
        4.50819        0.753757        0.142609 
         4.5239         0.74695        0.141332 
        4.53962        0.743699        0.140069 
        4.55535         0.74245        0.138821 
        4.57106        0.736271         0.13759 
        4.58678        0.734965        0.136373 
         4.6025        0.731968        0.135171 
        4.61821        0.728812        0.133983 
        4.63391        0.726445        0.132811 
         4.6496        0.720596        0.131654 
        4.66532        0.718233        0.130508 
        4.68103        0.715936        0.129377 
        4.69673        0.712867         0.12826 
        4.71241        0.709368        0.127157 
        4.72811        0.708104        0.126066 
        4.74384        0.706346        0.124985 
        4.75955        0.702682        0.123919 
        4.77525        0.698719        0.122866 
        4.79096        0.697085        0.121824 
        4.80669        0.693439        0.120793 
         4.8224         0.69231        0.119776 
        4.83809        0.690761        0.118771 
        4.85379        0.688731        0.117777 
         4.8695        0.685137        0.116793 
        4.88521        0.682713        0.115821 
        4.90093        0.681996         0.11486 
        4.91663        0.680181        0.113911 
        4.93234        0.677609        0.112971 
        4.94807        0.673917        0.112042 
        4.96377        0.672572        0.111124 
        4.97943        0.672701        0.110219 
        4.99514        0.670804        0.109321 
        5.01086        0.668602        0.108433 
        5.02654        0.664788        0.107556 
        5.04227        0.663893        0.106687 
          5.058         0.66505        0.105827 
        5.07371        0.663403        0.104978 
        5.08942         0.66104        0.104138 
        5.10513        0.658457        0.103307 
        5.12084        0.656706        0.102485 
        5.13656        0.656999        0.101672 
        5.15225        0.654762        0.100869 
        5.16796        0.654012        0.100074 
        5.18369        0.652514       0.0992858 
         5.1994        0.652086       0.0985079 
        5.21509        0.647925        0.097739 
        5.23079        0.649661       0.0969774 
        5.24649         0.64908       0.0962244 
        5.26217        0.647832       0.0954799 
        5.27788        0.645532       0.0947423 
        5.29359        0.647463       0.0940122 
        5.30933        0.645557       0.0932887 
        5.32504        0.644177       0.0925741 
        5.34073        0.643809       0.0918676 
        5.35646        0.641804       0.0911671 
        5.37218        0.642095       0.0904738 
        5.38789         0.64158       0.0897887 
        5.40357        0.640265       0.0891115 
        5.41929        0.640835       0.0884397 
        5.43502        0.640238       0.0877747 
         5.4507        0.636572       0.0871182 
        5.46639        0.638616       0.0864682 
        5.48212        0.637898       0.0858233 
        5.49786        0.637615       0.0851842 
        5.51353        0.639077       0.0845547 
        5.52921        0.635103       0.0839309 
        5.54495        0.636468       0.0833116 
        5.56066        0.636666       0.0826992 
        5.57637        0.637032        0.082093 
        5.59207        0.635039       0.0814933 
        5.60778        0.635403       0.0808994 
        5.62346          0.6356       0.0803122 
        5.63916         0.63593       0.0797303 
        5.65487           0.636       0.0791538 
         5.6706        0.632655       0.0785823 
        5.68633        0.634882       0.0780162 
        5.70203         0.63291       0.0774568 
        5.71773        0.633164        0.076903 
        5.73344        0.634211       0.0763542 
        5.74916        0.632912       0.0758103 
        5.76486        0.633215       0.0752724 
        5.78054        0.633954       0.0747406 
        5.79626        0.632327       0.0742123 
          5.812        0.632425       0.0736887 
         5.8277        0.633803       0.0731715 
        5.84339        0.634011       0.0726593 
        5.85911        0.632112       0.0721511 
        5.87484        0.632956       0.0716477 
        5.89053        0.633706       0.0711501 
        5.90623        0.631829        0.070657 
        5.92195        0.632708       0.0701677 
        5.93767        0.633861       0.0696833 
        5.95336        0.632504       0.0692042 
        5.96905        0.632308       0.0687298 
        5.98476        0.633189       0.0682591 
        6.00048        0.633551       0.0677927 
        6.01617        0.632306       0.0673313 
        6.03185        0.633709       0.0668746 
        6.04756         0.63278       0.0664211 
        6.06331        0.633885       0.0659709 
        6.07903        0.633702       0.0655257 
        6.09473        0.633536        0.065085 
        6.11044        0.634515        0.064648 
        6.12616        0.632861        0.064215 
        6.14186        0.633676       0.0637864 
        6.15755        0.633387       0.0633617 
        6.17326        0.634079       0.0629406 
        6.18898        0.634812        0.062523 
        6.20467        0.633615         0.06211 
        6.22036        0.633354       0.0617007 
         6.2361        0.632799        0.061294 
         6.2518        0.633604       0.0608916 
        6.26748        0.634423       0.0604937 
        6.28319        0.633849       0.0600982 
        6.29893        0.633073       0.0597059 
        6.31463        0.634889       0.0593177 
        6.33033        0.633464       0.0589331 
        6.34604        0.634891       0.0585517 
        6.36177        0.634301       0.0581732 
        6.37747        0.633233       0.0577988 
