# k  (h/Mpc)    Pcb(k)  (Mpc/h)^3    Pcb_linear(k) (Mpc/h)^3   ShotnoiseSubtracted = true
      0.0200456           14034           14273 
      0.0350414         8667.02         8900.15 
      0.0492313         5819.05         5825.54 
      0.0637834          4901.2         4748.49 
      0.0800726         3850.04         3753.63 
       0.096163         2532.73         2548.15 
       0.111083         1928.39         1916.81 
       0.126058         1776.37         1714.18 
       0.142273         1558.15         1478.73 
       0.158546         1271.17         1124.75 
        0.17375         984.211         904.769 
       0.188953         949.921         820.319 
       0.204907         894.644         741.524 
       0.220756         753.016         618.817 
        0.23588         654.676         520.127 
         0.2514         565.191         467.857 
       0.267535         549.158         429.324 
       0.283568         495.919          378.09 
       0.299022         460.054         330.004 
       0.314451         428.719         297.818 
       0.330372         393.822         274.446 
       0.346141         353.737         249.713 
       0.361624         341.554           224.7 
       0.377134         314.397         204.497 
       0.392932         295.652         188.928 
       0.408854         282.889         174.411 
       0.424564         267.038         160.074 
       0.440253         258.225         147.306 
       0.455999         241.358         136.732 
       0.471626          226.37         127.454 
        0.48727         216.641         118.565 
       0.502856         209.217         110.356 
       0.518488         206.125         103.105 
       0.534347         193.907         96.5734 
       0.550082         181.511         90.5662 
       0.565732          177.13         84.9842 
       0.581496         167.832         79.8627 
       0.597222         163.348          75.237 
       0.612804          157.71         71.0156 
       0.628434          151.57         67.0732 
       0.644267         146.453         63.3683 
       0.660051          144.68         59.9735 
       0.675724         140.471         56.8581 
       0.691403          136.18         53.9599 
       0.707174         130.813         51.2451 
       0.722871         128.773         48.7259 
        0.73838         126.002         46.4013 
       0.754018         122.261         44.2095 
       0.769845           118.4         42.1343 
        0.78569         116.325         40.1895 
       0.801365         112.297         38.3859 
       0.817031         108.686          36.694 
       0.832809         107.586         35.0932 
       0.848511         103.823         33.5952 
       0.864097         102.377          32.195 
       0.879701         99.9895         30.8734 
       0.895507         97.3943         29.6105 
       0.911279         95.1486         28.4209 
        0.92691         94.4342         27.3065 
       0.942635          91.521         26.2458 
       0.958396          91.261         25.2392 
       0.974128          88.647         24.2873 
       0.989692         86.6943         23.3938 
        1.00528         84.6672         22.5439 
        1.02113         83.8726         21.7229 
        1.03692         81.1912         20.9458 
        1.05264         80.4337         20.2102 
        1.06832         78.4995         19.5111 
        1.08405          77.157         18.8431 
        1.09979         76.8802          18.206 
        1.11537         74.4537         17.6046 
        1.13105          74.129         17.0267 
        1.14679         72.9849         16.4725 
        1.16256         71.8401         15.9419 
        1.17828         70.5826         15.4364 
        1.19395         68.9056         14.9544 
         1.2097          67.684         14.4906 
        1.22537         67.6401         14.0486 
          1.241         66.3029         13.6264 
        1.25666         64.8081         13.2204 
        1.27241         63.7936         12.8291 
        1.28819          62.876         12.4529 
        1.30392         61.9994         12.0929 
        1.31957         61.4989         11.7487 
        1.33529         59.9912         11.4166 
        1.35108          59.505         11.0961 
        1.36674         59.1318         10.7901 
         1.3824          57.746         10.4959 
        1.39811         56.9324         10.2116 
        1.41389         56.3625         9.93684 
        1.42964         55.4788          9.6726 
        1.44531         54.5143         9.41924 
        1.46101         53.7329          9.1744 
        1.47667         53.7636         8.93898 
        1.49229         52.8254         8.71243 
        1.50793         52.5509         8.49346 
        1.52367         51.2999          8.2806 
        1.53953         50.6473         8.07359 
        1.55526         50.3283         7.87529 
        1.57092         49.9637         7.68445 
        1.58662         48.8003         7.49947 
        1.60235         48.5959         7.32021 
        1.61809         47.9005         7.14671 
        1.63369         47.2334         6.98035 
        1.64941         47.0192         6.81809 
        1.66519         45.7673         6.66039 
        1.68085         45.7524         6.50879 
        1.69652         44.8319         6.36185 
        1.71228         44.5703          6.2186 
        1.72806         44.1886         6.07963 
        1.74368         43.5069          5.9463 
        1.75933         43.0256         5.81669 
        1.77505         42.5758         5.69032 
        1.79081          42.183         5.56748 
         1.8065         41.7048         5.44878 
        1.82218         41.1996         5.33363 
        1.83797         40.7103         5.22102 
        1.85367         40.3709         5.11227 
        1.86928         39.5885         5.00726 
        1.88497         39.5318         4.90462 
        1.90073         38.8898         4.80447 
        1.91647         38.6285          4.7072 
        1.93218         38.3539         4.61282 
        1.94787         37.7384         4.52116 
        1.96363         37.3771         4.43162 
        1.97935         36.9673         4.34468 
        1.99499         36.6089         4.26056 
        2.01064         36.1362         4.17854 
         2.0264         35.5118         4.09815 
        2.04216         35.5167         4.01991 
        2.05781         34.9643         3.94421 
        2.07353         34.5594         3.87018 
        2.08928         34.4426         3.79788 
        2.10499         33.8164         3.72761 
        2.12065         33.5098         3.65933 
        2.13633         33.2112         3.59269 
        2.15211         33.0186         3.52728 
        2.16785         32.5321         3.46368 
        2.18349         32.2009         3.40204 
        2.19916         31.8741         3.34176 
        2.21489         31.6434         3.28274 
        2.23063         31.1859          3.2251 
         2.2463         30.8518          3.1691 
        2.26194         30.4693         3.11456 
        2.27765         30.3012         3.06102 
        2.29341         29.9409          3.0086 
        2.30914         29.6625         2.95751 
        2.32486         29.1988         2.90763 
        2.34061          29.152         2.85881 
        2.35635         28.7496         2.81116 
        2.37203          28.459         2.76475 
        2.38768         28.1951         2.71948 
        2.40339         27.9779         2.67506 
        2.41914         27.7167         2.63152 
        2.43483         27.3946         2.58911 
         2.4505         27.1923         2.54769 
        2.46622         26.8386         2.50704 
        2.48195         26.6866         2.46726 
        2.49759         26.3942         2.42856 
        2.51328         26.0834         2.39059 
        2.52906         25.8322         2.35318 
        2.54479         25.5413         2.31671 
        2.56049         25.3046         2.28109 
        2.57618         25.1007         2.24624 
        2.59189         24.8443         2.21206 
        2.60758         24.7475         2.17864 
        2.62325         24.3757         2.14596 
        2.63898         24.1896         2.11382 
        2.65468         23.8906         2.08241 
        2.67044          23.808          2.0515 
        2.68618         23.5412         2.02129 
        2.70184         23.2743         1.99181 
        2.71755         23.1431         1.96283 
        2.73329         22.9107         1.93439 
        2.74897         22.6321          1.9066 
        2.76462         22.3936         1.87942 
        2.78034         22.2894         1.85265 
        2.79607         22.1764         1.82637 
        2.81179          21.907         1.80063 
        2.82749         21.6539         1.77542 
        2.84321         21.4517         1.75065 
        2.85893         21.2041         1.72637 
        2.87462         21.0609         1.70258 
        2.89033          20.921         1.67922 
        2.90605         20.7084         1.65628 
        2.92176          20.544         1.63377 
        2.93747         20.3617         1.61169 
        2.95318         20.1409         1.59002 
        2.96891         20.0111         1.56873 
        2.98456         19.8004         1.54792 
        3.00023         19.5579         1.52746 
        3.01596         19.3899         1.50731 
        3.03164          19.284         1.48757 
        3.04738         19.0724         1.46813 
         3.0631         18.9092         1.44904 
        3.07883         18.8292         1.43029 
        3.09456         18.5624         1.41187 
        3.11026         18.4373          1.3938 
        3.12596          18.255         1.37605 
        3.14163         18.1093         1.35865 
        3.15734         18.0209         1.34151 
        3.17308          17.775         1.32462 
        3.18879         17.6977         1.30807 
        3.20447         17.5184         1.29182 
         3.2202         17.3066          1.2758 
         3.2359         17.1804         1.26007 
        3.25157         17.0653         1.24465 
        3.26729         16.9437         1.22944 
        3.28304         16.7268         1.21445 
        3.29877          16.661         1.19973 
        3.31446         16.4151         1.18528 
        3.33014         16.3354         1.17109 
        3.34585          16.182          1.1571 
        3.36158         16.0376         1.14332 
        3.37727         15.8964         1.12981 
        3.39294         15.7338         1.11653 
        3.40867         15.5966         1.10341 
        3.42439         15.4877         1.09051 
        3.44008         15.3688         1.07784 
        3.45578         15.2198         1.06536 
        3.47153         15.0607         1.05305 
        3.48724         14.9618         1.04095 
        3.50292         14.8888         1.02908 
        3.51859         14.7185         1.01739 
        3.53431         14.5659         1.00585 
        3.55007         14.4544        0.994454 
        3.56577         14.3186        0.983282 
        3.58146          14.212        0.972285 
        3.59719         14.0903        0.961431 
        3.61292         13.9917        0.950746 
        3.62859         13.8508        0.940262 
        3.64429         13.7534        0.929916 
        3.66003         13.6615        0.919693 
        3.67578          13.543        0.909627 
        3.69146         13.4436        0.899748 
        3.70712         13.3404        0.890034 
        3.72284         13.2101        0.880427 
        3.73853         13.0951        0.870977 
        3.75422         12.9795        0.861662 
        3.76993         12.8583        0.852475 
        3.78564         12.7618        0.843425 
        3.80137         12.6622        0.834491 
        3.81707          12.567        0.825704 
        3.83279         12.4709        0.817037 
        3.84853         12.3272        0.808479 
        3.86424         12.2314         0.80006 
        3.87992         12.1408        0.791773 
        3.89561         12.0333        0.783602 
        3.91134         11.9491        0.775529 
        3.92704         11.8201        0.767579 
        3.94273         11.7342        0.759748 
        3.95845         11.6751        0.752011 
        3.97418         11.5636         0.74438 
        3.98988         11.4754        0.736865 
        4.00554         11.3585        0.729473 
        4.02125         11.2998        0.722161 
        4.03698         11.1735        0.714938 
        4.05268         11.0591        0.707829 
        4.06839         11.0192        0.700812 
         4.0841         10.9328        0.693891 
        4.09983         10.8162        0.687054 
        4.11555         10.7722        0.680311 
        4.13124          10.668        0.673676 
        4.14693         10.5641        0.667124 
        4.16266         10.4904        0.660644 
        4.17839         10.4139        0.654254 
        4.19408         10.3153        0.647962 
        4.20977         10.2545        0.641749 
        4.22551         10.1546        0.635603 
        4.24123         10.0651        0.629543 
        4.25691         9.98033        0.623579 
        4.27259         9.94215        0.617689 
        4.28831         9.84008        0.611864 
        4.30404         9.76803        0.606108 
        4.31974         9.70266        0.600438 
        4.33543         9.61419        0.594843 
        4.35116         9.55799        0.589306 
        4.36688         9.46637        0.583841 
        4.38255         9.42217        0.578465 
        4.39825         9.32287        0.573146 
        4.41398         9.25148        0.567882 
         4.4297         9.19062         0.56269 
        4.44541         9.12831        0.557563 
        4.46111         9.05618        0.552504 
        4.47683         8.98465        0.547503 
        4.49251         8.90639        0.542575 
        4.50819         8.85453        0.537708 
         4.5239         8.78274        0.532893 
        4.53962         8.71104        0.528131 
        4.55535         8.62836        0.523425 
        4.57106         8.55585        0.518783 
        4.58678         8.50508        0.514195 
         4.6025         8.43614        0.509662 
        4.61821         8.36899        0.505184 
        4.63391         8.30691        0.500766 
         4.6496         8.26027        0.496402 
        4.66532         8.17919        0.492082 
        4.68103         8.14031        0.487816 
        4.69673         8.07113        0.483605 
        4.71241         8.00731        0.479447 
        4.72811         7.95229         0.47533 
        4.74384         7.88082        0.471257 
        4.75955         7.84264        0.467238 
        4.77525          7.7939        0.463267 
        4.79096         7.70155        0.459337 
        4.80669         7.65649        0.455451 
         4.8224         7.62028        0.451614 
        4.83809         7.54246        0.447825 
        4.85379         7.47576        0.444077 
         4.8695         7.43694        0.440369 
        4.88521         7.38217        0.436705 
        4.90093         7.32578        0.433081 
        4.91663         7.25946        0.429502 
        4.93234         7.22772        0.425959 
        4.94807          7.1728        0.422453 
        4.96377         7.11027        0.418994 
        4.97943         7.05787         0.41558 
        4.99514          7.0121        0.412195 
        5.01086           6.974        0.408845 
        5.02654         6.92036        0.405541 
        5.04227         6.86376        0.402264 
          5.058         6.81534        0.399021 
        5.07371         6.76819        0.395819 
        5.08942         6.72797        0.392653 
        5.10513         6.67908        0.389521 
        5.12084         6.62617        0.386421 
        5.13656         6.57434        0.383355 
        5.15225         6.52988        0.380327 
        5.16796          6.4908        0.377328 
        5.18369         6.42593        0.374357 
         5.1994          6.3924        0.371424 
        5.21509         6.35168        0.368525 
        5.23079           6.296        0.365653 
        5.24649         6.25645        0.362814 
        5.26217         6.21027        0.360007 
        5.27788         6.16935        0.357226 
        5.29359         6.12548        0.354473 
        5.30933         6.09355        0.351745 
        5.32504         6.04501        0.349051 
        5.34073         6.02003        0.346387 
        5.35646         5.97004        0.343746 
        5.37218         5.94667        0.341132 
        5.38789         5.88027        0.338548 
        5.40357         5.85477        0.335995 
        5.41929          5.8118        0.333462 
        5.43502         5.76934        0.330955 
         5.4507         5.73551        0.328479 
        5.46639         5.70022        0.326028 
        5.48212         5.66467        0.323597 
        5.49786         5.61927        0.321187 
        5.51353         5.57172        0.318814 
        5.52921         5.53862        0.316462 
        5.54495          5.5084        0.314127 
        5.56066         5.46824        0.311817 
        5.57637         5.43482        0.309532 
        5.59207         5.39112        0.307271 
        5.60778         5.36214        0.305031 
        5.62346         5.31469        0.302817 
        5.63916         5.29209        0.300623 
        5.65487         5.25784        0.298449 
         5.6706         5.21314        0.296295 
        5.68633         5.19401         0.29416 
        5.70203         5.14179        0.292051 
        5.71773         5.11765        0.289963 
        5.73344         5.08127        0.287894 
        5.74916         5.04845        0.285843 
        5.76486         5.00938        0.283815 
        5.78054         4.99504         0.28181 
        5.79626         4.95461        0.279818 
          5.812         4.92588        0.277843 
         5.8277         4.89309        0.275893 
        5.84339         4.86805        0.273962 
        5.85911         4.83176        0.272046 
        5.87484         4.79152        0.270148 
        5.89053         4.77774        0.268272 
        5.90623          4.7325        0.266412 
        5.92195         4.70978        0.264567 
        5.93767         4.68115        0.262741 
        5.95336         4.64886        0.260935 
        5.96905          4.6204        0.259146 
        5.98476         4.59584        0.257371 
        6.00048         4.56964        0.255613 
        6.01617         4.53731        0.253873 
        6.03185         4.49685        0.252151 
        6.04756         4.47762        0.250441 
        6.06331         4.44907        0.248743 
        6.07903         4.42071        0.247065 
        6.09473         4.39542        0.245403 
        6.11044         4.36379        0.243755 
        6.12616         4.33673        0.242123 
        6.14186         4.30836        0.240507 
        6.15755         4.28701        0.238905 
        6.17326         4.25845        0.237318 
        6.18898         4.23126        0.235743 
        6.20467         4.20553        0.234186 
        6.22036         4.17916        0.232643 
         6.2361         4.15207        0.231109 
         6.2518         4.13026        0.229592 
        6.26748         4.10354        0.228091 
        6.28319         4.07156          0.2266 
        6.29893         4.05431        0.225121 
        6.31463         4.02963        0.223658 
        6.33033         4.01325        0.222208 
        6.34604         3.98647        0.220769 
        6.36177         3.95153        0.219342 
        6.37747         3.93686         0.21793 
