# k  (h/Mpc)    Pcb(k)  (Mpc/h)^3    Pcb_linear(k) (Mpc/h)^3   ShotnoiseSubtracted = true
      0.0200456         1193.67         1207.85 
      0.0350414         767.036          753.17 
      0.0492313         496.123         492.983 
      0.0637834          398.94         401.838 
      0.0800726         313.018         317.649 
       0.096163         219.855         215.636 
       0.111083         166.464         162.209 
       0.126058         144.504         145.062 
       0.142273         123.897         125.137 
       0.158546         96.0346         95.1815 
        0.17375         78.3887         76.5655 
       0.188953         70.4036          69.419 
       0.204907           61.78          62.751 
       0.220756         52.9662          52.367 
        0.23588         44.7799         44.0154 
         0.2514         40.1852         39.5922 
       0.267535          37.027         36.3313 
       0.283568         32.5373         31.9957 
       0.299022         28.7659         27.9264 
       0.314451         26.4706         25.2027 
       0.330372         23.9568         23.2248 
       0.346141         21.7969         21.1318 
       0.361624         19.6576         19.0151 
       0.377134         17.8446         17.3055 
       0.392932         16.9752          15.988 
       0.408854         15.3534         14.7595 
       0.424564         14.4694         13.5462 
       0.440253         13.1283         12.4657 
       0.455999         11.9777         11.5709 
       0.471626         11.2179         10.7857 
        0.48727         10.7148         10.0335 
       0.502856         10.0132         9.33884 
       0.518488         9.17558         8.72521 
       0.534347         8.55293         8.17247 
       0.550082          8.1714         7.66411 
       0.565732         7.77637         7.19174 
       0.581496         7.27315         6.75833 
       0.597222         6.83309         6.36689 
       0.612804          6.4112         6.00966 
       0.628434         6.16628         5.67604 
       0.644267         5.83022         5.36251 
       0.660051         5.49939         5.07522 
       0.675724         5.18333         4.81159 
       0.691403         4.97942         4.56632 
       0.707174         4.71902         4.33659 
       0.722871         4.58279          4.1234 
        0.73838          4.2765         3.92669 
       0.754018         4.06106          3.7412 
       0.769845          3.8583         3.56559 
        0.78569         3.74905         3.40102 
       0.801365         3.57452         3.24839 
       0.817031         3.43094         3.10521 
       0.832809         3.25245         2.96974 
       0.848511         3.14582         2.84297 
       0.864097         3.02319         2.72448 
       0.879701         2.93117         2.61264 
       0.895507         2.78929         2.50577 
       0.911279         2.68673          2.4051 
        0.92691          2.6007          2.3108 
       0.942635         2.47342         2.22104 
       0.958396         2.39794         2.13586 
       0.974128         2.32059          2.0553 
       0.989692         2.20986         1.97968 
        1.00528         2.15069         1.90776 
        1.02113          2.0796         1.83829 
        1.03692         2.02673         1.77253 
        1.05264          1.9318         1.71028 
        1.06832         1.87703         1.65111 
        1.08405         1.80849         1.59459 
        1.09979         1.75995         1.54067 
        1.11537         1.69957         1.48978 
        1.13105         1.63532         1.44088 
        1.14679         1.59229         1.39398 
        1.16256         1.53886         1.34907 
        1.17828          1.5104         1.30629 
        1.19395         1.45021         1.26551 
         1.2097         1.40488         1.22626 
        1.22537         1.35698         1.18885 
          1.241         1.32579         1.15312 
        1.25666         1.29881         1.11877 
        1.27241         1.26197         1.08565 
        1.28819         1.20878         1.05382 
        1.30392         1.17883         1.02336 
        1.31957         1.15528        0.994228 
        1.33529          1.1054        0.966126 
        1.35108         1.08392        0.938997 
        1.36674          1.0531        0.913102 
         1.3824         1.03761        0.888206 
        1.39811         1.00619        0.864154 
        1.41389         0.97667          0.8409 
        1.42964        0.950175        0.818538 
        1.44531        0.929903        0.797098 
        1.46101        0.904085        0.776379 
        1.47667         0.88505        0.756456 
        1.49229        0.854063        0.737285 
        1.50793        0.831161        0.718755 
        1.52367         0.81358        0.700741 
        1.53953        0.790304        0.683223 
        1.55526        0.781442        0.666442 
        1.57092        0.764745        0.650292 
        1.58662        0.752654        0.634639 
        1.60235        0.724464        0.619469 
        1.61809        0.709665        0.604786 
        1.63369        0.688656        0.590708 
        1.64941         0.67717        0.576977 
        1.66519        0.664669        0.563632 
        1.68085        0.646069        0.550802 
        1.69652        0.632142        0.538368 
        1.71228        0.616728        0.526245 
        1.72806        0.605481        0.514486 
        1.74368        0.591716        0.503202 
        1.75933        0.581139        0.492234 
        1.77505        0.569872         0.48154 
        1.79081        0.550852        0.471145 
         1.8065        0.546138          0.4611 
        1.82218         0.53031        0.451356 
        1.83797         0.51734        0.441826 
        1.85367        0.510964        0.432623 
        1.86928         0.49894        0.423736 
        1.88497        0.486737        0.415051 
        1.90073        0.481993        0.406575 
        1.91647        0.467537        0.398344 
        1.93218        0.460084        0.390357 
        1.94787         0.45166          0.3826 
        1.96363        0.442884        0.375023 
        1.97935        0.433097        0.367666 
        1.99499        0.425675        0.360547 
        2.01064        0.417318        0.353606 
         2.0264        0.406891        0.346804 
        2.04216        0.401058        0.340183 
        2.05781        0.393521        0.333776 
        2.07353        0.386009        0.327511 
        2.08928        0.379954        0.321393 
        2.10499         0.37244        0.315447 
        2.12065        0.364405        0.309669 
        2.13633        0.359279         0.30403 
        2.15211        0.350083        0.298494 
        2.16785        0.346434        0.293112 
        2.18349        0.339162        0.287895 
        2.19916        0.333842        0.282794 
        2.21489        0.327166          0.2778 
        2.23063         0.32071        0.272922 
         2.2463        0.315522        0.268183 
        2.26194        0.310776        0.263568 
        2.27765        0.305417        0.259037 
        2.29341        0.300075        0.254601 
        2.30914        0.293086        0.250278 
        2.32486        0.289593        0.246057 
        2.34061        0.283029        0.241926 
        2.35635        0.278985        0.237893 
        2.37203          0.2756        0.233965 
        2.38768        0.271023        0.230135 
        2.40339        0.266194        0.226375 
        2.41914        0.262424        0.222691 
        2.43483        0.257613        0.219102 
         2.4505        0.253279        0.215597 
        2.46622        0.249434        0.212157 
        2.48195        0.244843        0.208791 
        2.49759        0.242089        0.205516 
        2.51328        0.236765        0.202302 
        2.52906        0.233717        0.199137 
        2.54479        0.229336        0.196051 
        2.56049        0.226143        0.193036 
        2.57618         0.22357        0.190086 
        2.59189        0.218955        0.187194 
        2.60758        0.216619        0.184366 
        2.62325        0.213202          0.1816 
        2.63898        0.210406        0.178881 
        2.65468        0.205323        0.176223 
        2.67044        0.202816        0.173607 
        2.68618        0.200684        0.171051 
        2.70184        0.197453        0.168555 
        2.71755        0.194217        0.166104 
        2.73329        0.192022        0.163697 
        2.74897        0.188445        0.161345 
        2.76462        0.186229        0.159044 
        2.78034        0.183076        0.156779 
        2.79607        0.180988        0.154556 
        2.81179        0.177804        0.152377 
        2.82749         0.17543        0.150243 
        2.84321        0.172755        0.148148 
        2.85893        0.170692        0.146093 
        2.87462        0.167941         0.14408 
        2.89033        0.166484        0.142103 
        2.90605         0.16375        0.140161 
        2.92176        0.162097        0.138257 
        2.93747        0.159222        0.136389 
        2.95318        0.157411        0.134554 
        2.96891        0.155651        0.132753 
        2.98456        0.153466        0.130992 
        3.00023         0.15132        0.129261 
        3.01596        0.149228        0.127555 
        3.03164        0.147249        0.125885 
        3.04738        0.145833         0.12424 
         3.0631        0.143523        0.122624 
        3.07883         0.14165        0.121037 
        3.09456        0.140259        0.119479 
        3.11026        0.138371         0.11795 
        3.12596        0.136307        0.116448 
        3.14163        0.134669        0.114975 
        3.15734        0.133436        0.113524 
        3.17308           0.132        0.112095 
        3.18879        0.129988        0.110694 
        3.20447        0.128474        0.109319 
         3.2202        0.127296        0.107964 
         3.2359        0.125191        0.106633 
        3.25157        0.123486        0.105328 
        3.26729        0.122852         0.10404 
        3.28304        0.121372        0.102772 
        3.29877          0.1198        0.101526 
        3.31446        0.118812        0.100304 
        3.33014        0.116986       0.0991027 
        3.34585        0.115985       0.0979191 
        3.36158        0.114907       0.0967531 
        3.37727        0.113429       0.0956095 
        3.39294        0.112537       0.0944855 
        3.40867        0.110761       0.0933754 
        3.42439         0.11002       0.0922837 
        3.44008        0.108956       0.0912114 
        3.45578        0.107892       0.0901554 
        3.47153        0.106758       0.0891137 
        3.48724         0.10571       0.0880901 
        3.50292        0.104954        0.087085 
        3.51859        0.103687        0.086096 
        3.53431        0.102687       0.0851192 
        3.55007        0.101847       0.0841551 
        3.56577        0.101112       0.0832097 
        3.58146       0.0998231       0.0822791 
        3.59719       0.0990386       0.0813606 
        3.61292       0.0979549       0.0804563 
        3.62859       0.0973289       0.0795691 
        3.64429       0.0960047       0.0786936 
        3.66003       0.0954256       0.0778285 
        3.67578       0.0945788       0.0769766 
        3.69146       0.0938323       0.0761407 
        3.70712        0.093054       0.0753187 
        3.72284       0.0924303       0.0745056 
        3.73853       0.0915607        0.073706 
        3.75422       0.0906799       0.0729177 
        3.76993       0.0899715       0.0721402 
        3.78564       0.0891335       0.0713744 
        3.80137       0.0885736       0.0706183 
        3.81707       0.0878196       0.0698748 
        3.83279       0.0871447       0.0691413 
        3.84853       0.0862782       0.0684171 
        3.86424       0.0856102       0.0677046 
        3.87992        0.084913       0.0670033 
        3.89561       0.0842595       0.0663119 
        3.91134       0.0835478       0.0656287 
        3.92704       0.0826297        0.064956 
        3.94273        0.082135       0.0642932 
        3.95845       0.0812036       0.0636385 
        3.97418       0.0807255       0.0629927 
        3.98988       0.0798619       0.0623568 
        4.00554       0.0789148       0.0617313 
        4.02125       0.0782107       0.0611125 
        4.03698       0.0772619       0.0605012 
        4.05268       0.0762177       0.0598997 
        4.06839       0.0752302       0.0593058 
         4.0841       0.0743505       0.0587201 
        4.09983       0.0734053       0.0581415 
        4.11555       0.0723484       0.0575709 
        4.13124       0.0713282       0.0570095 
        4.14693       0.0706351        0.056455 
        4.16266       0.0698075       0.0559067 
        4.17839       0.0689905       0.0553658 
        4.19408       0.0679742       0.0548334 
        4.20977       0.0675028       0.0543077 
        4.22551       0.0665724       0.0537876 
        4.24123       0.0658823       0.0532748 
        4.25691       0.0653449         0.05277 
        4.27259       0.0645514       0.0522716 
        4.28831       0.0641608       0.0517786 
        4.30404       0.0632535       0.0512915 
        4.31974        0.062722       0.0508117 
        4.33543       0.0623041       0.0503382 
        4.35116       0.0618611       0.0498697 
        4.36688       0.0612666       0.0494072 
        4.38255       0.0607174       0.0489523 
        4.39825       0.0603721       0.0485021 
        4.41398       0.0598627       0.0480567 
         4.4297       0.0596929       0.0476173 
        4.44541       0.0591191       0.0471834 
        4.46111       0.0586738       0.0467553 
        4.47683       0.0584382       0.0463321 
        4.49251       0.0579901       0.0459151 
        4.50819       0.0580024       0.0455032 
         4.5239       0.0576449       0.0450958 
        4.53962       0.0574031       0.0446928 
        4.55535       0.0571349       0.0442945 
        4.57106       0.0569604       0.0439017 
        4.58678       0.0567669       0.0435135 
         4.6025       0.0568349       0.0431299 
        4.61821       0.0566443       0.0427509 
        4.63391       0.0565268        0.042377 
         4.6496       0.0564272       0.0420077 
        4.66532       0.0562949       0.0416422 
        4.68103       0.0563094       0.0412812 
        4.69673       0.0563732       0.0409248 
        4.71241       0.0563189       0.0405729 
        4.72811       0.0563756       0.0402246 
        4.74384       0.0563033       0.0398799 
        4.75955       0.0565124       0.0395397 
        4.77525       0.0565998       0.0392037 
        4.79096       0.0566543       0.0388712 
        4.80669       0.0565653       0.0385423 
         4.8224       0.0568746       0.0382176 
        4.83809       0.0569802        0.037897 
        4.85379         0.05739       0.0375798 
         4.8695       0.0574188        0.037266 
        4.88521       0.0577003       0.0369559 
        4.90093       0.0581445       0.0366492 
        4.91663        0.058248       0.0363463 
        4.93234       0.0585795       0.0360465 
        4.94807       0.0590135       0.0357499 
        4.96377       0.0592869       0.0354571 
        4.97943       0.0599062       0.0351682 
        4.99514       0.0597254       0.0348818 
        5.01086       0.0603816       0.0345983 
        5.02654       0.0610329       0.0343187 
        5.04227       0.0612982       0.0340413 
          5.058       0.0620742       0.0337669 
        5.07371       0.0625188        0.033496 
        5.08942       0.0632861        0.033228 
        5.10513       0.0636483        0.032963 
        5.12084       0.0640204       0.0327006 
        5.13656       0.0649183       0.0324412 
        5.15225       0.0655314        0.032185 
        5.16796        0.066186       0.0319311 
        5.18369       0.0670032       0.0316798 
         5.1994       0.0678867       0.0314316 
        5.21509       0.0684476       0.0311862 
        5.23079       0.0694386       0.0309432 
        5.24649       0.0702238        0.030703 
        5.26217        0.071094       0.0304654 
        5.27788       0.0718572         0.03023 
        5.29359       0.0726348       0.0299971 
        5.30933       0.0742434       0.0297663 
        5.32504       0.0748298       0.0295382 
        5.34073        0.075971       0.0293128 
        5.35646       0.0768365       0.0290893 
        5.37218       0.0784837       0.0288681 
        5.38789        0.079174       0.0286495 
        5.40357       0.0799698       0.0284334 
        5.41929       0.0813549        0.028219 
        5.43502       0.0831237       0.0280069 
         5.4507       0.0843251       0.0277974 
        5.46639       0.0855741         0.02759 
        5.48212       0.0868127       0.0273842 
        5.49786       0.0883823       0.0271803 
        5.51353         0.09035       0.0269794 
        5.52921       0.0909575       0.0267804 
        5.54495       0.0928635       0.0265828 
        5.56066       0.0947224       0.0263874 
        5.57637       0.0963399       0.0261939 
        5.59207       0.0974301       0.0260026 
        5.60778       0.0995013       0.0258131 
        5.62346        0.101509       0.0256257 
        5.63916        0.102465       0.0254401 
        5.65487        0.105283       0.0252561 
         5.6706        0.106788       0.0250738 
        5.68633         0.10904       0.0248931 
        5.70203        0.111401       0.0247146 
        5.71773        0.113726       0.0245379 
        5.73344         0.11488       0.0243629 
        5.74916        0.117431       0.0241893 
        5.76486        0.120008       0.0240177 
        5.78054        0.121756        0.023848 
        5.79626        0.124014       0.0236794 
          5.812        0.127008       0.0235123 
         5.8277        0.129169       0.0233473 
        5.84339        0.131123       0.0231839 
        5.85911        0.134142       0.0230217 
        5.87484        0.136314       0.0228611 
        5.89053        0.139927       0.0227023 
        5.90623         0.14194        0.022545 
        5.92195         0.14554       0.0223889 
        5.93767        0.148194       0.0222343 
        5.95336        0.150827       0.0220814 
        5.96905        0.153552       0.0219301 
        5.98476        0.155608       0.0217799 
        6.00048        0.159272       0.0216311 
        6.01617        0.163054       0.0214838 
        6.03185        0.166634       0.0213381 
        6.04756        0.168408       0.0211934 
        6.06331        0.172718       0.0210498 
        6.07903        0.177803       0.0209077 
        6.09473        0.179809       0.0207671 
        6.11044        0.184007       0.0206277 
        6.12616         0.18524       0.0204895 
        6.14186        0.190161       0.0203527 
        6.15755        0.194976       0.0202172 
        6.17326        0.197968       0.0200829 
        6.18898        0.201086       0.0199496 
        6.20467        0.205436       0.0198178 
        6.22036        0.208869       0.0196872 
         6.2361        0.210585       0.0195575 
         6.2518        0.216817       0.0194291 
        6.26748         0.22072       0.0193021 
        6.28319        0.225464       0.0191759 
        6.29893         0.22935       0.0190507 
        6.31463        0.234252       0.0189269 
        6.33033        0.237321       0.0188042 
        6.34604        0.243361       0.0186825 
        6.36177        0.246785       0.0185617 
        6.37747        0.251205       0.0184422 
