# k  (h/Mpc)    Pcb(k)  (Mpc/h)^3    Pcb_linear(k) (Mpc/h)^3   ShotnoiseSubtracted = true
      0.0200456         17893.8         18158.7 
      0.0350414         11782.6         11323.1 
      0.0492313         7374.01         7411.48 
      0.0637834         5855.11         6041.21 
      0.0800726         4566.56         4775.52 
       0.096163         3452.32         3241.86 
       0.111083         2664.29         2438.64 
       0.126058         2217.33         2180.85 
       0.142273         1942.26          1881.3 
       0.158546         1552.51         1430.95 
        0.17375         1328.15         1151.08 
       0.188953         1240.72         1043.64 
       0.204907         1062.08         943.396 
       0.220756         948.895         787.283 
        0.23588         832.675         661.726 
         0.2514         739.229         595.227 
       0.267535         717.009         546.203 
       0.283568          625.99         481.022 
       0.299022         592.917         419.844 
       0.314451         604.924         378.896 
       0.330372         516.645         349.161 
       0.346141         475.636         317.695 
       0.361624         452.917         285.872 
       0.377134         426.886         260.169 
       0.392932         408.009         240.362 
       0.408854         389.465         221.893 
       0.424564         376.573         203.652 
       0.440253         341.188         187.408 
       0.455999         324.703         173.956 
       0.471626         328.225         162.152 
        0.48727         308.091         150.843 
       0.502856         286.469           140.4 
       0.518488         283.931         131.174 
       0.534347         266.563         122.865 
       0.550082         254.908         115.222 
       0.565732         253.479          108.12 
       0.581496         241.994         101.604 
       0.597222         234.886         95.7195 
       0.612804         227.091         90.3489 
       0.628434         219.917         85.3333 
       0.644267         209.922         80.6197 
       0.660051         207.451         76.3006 
       0.675724         202.454         72.3372 
       0.691403         198.424         68.6499 
       0.707174         190.895         65.1961 
       0.722871         187.406         61.9911 
        0.73838         184.686         59.0336 
       0.754018         176.845         56.2451 
       0.769845          177.01         53.6049 
        0.78569         171.052         51.1307 
       0.801365         165.635         48.8361 
       0.817031         164.081         46.6835 
       0.832809         160.143         44.6469 
       0.848511         156.387         42.7411 
       0.864097         152.004         40.9598 
       0.879701         151.596         39.2783 
       0.895507         148.134         37.6716 
       0.911279         144.104         36.1582 
        0.92691         141.117         34.7405 
       0.942635         139.733          33.391 
       0.958396          136.66         32.1103 
       0.974128         134.778         30.8992 
       0.989692         130.148         29.7625 
        1.00528         129.952         28.6812 
        1.02113          127.12         27.6367 
        1.03692         124.758         26.6481 
        1.05264         122.514         25.7123 
        1.06832         121.741         24.8228 
        1.08405         118.747          23.973 
        1.09979         117.573         23.1624 
        1.11537         115.938         22.3972 
        1.13105          113.78         21.6621 
        1.14679         112.521          20.957 
        1.16256         110.026         20.2819 
        1.17828         109.237         19.6387 
        1.19395         106.991         19.0256 
         1.2097         105.903         18.4355 
        1.22537         104.865         17.8732 
          1.241         102.107          17.336 
        1.25666         101.128         16.8195 
        1.27241          98.972         16.3217 
        1.28819         98.2829         15.8431 
        1.30392         97.1873         15.3851 
        1.31957         95.4443         14.9472 
        1.33529         93.7097         14.5247 
        1.35108         92.9914         14.1168 
        1.36674         91.5861         13.7275 
         1.3824         90.7183         13.3533 
        1.39811         89.5713         12.9917 
        1.41389         88.0113          12.642 
        1.42964         86.6288         12.3059 
        1.44531         85.9779         11.9835 
        1.46101         84.4286          11.672 
        1.47667         84.1849         11.3725 
        1.49229         83.1345         11.0843 
        1.50793         81.8201         10.8057 
        1.52367         80.7364         10.5349 
        1.53953         80.1215         10.2715 
        1.55526         78.9843         10.0193 
        1.57092         78.3503         9.77646 
        1.58662         77.1656         9.54113 
        1.60235         76.3958         9.31307 
        1.61809         75.4162         9.09233 
        1.63369         74.3399         8.88068 
        1.64941         74.2635         8.67425 
        1.66519         73.0238         8.47361 
        1.68085         71.7748         8.28074 
        1.69652         70.9508         8.09379 
        1.71228         69.9699         7.91155 
        1.72806         69.9207         7.73475 
        1.74368         68.4645         7.56512 
        1.75933         67.8456         7.40022 
        1.77505         67.4334         7.23945 
        1.79081         66.2618         7.08317 
         1.8065         65.5271         6.93215 
        1.82218          65.014         6.78566 
        1.83797         64.4524         6.64239 
        1.85367         63.3532         6.50403 
        1.86928         62.8765         6.37043 
        1.88497         62.1181         6.23985 
        1.90073         61.5147         6.11244 
        1.91647          60.847         5.98868 
        1.93218         60.0501         5.86861 
        1.94787         59.3741           5.752 
        1.96363         58.6522         5.63808 
        1.97935         58.1953         5.52747 
        1.99499         57.5773         5.42045 
        2.01064          56.884          5.3161 
         2.0264         56.2113         5.21383 
        2.04216         55.5913          5.1143 
        2.05781         54.9813         5.01798 
        2.07353         54.4666         4.92379 
        2.08928         54.1373         4.83181 
        2.10499         53.1763         4.74242 
        2.12065          53.009         4.65555 
        2.13633         52.1771         4.57077 
        2.15211         51.6203         4.48755 
        2.16785         50.8393         4.40663 
        2.18349         50.5253         4.32821 
        2.19916         50.0516         4.25152 
        2.21489         49.4619         4.17643 
        2.23063         48.8583          4.1031 
         2.2463         48.6242         4.03185 
        2.26194          48.185         3.96247 
        2.27765         47.5349         3.89435 
        2.29341         47.0939         3.82766 
        2.30914         46.3497         3.76266 
        2.32486          46.161          3.6992 
        2.34061         45.5377          3.6371 
        2.35635         45.2361         3.57647 
        2.37203         44.4382         3.51743 
        2.38768         44.2859         3.45983 
        2.40339         43.7699         3.40332 
        2.41914         43.0661         3.34793 
        2.43483         43.0216         3.29396 
         2.4505         42.6549         3.24127 
        2.46622          42.025         3.18955 
        2.48195         41.5582         3.13895 
        2.49759         41.1596         3.08972 
        2.51328         40.7779          3.0414 
        2.52906         40.5466         2.99381 
        2.54479         40.0802         2.94742 
        2.56049         39.4081         2.90209 
        2.57618         39.1539         2.85775 
        2.59189         38.8969         2.81427 
        2.60758         38.3552         2.77176 
        2.62325         38.0747         2.73017 
        2.63898         37.7424         2.68929 
        2.65468         37.4363         2.64933 
        2.67044         37.1192            2.61 
        2.68618         36.7775         2.57157 
        2.70184         36.1748         2.53405 
        2.71755         35.9211         2.49719 
        2.73329         35.5436         2.46101 
        2.74897         35.2967         2.42565 
        2.76462         35.0388         2.39107 
        2.78034         34.5961         2.35701 
        2.79607         34.0892         2.32358 
        2.81179         33.7739         2.29083 
        2.82749         33.5575         2.25875 
        2.84321         33.2966         2.22725 
        2.85893         32.8503         2.19635 
        2.87462         32.5113         2.16609 
        2.89033         32.2126         2.13637 
        2.90605         31.9564         2.10718 
        2.92176         31.6617         2.07855 
        2.93747         31.3649         2.05046 
        2.95318         31.1284         2.02288 
        2.96891         30.7753          1.9958 
        2.98456         30.6069         1.96933 
        3.00023         30.3498          1.9433 
        3.01596         29.9629         1.91766 
        3.03164         29.6776         1.89255 
        3.04738         29.3961         1.86781 
         3.0631         29.1775         1.84353 
        3.07883         28.8466         1.81967 
        3.09456         28.5612         1.79624 
        3.11026         28.1942         1.77325 
        3.12596         28.0608         1.75067 
        3.14163         27.8302         1.72853 
        3.15734         27.5681         1.70672 
        3.17308         27.3042         1.68523 
        3.18879          27.058         1.66417 
        3.20447         26.6914          1.6435 
         3.2202         26.5526         1.62312 
         3.2359          26.372         1.60311 
        3.25157         26.0396         1.58349 
        3.26729         25.7989         1.56414 
        3.28304         25.5551         1.54507 
        3.29877         25.3254         1.52634 
        3.31446         25.0259         1.50796 
        3.33014         24.8595          1.4899 
        3.34585         24.6899         1.47211 
        3.36158         24.4339         1.45458 
        3.37727         24.2542         1.43739 
        3.39294         23.9783         1.42049 
        3.40867          23.776          1.4038 
        3.42439          23.598         1.38739 
        3.44008          23.409         1.37127 
        3.45578         23.1767         1.35539 
        3.47153         22.9994         1.33973 
        3.48724         22.7464         1.32434 
        3.50292         22.5671         1.30923 
        3.51859         22.3734         1.29436 
        3.53431         22.1178         1.27968 
        3.55007         21.8953         1.26518 
        3.56577         21.7756         1.25097 
        3.58146         21.5177         1.23698 
        3.59719         21.3931         1.22317 
        3.61292         21.2302         1.20958 
        3.62859         21.0095         1.19624 
        3.64429          20.764         1.18308 
        3.66003         20.6756         1.17007 
        3.67578         20.4534         1.15726 
        3.69146         20.3127          1.1447 
        3.70712         20.0993         1.13234 
        3.72284         19.9707         1.12011 
        3.73853         19.8257         1.10809 
        3.75422         19.6051         1.09624 
        3.76993         19.4406         1.08455 
        3.78564          19.233         1.07304 
        3.80137         19.1108         1.06167 
        3.81707         18.9192         1.05049 
        3.83279         18.7136         1.03947 
        3.84853         18.6412         1.02858 
        3.86424         18.4545         1.01787 
        3.87992         18.2542         1.00732 
        3.89561         18.1692         0.99693 
        3.91134         18.0105        0.986659 
        3.92704         17.8378        0.976545 
        3.94273         17.6654        0.966582 
        3.95845         17.5257        0.956739 
        3.97418         17.3976         0.94703 
        3.98988         17.2445        0.937469 
        4.00554         17.1263        0.928065 
        4.02125         16.9401        0.918762 
        4.03698         16.8014        0.909573 
        4.05268         16.6155        0.900529 
        4.06839         16.5353        0.891601 
         4.0841         16.4165        0.882796 
        4.09983         16.2611        0.874097 
        4.11555         16.1526        0.865519 
        4.13124         15.9895        0.857078 
        4.14693         15.8868        0.848742 
        4.16266         15.7323        0.840498 
        4.17839         15.6062        0.832368 
        4.19408         15.4765        0.824363 
        4.20977         15.3507        0.816459 
        4.22551         15.2074         0.80864 
        4.24123         15.0913         0.80093 
        4.25691         14.9327        0.793342 
        4.27259         14.8457        0.785849 
        4.28831         14.7095        0.778438 
        4.30404         14.6433        0.771114 
        4.31974         14.4871        0.763901 
        4.33543         14.4021        0.756783 
        4.35116         14.2707        0.749738 
        4.36688         14.1656        0.742786 
        4.38255         14.0449        0.735947 
        4.39825         13.9195        0.729179 
        4.41398         13.8378        0.722482 
         4.4297         13.6896        0.715876 
        4.44541         13.5725        0.709354 
        4.46111         13.4845        0.702917 
        4.47683         13.3624        0.696555 
        4.49251         13.3009        0.690285 
        4.50819         13.1748        0.684093 
         4.5239         13.0652        0.677968 
        4.53962         12.9666         0.67191 
        4.55535         12.9002        0.665922 
        4.57106         12.7581        0.660016 
        4.58678         12.6836         0.65418 
         4.6025         12.5852        0.648413 
        4.61821         12.4803        0.642716 
        4.63391         12.3464        0.637094 
         4.6496         12.2681        0.631542 
        4.66532         12.1908        0.626047 
        4.68103         12.1071        0.620619 
        4.69673         12.0026        0.615261 
        4.71241         11.9208        0.609971 
        4.72811         11.8098        0.604734 
        4.74384         11.7226        0.599552 
        4.75955         11.6312        0.594438 
        4.77525         11.5205        0.589387 
        4.79096          11.463        0.584387 
        4.80669         11.3746        0.579443 
         4.8224         11.3021        0.574562 
        4.83809         11.1883        0.569741 
        4.85379         11.1434        0.564973 
         4.8695         11.0283        0.560255 
        4.88521         10.9517        0.555593 
        4.90093         10.8591        0.550983 
        4.91663         10.8039        0.546429 
        4.93234         10.7237        0.541922 
        4.94807         10.6299        0.537462 
        4.96377         10.5463         0.53306 
        4.97943         10.4787        0.528717 
        4.99514         10.3714        0.524411 
        5.01086         10.3049        0.520149 
        5.02654         10.2397        0.515946 
        5.04227         10.1843        0.511776 
          5.058         10.0837         0.50765 
        5.07371         10.0025        0.503577 
        5.08942         9.96054        0.499549 
        5.10513         9.86512        0.495563 
        5.12084         9.82138         0.49162 
        5.13656         9.72635        0.487719 
        5.15225         9.65365        0.483868 
        5.16796         9.58781        0.480051 
        5.18369         9.54494        0.476272 
         5.1994          9.4485        0.472541 
        5.21509         9.35352        0.468852 
        5.23079         9.31396        0.465199 
        5.24649         9.24027        0.461587 
        5.26217         9.19432        0.458016 
        5.27788         9.11104        0.454477 
        5.29359         9.05959        0.450975 
        5.30933         8.98654        0.447504 
        5.32504         8.91678        0.444076 
        5.34073         8.85119        0.440687 
        5.35646         8.78527        0.437327 
        5.37218         8.73221        0.434001 
        5.38789         8.68466        0.430715 
        5.40357         8.63899        0.427466 
        5.41929         8.56576        0.424244 
        5.43502         8.52767        0.421054 
         5.4507         8.43501        0.417904 
        5.46639         8.36646        0.414786 
        5.48212         8.33142        0.411693 
        5.49786         8.25984        0.408627 
        5.51353         8.20683        0.405608 
        5.52921         8.15999        0.402615 
        5.54495         8.08875        0.399644 
        5.56066         8.04435        0.396706 
        5.57637         7.99028        0.393798 
        5.59207         7.91951        0.390922 
        5.60778         7.87129        0.388073 
        5.62346         7.81758        0.385256 
        5.63916         7.76225        0.382465 
        5.65487         7.71992        0.379699 
         5.6706          7.6736        0.376958 
        5.68633         7.61083        0.374242 
        5.70203         7.56578        0.371559 
        5.71773         7.50461        0.368902 
        5.73344         7.46535         0.36627 
        5.74916         7.39353        0.363661 
        5.76486         7.35286        0.361081 
        5.78054         7.32048        0.358529 
        5.79626         7.26227        0.355995 
          5.812         7.21237        0.353483 
         5.8277         7.17873        0.351003 
        5.84339         7.11762        0.348546 
        5.85911         7.08091        0.346107 
        5.87484         7.00989        0.343693 
        5.89053         6.96594        0.341306 
        5.90623          6.9401         0.33894 
        5.92195         6.88698        0.336593 
        5.93767         6.83222        0.334269 
        5.95336         6.80181        0.331971 
        5.96905          6.7524        0.329696 
        5.98476         6.70865        0.327438 
        6.00048         6.65554          0.3252 
        6.01617         6.61466        0.322987 
        6.03185         6.57003        0.320796 
        6.04756         6.53904        0.318621 
        6.06331         6.48383        0.316461 
        6.07903         6.44867        0.314326 
        6.09473         6.40056        0.312212 
        6.11044         6.36652        0.310115 
        6.12616         6.33863        0.308038 
        6.14186         6.28715        0.305982 
        6.15755         6.25457        0.303945 
        6.17326         6.21036        0.301925 
        6.18898          6.1627        0.299922 
        6.20467         6.12768        0.297941 
        6.22036         6.07727        0.295977 
         6.2361         6.05609        0.294026 
         6.2518         6.01345        0.292096 
        6.26748         5.96841        0.290187 
        6.28319         5.92631         0.28829 
        6.29893         5.90259        0.286408 
        6.31463          5.8594        0.284546 
        6.33033         5.82382        0.282701 
        6.34604         5.78953        0.280871 
        6.36177         5.74383        0.279056 
        6.37747         5.71184         0.27726 
