# k  (h/Mpc)    Pcb(k)  (Mpc/h)^3    Pcb_linear(k) (Mpc/h)^3   ShotnoiseSubtracted = true
      0.0200456         8259.03         8365.62 
      0.0350414         5382.56         5216.51 
      0.0492313         3419.98         3414.43 
      0.0637834         2725.02         2783.15 
      0.0800726         2132.05         2200.06 
       0.096163          1560.8         1493.51 
       0.111083         1195.03         1123.47 
       0.126058         1009.09         1004.71 
       0.142273         872.796         866.704 
       0.158546         691.796         659.233 
        0.17375         577.267         530.298 
       0.188953         527.857           480.8 
       0.204907         452.667         434.618 
       0.220756         399.378         362.697 
        0.23588          345.03         304.854 
         0.2514         305.775         274.218 
       0.267535         292.811         251.633 
       0.283568         253.902         221.604 
       0.299022         236.524          193.42 
       0.314451         228.601         174.555 
       0.330372         197.592         160.857 
       0.346141         181.769          146.36 
       0.361624         169.985           131.7 
       0.377134         155.213         119.859 
       0.392932         149.696         110.734 
       0.408854         141.045         102.225 
       0.424564         133.816         93.8216 
       0.440253         120.831          86.338 
       0.455999         111.879         80.1405 
       0.471626         108.906         74.7026 
        0.48727         104.138         69.4924 
       0.502856         94.9845         64.6814 
       0.518488         93.0131         60.4314 
       0.534347         86.7541          56.603 
       0.550082         84.3124         53.0821 
       0.565732         82.0841         49.8104 
       0.581496         75.0241         46.8087 
       0.597222         73.0334         44.0975 
       0.612804         69.9258         41.6233 
       0.628434         68.3695         39.3126 
       0.644267         64.3509         37.1411 
       0.660051         62.3629         35.1513 
       0.675724         60.4658         33.3254 
       0.691403         59.1158         31.6266 
       0.707174         56.7093         30.0355 
       0.722871         55.4231          28.559 
        0.73838         53.4038         27.1965 
       0.754018         50.1764         25.9118 
       0.769845         49.7372         24.6955 
        0.78569         48.0651         23.5556 
       0.801365         46.3565         22.4985 
       0.817031         44.6998         21.5068 
       0.832809         43.7305         20.5686 
       0.848511         42.6711         19.6906 
       0.864097         41.7076         18.8699 
       0.879701         40.6783         18.0953 
       0.895507         39.1218         17.3551 
       0.911279         38.2288         16.6579 
        0.92691         37.4949         16.0047 
       0.942635         36.4535          15.383 
       0.958396         36.1849         14.7931 
       0.974128         35.1856         14.2351 
       0.989692         34.0315         13.7114 
        1.00528         33.3506         13.2133 
        1.02113          32.478         12.7321 
        1.03692         32.2461         12.2766 
        1.05264         31.4445         11.8455 
        1.06832         30.6685         11.4357 
        1.08405         30.0075         11.0442 
        1.09979         29.7019         10.6708 
        1.11537         28.8444         10.3183 
        1.13105          28.147         9.97959 
        1.14679         27.7057         9.65478 
        1.16256         27.2994         9.34377 
        1.17828         26.9416         9.04747 
        1.19395         26.1257         8.76499 
         1.2097          26.072         8.49312 
        1.22537         25.3338         8.23408 
          1.241         25.0096         7.98661 
        1.25666         24.3571         7.74868 
        1.27241         24.2059         7.51931 
        1.28819          23.583         7.29883 
        1.30392         23.2958         7.08783 
        1.31957         23.0517         6.88608 
        1.33529         22.6217         6.69145 
        1.35108         22.1974         6.50355 
        1.36674         21.8475          6.3242 
         1.3824         21.5096         6.15177 
        1.39811         21.0733         5.98519 
        1.41389         20.7689         5.82412 
        1.42964         20.7085         5.66925 
        1.44531         20.2328         5.52075 
        1.46101         19.9968         5.37725 
        1.47667          19.738         5.23926 
        1.49229         19.2937         5.10648 
        1.50793         19.1999         4.97814 
        1.52367         18.7712         4.85338 
        1.53953         18.7155         4.73204 
        1.55526         18.3334         4.61582 
        1.57092         18.1513         4.50397 
        1.58662         17.9195         4.39555 
        1.60235         17.6529         4.29048 
        1.61809         17.4102         4.18879 
        1.63369         17.2237         4.09128 
        1.64941         16.9587         3.99618 
        1.66519         16.8178         3.90375 
        1.68085         16.4533         3.81489 
        1.69652         16.3204         3.72877 
        1.71228          16.263         3.64481 
        1.72806         15.9228         3.56336 
        1.74368         15.7538         3.48521 
        1.75933         15.6062         3.40924 
        1.77505         15.4215         3.33518 
        1.79081         15.2128         3.26318 
         1.8065         15.0671         3.19361 
        1.82218         14.8852         3.12612 
        1.83797         14.8192         3.06011 
        1.85367         14.6325         2.99637 
        1.86928          14.506         2.93482 
        1.88497         14.2808         2.87467 
        1.90073         14.1447         2.81597 
        1.91647         13.9149         2.75896 
        1.93218         13.8928         2.70364 
        1.94787         13.6933         2.64991 
        1.96363          13.542         2.59743 
        1.97935         13.3393         2.54648 
        1.99499         13.2417         2.49717 
        2.01064         13.0399          2.4491 
         2.0264         12.9515         2.40198 
        2.04216         12.9038         2.35613 
        2.05781         12.6878         2.31176 
        2.07353         12.5974         2.26836 
        2.08928         12.4374         2.22599 
        2.10499         12.2545         2.18481 
        2.12065         12.2011         2.14479 
        2.13633         12.0971         2.10573 
        2.15211         11.9122         2.06739 
        2.16785         11.8986         2.03011 
        2.18349         11.7281         1.99398 
        2.19916          11.592         1.95865 
        2.21489         11.4399         1.92406 
        2.23063         11.3831         1.89028 
         2.2463         11.2607         1.85745 
        2.26194         11.1498         1.82549 
        2.27765         11.0042         1.79411 
        2.29341         10.9256         1.76338 
        2.30914          10.814         1.73344 
        2.32486         10.7721          1.7042 
        2.34061         10.6418         1.67559 
        2.35635         10.5201         1.64766 
        2.37203          10.438         1.62046 
        2.38768         10.3204         1.59393 
        2.40339         10.3157         1.56789 
        2.41914         10.1742         1.54237 
        2.43483         10.0369         1.51751 
         2.4505         9.95078         1.49324 
        2.46622         9.89758         1.46941 
        2.48195         9.80048          1.4461 
        2.49759         9.69934         1.42342 
        2.51328         9.63279         1.40116 
        2.52906          9.5342         1.37923 
        2.54479         9.44778         1.35786 
        2.56049         9.35622         1.33698 
        2.57618         9.32581         1.31655 
        2.59189         9.20991         1.29652 
        2.60758          9.1027         1.27693 
        2.62325         9.05314         1.25777 
        2.63898         9.00006         1.23894 
        2.65468         8.90047         1.22053 
        2.67044         8.84702         1.20242 
        2.68618         8.73775         1.18471 
        2.70184         8.69573         1.16743 
        2.71755         8.60165         1.15044 
        2.73329         8.54274         1.13377 
        2.74897         8.47631         1.11749 
        2.76462         8.39205         1.10155 
        2.78034         8.32213         1.08586 
        2.79607         8.24785         1.07046 
        2.81179         8.21196         1.05538 
        2.82749         8.12771          1.0406 
        2.84321         8.07616         1.02608 
        2.85893         7.97988         1.01185 
        2.87462         7.94481        0.997907 
        2.89033         7.84657        0.984215 
        2.90605         7.79867        0.970767 
        2.92176         7.76143        0.957576 
        2.93747         7.68849        0.944636 
        2.95318         7.63867        0.931932 
        2.96891         7.55948        0.919454 
        2.98456         7.49054         0.90726 
        3.00023          7.4403        0.895267 
        3.01596         7.38526        0.883454 
        3.03164         7.32915        0.871886 
        3.04738         7.26757        0.860491 
         3.0631         7.19615        0.849303 
        3.07883         7.15314        0.838312 
        3.09456         7.08228        0.827517 
        3.11026         7.00789        0.816927 
        3.12596         6.97849        0.806524 
        3.14163         6.94314        0.796325 
        3.15734         6.88224        0.786277 
        3.17308         6.83027        0.776378 
        3.18879         6.77911        0.766676 
        3.20447         6.72031        0.757153 
         3.2202         6.66703        0.747762 
         3.2359         6.60632        0.738546 
        3.25157          6.5801        0.729507 
        3.26729         6.52438        0.720591 
        3.28304         6.45214        0.711806 
        3.29877         6.43262        0.703178 
        3.31446          6.3854        0.694712 
        3.33014         6.32447        0.686391 
        3.34585         6.26063        0.678194 
        3.36158         6.23692        0.670118 
        3.37727         6.19446        0.662198 
        3.39294         6.14927        0.654413 
        3.40867          6.1143        0.646724 
        3.42439         6.05763        0.639163 
        3.44008         6.00541        0.631736 
        3.45578         5.97312        0.624422 
        3.47153         5.93138        0.617207 
        3.48724         5.86818        0.610118 
        3.50292         5.82609        0.603156 
        3.51859          5.7994        0.596306 
        3.53431         5.73955        0.589541 
        3.55007         5.69576        0.582864 
        3.56577         5.65826        0.576316 
        3.58146         5.63617         0.56987 
        3.59719         5.57572        0.563508 
        3.61292         5.55443        0.557246 
        3.62859         5.51205        0.551101 
        3.64429         5.46895        0.545037 
        3.66003         5.42926        0.539045 
        3.67578         5.40186        0.533145 
        3.69146         5.35966        0.527355 
        3.70712         5.31362        0.521662 
        3.72284         5.28336        0.516031 
        3.73853         5.24796        0.510492 
        3.75422         5.21688        0.505033 
        3.76993         5.16902        0.499648 
        3.78564         5.13676        0.494343 
        3.80137         5.08239        0.489107 
        3.81707         5.05658        0.483957 
        3.83279         5.02611        0.478877 
        3.84853         4.98665        0.473861 
        3.86424         4.94514        0.468927 
        3.87992         4.92345        0.464069 
        3.89561         4.87729         0.45928 
        3.91134         4.85556        0.454549 
        3.92704         4.81629        0.449889 
        3.94273          4.7875        0.445299 
        3.95845         4.75674        0.440764 
        3.97418         4.72444        0.436292 
        3.98988         4.69261        0.431887 
        4.00554         4.66576        0.427555 
        4.02125          4.6308        0.423269 
        4.03698         4.58605        0.419035 
        4.05268         4.55198        0.414869 
        4.06839         4.50883        0.410756 
         4.0841         4.50472        0.406699 
        4.09983         4.45133        0.402692 
        4.11555         4.43517         0.39874 
        4.13124         4.38876        0.394851 
        4.14693         4.36255        0.391011 
        4.16266         4.32946        0.387213 
        4.17839         4.30973        0.383467 
        4.19408          4.2807         0.37978 
        4.20977         4.25373        0.376138 
        4.22551         4.22118        0.372536 
        4.24123         4.18319        0.368984 
        4.25691          4.1622        0.365489 
        4.27259         4.12723        0.362037 
        4.28831         4.10455        0.358622 
        4.30404         4.06778        0.355248 
        4.31974         4.04732        0.351925 
        4.33543          4.0084        0.348646 
        4.35116         3.98169          0.3454 
        4.36688         3.97114        0.342197 
        4.38255         3.94135        0.339047 
        4.39825         3.91354        0.335929 
        4.41398         3.88721        0.332844 
         4.4297         3.85463          0.3298 
        4.44541         3.84396        0.326796 
        4.46111          3.8134         0.32383 
        4.47683         3.78232        0.320899 
        4.49251         3.76265        0.318011 
        4.50819         3.74919        0.315158 
         4.5239         3.71196        0.312336 
        4.53962         3.69148        0.309545 
        4.55535         3.66327        0.306787 
        4.57106         3.64993        0.304066 
        4.58678         3.62135        0.301377 
         4.6025         3.60071         0.29872 
        4.61821         3.57475        0.296096 
        4.63391         3.54763        0.293506 
         4.6496          3.5209        0.290948 
        4.66532         3.49784        0.288417 
        4.68103         3.48988        0.285916 
        4.69673         3.45233        0.283448 
        4.71241          3.4379         0.28101 
        4.72811         3.42002        0.278598 
        4.74384         3.40109        0.276211 
        4.75955         3.37095        0.273855 
        4.77525         3.35037        0.271527 
        4.79096         3.33328        0.269224 
        4.80669         3.32016        0.266946 
         4.8224         3.29416        0.264698 
        4.83809         3.27107        0.262477 
        4.85379         3.25602         0.26028 
         4.8695         3.22496        0.258107 
        4.88521         3.21053        0.255959 
        4.90093         3.18616        0.253835 
        4.91663         3.17436        0.251737 
        4.93234         3.15527         0.24966 
        4.94807         3.13648        0.247606 
        4.96377         3.11957        0.245578 
        4.97943         3.09298        0.243577 
        4.99514         3.08355        0.241593 
        5.01086         3.05845         0.23963 
        5.02654         3.04066        0.237693 
        5.04227         3.02906        0.235772 
          5.058         3.00044        0.233872 
        5.07371         2.98983        0.231995 
        5.08942         2.96865        0.230139 
        5.10513         2.96347        0.228303 
        5.12084         2.93872        0.226487 
        5.13656         2.91882         0.22469 
        5.15225         2.90131        0.222915 
        5.16796         2.87986        0.221157 
        5.18369         2.87094        0.219416 
         5.1994         2.84861        0.217697 
        5.21509         2.83616        0.215998 
        5.23079         2.81331        0.214315 
        5.24649         2.80785        0.212651 
        5.26217         2.78615        0.211005 
        5.27788         2.76527        0.209375 
        5.29359         2.75099        0.207762 
        5.30933          2.7414        0.206163 
        5.32504         2.72148        0.204584 
        5.34073         2.70907        0.203022 
        5.35646         2.69375        0.201474 
        5.37218         2.67412        0.199942 
        5.38789         2.66211        0.198428 
        5.40357         2.64812        0.196931 
        5.41929         2.62853        0.195447 
        5.43502         2.61469        0.193977 
         5.4507         2.60021        0.192526 
        5.46639         2.58792         0.19109 
        5.48212         2.57473        0.189665 
        5.49786         2.55196        0.188252 
        5.51353         2.53764        0.186861 
        5.52921           2.529        0.185483 
        5.54495         2.51785        0.184114 
        5.56066         2.50185        0.182761 
        5.57637         2.48245        0.181421 
        5.59207         2.47337        0.180096 
        5.60778         2.46092        0.178783 
        5.62346         2.44943        0.177486 
        5.63916         2.43581        0.176199 
        5.65487         2.42079        0.174925 
         5.6706         2.41083        0.173662 
        5.68633         2.39167        0.172411 
        5.70203         2.38023        0.171175 
        5.71773         2.36815        0.169951 
        5.73344         2.35436        0.168739 
        5.74916         2.34237        0.167537 
        5.76486         2.32944        0.166348 
        5.78054         2.31756        0.165173 
        5.79626         2.30811        0.164005 
          5.812         2.29522        0.162848 
         5.8277         2.28355        0.161705 
        5.84339         2.27088        0.160573 
        5.85911         2.25832         0.15945 
        5.87484         2.25066        0.158337 
        5.89053         2.23314        0.157238 
        5.90623         2.22551        0.156148 
        5.92195         2.20981        0.155067 
        5.93767          2.2046        0.153996 
        5.95336         2.19027        0.152937 
        5.96905         2.18383        0.151889 
        5.98476         2.16965        0.150849 
        6.00048         2.15629        0.149818 
        6.01617         2.14764        0.148798 
        6.03185         2.13517        0.147789 
        6.04756         2.12388        0.146787 
        6.06331         2.11375        0.145792 
        6.07903         2.09882        0.144808 
        6.09473         2.09141        0.143834 
        6.11044         2.08254        0.142868 
        6.12616         2.07048        0.141912 
        6.14186         2.06053        0.140964 
        6.15755         2.05191        0.140026 
        6.17326         2.03814        0.139095 
        6.18898           2.028        0.138172 
        6.20467         2.02229         0.13726 
        6.22036         2.01177        0.136355 
         6.2361         2.00139        0.135456 
         6.2518         1.99599        0.134567 
        6.26748         1.98324        0.133688 
        6.28319         1.97383        0.132814 
        6.29893         1.96393        0.131947 
        6.31463         1.95413        0.131089 
        6.33033         1.94492        0.130239 
        6.34604         1.93507        0.129396 
        6.36177         1.92725         0.12856 
        6.37747         1.91803        0.127732 
