# k  (h/Mpc)    Pcb(k)  (Mpc/h)^3    Pcb_linear(k) (Mpc/h)^3   ShotnoiseSubtracted = true
      0.0200456         2635.93         2670.94 
      0.0350414         1656.79         1665.51 
      0.0492313          1096.8         1090.15 
      0.0637834         902.968         888.595 
      0.0800726         709.901         702.426 
       0.096163         475.263         476.841 
       0.111083         357.692         358.696 
       0.126058         324.337         320.779 
       0.142273          281.44         276.718 
       0.158546         217.513         210.477 
        0.17375         171.369         169.311 
       0.188953         158.612         153.508 
       0.204907         147.674         138.763 
       0.220756         121.591         115.801 
        0.23588         102.988         97.3325 
         0.2514         91.0907         87.5512 
       0.267535         84.5755         80.3404 
       0.283568         75.2478         70.7529 
       0.299022         67.1548         61.7544 
       0.314451         59.4061         55.7314 
       0.330372         55.2774         51.3577 
       0.346141         50.0064         46.7293 
       0.361624         45.9173         42.0486 
       0.377134         42.6547          38.268 
       0.392932         37.7369         35.3546 
       0.408854         36.2282          32.638 
       0.424564          33.732          29.955 
       0.440253          30.953         27.5657 
       0.455999         28.9217          25.587 
       0.471626         27.0805         23.8507 
        0.48727         25.5026         22.1873 
       0.502856         23.7982         20.6512 
       0.518488         22.5929         19.2943 
       0.534347         21.6243          18.072 
       0.550082         19.6301         16.9479 
       0.565732         18.1722         15.9033 
       0.581496         17.7367         14.9449 
       0.597222         17.0266         14.0793 
       0.612804         15.8133         13.2893 
       0.628434         15.1847         12.5516 
       0.644267         14.6365         11.8583 
       0.660051         13.7853          11.223 
       0.675724         13.0247           10.64 
       0.691403         12.5783         10.0976 
       0.707174         11.9975         9.58961 
       0.722871         11.5097          9.1182 
        0.73838         10.9718         8.68319 
       0.754018          10.591         8.27303 
       0.769845         10.1232         7.88469 
        0.78569         9.75631         7.52076 
       0.801365         9.33925         7.18325 
       0.817031         9.01174         6.86662 
       0.832809         8.77819         6.56707 
       0.848511         8.22127         6.28674 
       0.864097         8.00465         6.02472 
       0.879701         7.74115         5.77741 
       0.895507         7.35882         5.54108 
       0.911279         7.22862         5.31847 
        0.92691         6.98072         5.10993 
       0.942635         6.65426         4.91144 
       0.958396          6.4564         4.72307 
       0.974128         6.26826         4.54493 
       0.989692         6.15057         4.37773 
        1.00528         5.92416         4.21869 
        1.02113         5.67506         4.06506 
        1.03692         5.52077         3.91964 
        1.05264          5.3894         3.78199 
        1.06832         5.23023         3.65115 
        1.08405         5.02782         3.52616 
        1.09979         4.90298         3.40693 
        1.11537         4.80551         3.29438 
        1.13105         4.65141         3.18625 
        1.14679         4.54715         3.08254 
        1.16256          4.3796         2.98324 
        1.17828         4.31576         2.88864 
        1.19395         4.14563         2.79845 
         1.2097         4.04931         2.71165 
        1.22537         3.92876         2.62895 
          1.241         3.85373         2.54993 
        1.25666         3.79274         2.47397 
        1.27241         3.65919         2.40074 
        1.28819         3.56704         2.33034 
        1.30392           3.506         2.26297 
        1.31957         3.42207         2.19856 
        1.33529         3.33609         2.13642 
        1.35108          3.2518         2.07643 
        1.36674         3.20741         2.01917 
         1.3824         3.08094         1.96411 
        1.39811         3.02915         1.91093 
        1.41389         2.97596          1.8595 
        1.42964         2.91195         1.81006 
        1.44531         2.84665         1.76264 
        1.46101         2.78057         1.71683 
        1.47667         2.71738         1.67277 
        1.49229         2.68521         1.63038 
        1.50793         2.60476          1.5894 
        1.52367         2.56594         1.54957 
        1.53953         2.49547         1.51083 
        1.55526         2.45666         1.47372 
        1.57092         2.40771         1.43801 
        1.58662         2.35129         1.40339 
        1.60235         2.31447         1.36985 
        1.61809         2.26879         1.33738 
        1.63369         2.22642         1.30625 
        1.64941          2.1796         1.27588 
        1.66519         2.15077         1.24637 
        1.68085          2.0981           1.218 
        1.69652         2.05679         1.19051 
        1.71228         2.02707          1.1637 
        1.72806          1.9851          1.1377 
        1.74368         1.94465         1.11274 
        1.75933          1.9154         1.08849 
        1.77505         1.88913         1.06484 
        1.79081         1.84749         1.04186 
         1.8065         1.81736         1.01964 
        1.82218         1.79514        0.998095 
        1.83797         1.77162        0.977021 
        1.85367         1.72824         0.95667 
        1.86928         1.70644         0.93702 
        1.88497         1.67754        0.917812 
        1.90073         1.64283        0.899071 
        1.91647         1.61506        0.880869 
        1.93218         1.59944        0.863207 
        1.94787         1.57838        0.846054 
        1.96363         1.53961        0.829299 
        1.97935         1.51786         0.81303 
        1.99499         1.48803        0.797288 
        2.01064         1.47434        0.781939 
         2.0264         1.45011        0.766896 
        2.04216         1.43057        0.752256 
        2.05781         1.40144        0.738089 
        2.07353         1.39132        0.724235 
        2.08928         1.36996        0.710705 
        2.10499         1.34422        0.697557 
        2.12065         1.33483        0.684779 
        2.13633         1.30987        0.672309 
        2.15211         1.29026        0.660069 
        2.16785         1.27191        0.648166 
        2.18349         1.25325        0.636631 
        2.19916         1.23204        0.625351 
        2.21489         1.21906        0.614306 
        2.23063         1.19531         0.60352 
         2.2463          1.1833         0.59304 
        2.26194         1.16407        0.582835 
        2.27765         1.15228        0.572816 
        2.29341         1.13588        0.563006 
        2.30914         1.11585        0.553446 
        2.32486         1.11203        0.544111 
        2.34061         1.09074        0.534976 
        2.35635         1.07757        0.526059 
        2.37203         1.06647        0.517374 
        2.38768         1.05307        0.508903 
        2.40339         1.03838         0.50059 
        2.41914         1.02494        0.492443 
        2.43483         1.01433        0.484505 
         2.4505        0.998492        0.476755 
        2.46622        0.989615        0.469148 
        2.48195        0.974356        0.461705 
        2.49759        0.963139        0.454463 
        2.51328        0.949659        0.447356 
        2.52906        0.941082        0.440357 
        2.54479        0.928239        0.433532 
        2.56049        0.918015        0.426865 
        2.57618        0.909117        0.420343 
        2.59189         0.89835        0.413948 
        2.60758        0.884335        0.407694 
        2.62325         0.87457        0.401578 
        2.63898        0.866435        0.395564 
        2.65468        0.856027        0.389687 
        2.67044        0.849848        0.383903 
        2.68618        0.834483        0.378249 
        2.70184        0.828352        0.372731 
        2.71755          0.8172        0.367309 
        2.73329        0.808929        0.361987 
        2.74897        0.800395        0.356786 
        2.76462        0.793385        0.351699 
        2.78034        0.783655         0.34669 
        2.79607        0.773123        0.341773 
        2.81179        0.768716        0.336956 
        2.82749        0.756243        0.332237 
        2.84321        0.751861        0.327603 
        2.85893        0.743585        0.323059 
        2.87462        0.736208        0.318608 
        2.89033        0.725361        0.314236 
        2.90605        0.719069        0.309943 
        2.92176         0.71297        0.305731 
        2.93747        0.705378          0.3016 
        2.95318        0.698598        0.297544 
        2.96891        0.692439         0.29356 
        2.98456        0.686824        0.289666 
        3.00023        0.678215        0.285838 
        3.01596        0.673367        0.282066 
        3.03164        0.669335        0.278372 
        3.04738        0.658896        0.274734 
         3.0631         0.65305        0.271162 
        3.07883        0.647084        0.267653 
        3.09456        0.642444        0.264206 
        3.11026        0.636655        0.260825 
        3.12596        0.628239        0.257504 
        3.14163        0.625512        0.254247 
        3.15734         0.61711         0.25104 
        3.17308        0.612116        0.247879 
        3.18879        0.607692        0.244781 
        3.20447        0.603207        0.241741 
         3.2202        0.597177        0.238743 
         3.2359        0.591057          0.2358 
        3.25157        0.587307        0.232914 
        3.26729        0.580464        0.230067 
        3.28304        0.577347        0.227263 
        3.29877        0.570254        0.224508 
        3.31446         0.56617        0.221805 
        3.33014        0.564074        0.219148 
        3.34585        0.558442        0.216531 
        3.36158        0.551631        0.213953 
        3.37727        0.549147        0.211424 
        3.39294         0.54351        0.208938 
        3.40867        0.538932        0.206484 
        3.42439        0.536743        0.204069 
        3.44008        0.531555        0.201698 
        3.45578        0.528709        0.199363 
        3.47153        0.524492        0.197059 
        3.48724        0.519117        0.194796 
        3.50292         0.51565        0.192573 
        3.51859        0.512978        0.190386 
        3.53431        0.507742        0.188226 
        3.55007        0.504896        0.186094 
        3.56577        0.500849        0.184004 
        3.58146        0.498696        0.181946 
        3.59719        0.492455        0.179915 
        3.61292        0.491274        0.177915 
        3.62859        0.486504        0.175953 
        3.64429        0.482712        0.174017 
        3.66003        0.479937        0.172104 
        3.67578        0.476538        0.170221 
        3.69146        0.473431        0.168372 
        3.70712        0.469541        0.166554 
        3.72284        0.466547        0.164756 
        3.73853        0.463456        0.162988 
        3.75422        0.459986        0.161245 
        3.76993        0.457457        0.159526 
        3.78564        0.454661        0.157832 
        3.80137         0.45058         0.15616 
        3.81707        0.448078        0.154516 
        3.83279         0.44465        0.152894 
        3.84853         0.44143        0.151292 
        3.86424        0.438111        0.149717 
        3.87992         0.43669        0.148166 
        3.89561        0.432503        0.146637 
        3.91134        0.429711        0.145127 
        3.92704        0.426242        0.143639 
        3.94273        0.423605        0.142173 
        3.95845        0.421384        0.140726 
        3.97418        0.417504        0.139298 
        3.98988        0.414636        0.137891 
        4.00554        0.412781        0.136508 
        4.02125        0.408181         0.13514 
        4.03698        0.405008        0.133788 
        4.05268        0.401065        0.132458 
        4.06839         0.39687        0.131144 
         4.0841        0.394618        0.129849 
        4.09983        0.390399         0.12857 
        4.11555        0.388747        0.127308 
        4.13124        0.384528        0.126067 
        4.14693        0.381796        0.124841 
        4.16266         0.37783        0.123628 
        4.17839        0.375804        0.122432 
        4.19408        0.373426        0.121255 
        4.20977        0.369028        0.120092 
        4.22551        0.367053        0.118942 
        4.24123         0.36422        0.117808 
        4.25691        0.361681        0.116692 
        4.27259         0.35981         0.11559 
        4.28831         0.35685        0.114499 
        4.30404        0.353668        0.113422 
        4.31974        0.351941        0.112361 
        4.33543        0.348827        0.111314 
        4.35116         0.34746        0.110278 
        4.36688        0.345494        0.109255 
        4.38255        0.342849         0.10825 
        4.39825        0.341305        0.107254 
        4.41398        0.339244        0.106269 
         4.4297        0.336512        0.105297 
        4.44541        0.334754        0.104338 
        4.46111         0.33463        0.103391 
        4.47683        0.331641        0.102456 
        4.49251        0.330634        0.101533 
        4.50819        0.329554        0.100622 
         4.5239        0.327419       0.0997215 
        4.53962        0.326979       0.0988304 
        4.55535        0.323532       0.0979497 
        4.57106        0.323791        0.097081 
        4.58678        0.321019       0.0962226 
         4.6025        0.320918       0.0953743 
        4.61821        0.318664       0.0945363 
        4.63391        0.318222       0.0937094 
         4.6496        0.315909       0.0928928 
        4.66532        0.315705       0.0920845 
        4.68103        0.314148       0.0912862 
        4.69673        0.313386        0.090498 
        4.71241        0.312671       0.0897199 
        4.72811        0.311889       0.0889497 
        4.74384         0.31036       0.0881874 
        4.75955        0.310283       0.0874352 
        4.77525        0.309312       0.0866922 
        4.79096        0.308993       0.0859568 
        4.80669         0.30894       0.0852296 
         4.8224        0.307695       0.0845116 
        4.83809        0.306676       0.0838026 
        4.85379        0.306759       0.0831012 
         4.8695        0.306477       0.0824073 
        4.88521        0.304952       0.0817215 
        4.90093        0.305592       0.0810435 
        4.91663        0.305034       0.0803736 
        4.93234        0.304691       0.0797106 
        4.94807        0.304344       0.0790546 
        4.96377        0.303634       0.0784072 
        4.97943        0.304385       0.0777684 
        4.99514        0.304731        0.077135 
        5.01086        0.304265       0.0765082 
        5.02654        0.305022       0.0758898 
        5.04227        0.304298       0.0752765 
          5.058        0.304173       0.0746696 
        5.07371         0.30382       0.0740706 
        5.08942        0.305255        0.073478 
        5.10513        0.304963       0.0728919 
        5.12084        0.305326       0.0723118 
        5.13656        0.306085       0.0717381 
        5.15225        0.306015       0.0711715 
        5.16796        0.306777       0.0706102 
        5.18369        0.307765       0.0700543 
         5.1994        0.307975       0.0695055 
        5.21509        0.308775        0.068963 
        5.23079        0.308345       0.0684256 
        5.24649        0.309287       0.0678943 
        5.26217        0.310192        0.067369 
        5.27788        0.310798       0.0668485 
        5.29359        0.311321       0.0663334 
        5.30933        0.311337       0.0658229 
        5.32504        0.313436       0.0653187 
        5.34073        0.314697       0.0648202 
        5.35646        0.314538       0.0643259 
        5.37218        0.316578       0.0638367 
        5.38789        0.316985       0.0633533 
        5.40357        0.318757       0.0628755 
        5.41929        0.318505       0.0624015 
        5.43502        0.320043       0.0619323 
         5.4507        0.321856       0.0614691 
        5.46639        0.322105       0.0610104 
        5.48212        0.324031       0.0605554 
        5.49786        0.325104       0.0601045 
        5.51353        0.326836       0.0596603 
        5.52921        0.328163       0.0592202 
        5.54495        0.329088       0.0587832 
        5.56066        0.329208       0.0583511 
        5.57637        0.331858       0.0579234 
        5.59207        0.334033       0.0575003 
        5.60778        0.334468       0.0570812 
        5.62346        0.336049       0.0566669 
        5.63916        0.338482       0.0562563 
        5.65487        0.339478       0.0558495 
         5.6706        0.341292       0.0554463 
        5.68633        0.343227       0.0550469 
        5.70203        0.344427       0.0546522 
        5.71773        0.346527       0.0542614 
        5.73344        0.347688       0.0538742 
        5.74916        0.348659       0.0534905 
        5.76486         0.35238       0.0531109 
        5.78054         0.35349       0.0527357 
        5.79626        0.353665       0.0523629 
          5.812        0.356501       0.0519934 
         5.8277         0.35819       0.0516286 
        5.84339        0.360109       0.0512672 
        5.85911        0.362246       0.0509085 
        5.87484        0.362658       0.0505534 
        5.89053        0.365125       0.0502023 
        5.90623        0.367616       0.0498544 
        5.92195        0.369121       0.0495091 
        5.93767        0.370463       0.0491673 
        5.95336        0.372372       0.0488293 
        5.96905         0.37541       0.0484945 
        5.98476        0.376265       0.0481625 
        6.00048         0.37819       0.0478334 
        6.01617        0.380949       0.0475078 
        6.03185        0.383084       0.0471856 
        6.04756        0.384527       0.0468656 
        6.06331        0.386043       0.0465479 
        6.07903        0.389955       0.0462338 
        6.09473        0.389119       0.0459228 
        6.11044        0.392057       0.0456145 
        6.12616        0.394708        0.045309 
        6.14186        0.394705       0.0450066 
        6.15755        0.397547       0.0447069 
        6.17326        0.400697       0.0444098 
        6.18898        0.401845       0.0441152 
        6.20467        0.404032       0.0438237 
        6.22036        0.405668       0.0435349 
         6.2361        0.408265        0.043248 
         6.2518        0.410719        0.042964 
        6.26748        0.411257       0.0426833 
        6.28319        0.412827       0.0424042 
        6.29893        0.416543       0.0421274 
        6.31463        0.416966       0.0418536 
        6.33033        0.418395       0.0415822 
        6.34604         0.41955        0.041313 
        6.36177        0.423892        0.041046 
        6.37747        0.425902       0.0407818 
