# k  (h/Mpc)    Pcb(k)  (Mpc/h)^3    Pcb_linear(k) (Mpc/h)^3   ShotnoiseSubtracted = true
      0.0200456         4140.26         4190.83 
      0.0350414         2680.59         2613.25 
      0.0492313         1718.06         1710.49 
      0.0637834         1373.96         1394.24 
      0.0800726         1076.64         1102.14 
       0.096163         772.632         748.185 
       0.111083         588.351         562.811 
       0.126058         502.908         503.316 
       0.142273         432.471         434.182 
       0.158546          339.44         330.248 
        0.17375         280.079         265.657 
       0.188953         253.296         240.861 
       0.204907         218.785         217.725 
       0.220756         190.924         181.696 
        0.23588          163.01         152.719 
         0.2514         145.382         137.372 
       0.267535         136.575         126.058 
       0.283568         119.126         111.014 
       0.299022         108.313         96.8954 
       0.314451         101.712          87.445 
       0.330372         90.0456         80.5825 
       0.346141         82.3411         73.3204 
       0.361624         75.5468         65.9761 
       0.377134         68.5647         60.0442 
       0.392932         65.9803         55.4729 
       0.408854         60.8359         51.2105 
       0.424564         57.6086         47.0007 
       0.440253         52.2443         43.2518 
       0.455999         47.5085         40.1471 
       0.471626         45.2518         37.4229 
        0.48727         43.6477         34.8128 
       0.502856         40.4265         32.4027 
       0.518488         38.0713         30.2736 
       0.534347         35.7095         28.3558 
       0.550082         34.3082         26.5919 
       0.565732         32.9226          24.953 
       0.581496         30.5561         23.4492 
       0.597222         29.0804          22.091 
       0.612804         27.6051         20.8515 
       0.628434         27.0863          19.694 
       0.644267         25.4868         18.6061 
       0.660051         24.2438         17.6093 
       0.675724         23.1098         16.6946 
       0.691403         22.5882         15.8436 
       0.707174         21.5788         15.0465 
       0.722871         20.8636         14.3069 
        0.73838         19.7931         13.6243 
       0.754018         18.6267         12.9807 
       0.769845         18.2613         12.3714 
        0.78569         17.6182         11.8004 
       0.801365         16.9368         11.2708 
       0.817031         16.2028          10.774 
       0.832809          15.775          10.304 
       0.848511         15.1977         9.86418 
       0.864097         14.7145         9.45306 
       0.879701         14.4364         9.06501 
       0.895507         13.8497         8.69419 
       0.911279         13.2727         8.34491 
        0.92691         13.0177         8.01771 
       0.942635         12.6596         7.70627 
       0.958396         12.2484         7.41071 
       0.974128         11.9042         7.13119 
       0.989692         11.3151         6.86885 
        1.00528         11.2015         6.61931 
        1.02113         10.8241         6.37825 
        1.03692          10.584         6.15008 
        1.05264         10.3357          5.9341 
        1.06832         10.0993         5.72882 
        1.08405         9.78602         5.53269 
        1.09979         9.55435         5.34562 
        1.11537          9.2466         5.16903 
        1.13105         9.10447         4.99936 
        1.14679         8.87241         4.83664 
        1.16256         8.68096         4.68084 
        1.17828         8.47876          4.5324 
        1.19395         8.30829         4.39089 
         1.2097         8.06257          4.2547 
        1.22537         7.90664         4.12493 
          1.241          7.6773         4.00096 
        1.25666         7.59361         3.88176 
        1.27241         7.45459         3.76686 
        1.28819         7.13069         3.65641 
        1.30392         7.14034         3.55071 
        1.31957         6.90379         3.44964 
        1.33529         6.81902         3.35214 
        1.35108         6.67018         3.25801 
        1.36674         6.50038         3.16816 
         1.3824          6.3836         3.08178 
        1.39811         6.28168         2.99833 
        1.41389         6.15257         2.91764 
        1.42964         6.03831         2.84006 
        1.44531         5.92157         2.76567 
        1.46101         5.85733         2.69378 
        1.47667         5.72181         2.62465 
        1.49229          5.5518         2.55813 
        1.50793         5.50025         2.49384 
        1.52367         5.40058         2.43134 
        1.53953         5.30464         2.37056 
        1.55526          5.2071         2.31233 
        1.57092         5.13691          2.2563 
        1.58662         5.03493         2.20199 
        1.60235         4.98385         2.14935 
        1.61809         4.88692         2.09841 
        1.63369         4.79727         2.04956 
        1.64941         4.69821         2.00192 
        1.66519         4.65943         1.95562 
        1.68085         4.55799          1.9111 
        1.69652         4.51089         1.86796 
        1.71228         4.46121          1.8259 
        1.72806         4.37916         1.78509 
        1.74368         4.30913         1.74595 
        1.75933         4.23837         1.70789 
        1.77505         4.16168         1.67079 
        1.79081         4.11322         1.63472 
         1.8065         4.07577         1.59986 
        1.82218         4.01551         1.56605 
        1.83797         3.92756         1.53299 
        1.85367         3.88587         1.50106 
        1.86928         3.82848         1.47023 
        1.88497         3.78359         1.44009 
        1.90073         3.72391         1.41068 
        1.91647         3.63978         1.38212 
        1.93218         3.61807         1.35441 
        1.94787         3.56909          1.3275 
        1.96363         3.53069         1.30121 
        1.97935         3.49131         1.27568 
        1.99499         3.44397         1.25098 
        2.01064         3.38951          1.2269 
         2.0264         3.36053         1.20329 
        2.04216         3.31159         1.18032 
        2.05781         3.26995         1.15809 
        2.07353         3.22733         1.13636 
        2.08928          3.1824         1.11513 
        2.10499         3.14324          1.0945 
        2.12065         3.12733         1.07445 
        2.13633         3.08709         1.05488 
        2.15211         3.03993         1.03568 
        2.16785         2.99802           1.017 
        2.18349         2.98327        0.998902 
        2.19916         2.93757        0.981203 
        2.21489         2.91516        0.963873 
        2.23063         2.86797        0.946949 
         2.2463         2.83131        0.930506 
        2.26194         2.79548        0.914493 
        2.27765         2.75698        0.898774 
        2.29341         2.72676        0.883382 
        2.30914          2.7053         0.86838 
        2.32486          2.6723        0.853735 
        2.34061         2.65672        0.839402 
        2.35635         2.62243        0.825409 
        2.37203         2.60358        0.811783 
        2.38768         2.57722        0.798491 
        2.40339          2.5315        0.785448 
        2.41914         2.51726        0.772665 
        2.43483         2.48676         0.76021 
         2.4505         2.45141         0.74805 
        2.46622         2.43671        0.736113 
        2.48195         2.42038        0.724435 
        2.49759         2.38223        0.713072 
        2.51328         2.36652        0.701922 
        2.52906         2.33358        0.690939 
        2.54479         2.31806        0.680231 
        2.56049         2.29331         0.66977 
        2.57618         2.27227        0.659537 
        2.59189         2.26301        0.649502 
        2.60758         2.23724         0.63969 
        2.62325         2.19491        0.630093 
        2.63898         2.19212        0.620658 
        2.65468         2.16278        0.611435 
        2.67044         2.15351         0.60236 
        2.68618         2.13093        0.593489 
        2.70184         2.11265        0.584832 
        2.71755         2.08614        0.576325 
        2.73329          2.0695        0.567973 
        2.74897          2.0524        0.559813 
        2.76462         2.03431        0.551832 
        2.78034         2.01678        0.543972 
        2.79607         1.99614        0.536257 
        2.81179         1.98114        0.528699 
        2.82749         1.95634        0.521295 
        2.84321         1.94585        0.514024 
        2.85893         1.92039        0.506894 
        2.87462         1.91333         0.49991 
        2.89033         1.90126        0.493051 
        2.90605         1.87948        0.486314 
        2.92176         1.85697        0.479706 
        2.93747         1.85201        0.473224 
        2.95318         1.83396        0.466859 
        2.96891         1.81738        0.460608 
        2.98456         1.80287        0.454499 
        3.00023         1.79273        0.448492 
        3.01596         1.77314        0.442574 
        3.03164            1.76        0.436779 
        3.04738         1.75075         0.43107 
         3.0631         1.73477        0.425465 
        3.07883         1.72098        0.419959 
        3.09456         1.70235        0.414551 
        3.11026         1.69288        0.409247 
        3.12596         1.68477        0.404035 
        3.14163         1.66655        0.398925 
        3.15734         1.65399        0.393892 
        3.17308          1.6421        0.388933 
        3.18879         1.63541        0.384073 
        3.20447         1.62312        0.379302 
         3.2202         1.60408        0.374598 
         3.2359         1.60164        0.369981 
        3.25157         1.58406        0.365453 
        3.26729         1.57018        0.360986 
        3.28304         1.55778        0.356585 
        3.29877         1.54858        0.352263 
        3.31446         1.53462        0.348022 
        3.33014         1.53025        0.343853 
        3.34585         1.51996        0.339747 
        3.36158         1.50204        0.335701 
        3.37727         1.49727        0.331733 
        3.39294         1.48725        0.327833 
        3.40867         1.47582        0.323982 
        3.42439         1.46448        0.320194 
        3.44008         1.45261        0.316474 
        3.45578         1.44379        0.312809 
        3.47153         1.43721        0.309195 
        3.48724         1.42501        0.305644 
        3.50292         1.41676        0.302156 
        3.51859          1.4067        0.298725 
        3.53431         1.39601        0.295335 
        3.55007         1.38746         0.29199 
        3.56577         1.38057         0.28871 
        3.58146         1.37147        0.285481 
        3.59719         1.36542        0.282294 
        3.61292         1.35173        0.279157 
        3.62859         1.34484        0.276079 
        3.64429         1.33673        0.273041 
        3.66003         1.32745        0.270039 
        3.67578         1.32348        0.267083 
        3.69146         1.30699        0.264183 
        3.70712         1.30763        0.261331 
        3.72284         1.29232         0.25851 
        3.73853         1.28418        0.255735 
        3.75422         1.27557           0.253 
        3.76993          1.2671        0.250303 
        3.78564         1.25703        0.247645 
        3.80137         1.25138        0.245022 
        3.81707          1.2434        0.242442 
        3.83279         1.23881        0.239897 
        3.84853         1.22985        0.237385 
        3.86424         1.22174        0.234913 
        3.87992         1.21523        0.232479 
        3.89561         1.20742         0.23008 
        3.91134         1.19799         0.22771 
        3.92704         1.19224        0.225376 
        3.94273         1.18413        0.223076 
        3.95845         1.17627        0.220805 
        3.97418         1.16835        0.218564 
        3.98988         1.16108        0.216357 
        4.00554         1.15605        0.214187 
        4.02125         1.14657         0.21204 
        4.03698         1.14204        0.209919 
        4.05268         1.13298        0.207832 
        4.06839         1.12351        0.205771 
         4.0841         1.11797        0.203739 
        4.09983         1.11105        0.201732 
        4.11555         1.10057        0.199752 
        4.13124         1.09641        0.197804 
        4.14693         1.08741         0.19588 
        4.16266         1.08025        0.193978 
        4.17839         1.07377        0.192101 
        4.19408         1.06305        0.190254 
        4.20977         1.05911         0.18843 
        4.22551         1.05385        0.186625 
        4.24123         1.04809        0.184846 
        4.25691         1.04004        0.183095 
        4.27259         1.03363        0.181365 
        4.28831          1.0264        0.179655 
        4.30404         1.01981        0.177965 
        4.31974         1.01539          0.1763 
        4.33543         1.00736        0.174657 
        4.35116         1.00105        0.173031 
        4.36688        0.997082        0.171427 
        4.38255        0.994092        0.169848 
        4.39825        0.985307        0.168286 
        4.41398        0.980981        0.166741 
         4.4297        0.975897        0.165216 
        4.44541         0.96668        0.163711 
        4.46111        0.966313        0.162225 
        4.47683        0.958088        0.160757 
        4.49251        0.952445         0.15931 
        4.50819        0.951602        0.157881 
         4.5239        0.943408        0.156467 
        4.53962        0.939323        0.155069 
        4.55535        0.936177        0.153687 
        4.57106        0.929337        0.152324 
        4.58678        0.926152        0.150977 
         4.6025        0.922401        0.149646 
        4.61821        0.918622        0.148332 
        4.63391        0.915498        0.147034 
         4.6496        0.907933        0.145753 
        4.66532        0.904356        0.144485 
        4.68103        0.902045        0.143232 
        4.69673        0.896349        0.141995 
        4.71241         0.89268        0.140775 
        4.72811        0.891991        0.139566 
        4.74384        0.887814         0.13837 
        4.75955         0.88346         0.13719 
        4.77525         0.87848        0.136024 
        4.79096        0.875717         0.13487 
        4.80669        0.870909        0.133729 
         4.8224        0.866906        0.132602 
        4.83809        0.866696         0.13149 
        4.85379        0.864453        0.130389 
         4.8695        0.859546        0.129301 
        4.88521        0.855448        0.128225 
        4.90093        0.852428        0.127161 
        4.91663        0.851942         0.12611 
        4.93234        0.849134        0.125069 
        4.94807        0.843846         0.12404 
        4.96377        0.840368        0.123024 
        4.97943        0.839542        0.122022 
        4.99514        0.836539        0.121028 
        5.01086        0.832975        0.120045 
        5.02654        0.829305        0.119074 
        5.04227         0.82712        0.118112 
          5.058        0.826431         0.11716 
        5.07371        0.825665         0.11622 
        5.08942        0.823873         0.11529 
        5.10513        0.817887        0.114371 
        5.12084        0.816571         0.11346 
        5.13656        0.815268         0.11256 
        5.15225        0.813568        0.111671 
        5.16796        0.811575         0.11079 
        5.18369         0.80763        0.109918 
         5.1994        0.807829        0.109057 
        5.21509        0.801942        0.108206 
        5.23079        0.801539        0.107363 
        5.24649        0.801645        0.106529 
        5.26217        0.796916        0.105705 
        5.27788        0.795275        0.104888 
        5.29359        0.796082         0.10408 
        5.30933        0.793734        0.103279 
        5.32504        0.791405        0.102488 
        5.34073        0.789438        0.101706 
        5.35646        0.786821         0.10093 
        5.37218        0.787278        0.100163 
        5.38789        0.785101       0.0994042 
        5.40357        0.783177       0.0986544 
        5.41929        0.781942       0.0979107 
        5.43502        0.782328       0.0971745 
         5.4507        0.777496       0.0964477 
        5.46639        0.777678       0.0957281 
        5.48212        0.776341       0.0950141 
        5.49786        0.775217       0.0943066 
        5.51353        0.774651       0.0936097 
        5.52921        0.772234       0.0929191 
        5.54495        0.772526       0.0922335 
        5.56066        0.770165       0.0915554 
        5.57637        0.770297       0.0908843 
        5.59207        0.767237       0.0902205 
        5.60778        0.767334       0.0895629 
        5.62346        0.766122       0.0889129 
        5.63916        0.766351       0.0882686 
        5.65487        0.763958       0.0876304 
         5.6706        0.761158       0.0869977 
        5.68633         0.76198       0.0863709 
        5.70203        0.759248       0.0857517 
        5.71773        0.760663       0.0851385 
        5.73344        0.759004        0.084531 
        5.74916        0.758045       0.0839289 
        5.76486        0.756991       0.0833334 
        5.78054        0.757026       0.0827446 
        5.79626        0.754629       0.0821598 
          5.812        0.753153         0.08158 
         5.8277         0.75392       0.0810075 
        5.84339        0.752678       0.0804405 
        5.85911        0.751177       0.0798777 
        5.87484        0.750061       0.0793205 
        5.89053        0.750437       0.0787696 
        5.90623         0.74907       0.0782237 
        5.92195        0.748935        0.077682 
        5.93767        0.746643       0.0771457 
        5.95336        0.747854       0.0766153 
        5.96905        0.745879       0.0760901 
        5.98476        0.746009        0.075569 
        6.00048         0.74493       0.0750527 
        6.01617        0.743523       0.0745418 
        6.03185        0.743068       0.0740363 
        6.04756        0.742465       0.0735342 
        6.06331        0.743776       0.0730357 
        6.07903        0.741025       0.0725428 
        6.09473        0.741593        0.072055 
        6.11044        0.740026       0.0715711 
        6.12616        0.737736       0.0710918 
        6.14186         0.73971       0.0706173 
        6.15755        0.738276       0.0701471 
        6.17326        0.737804       0.0696809 
        6.18898        0.738089       0.0692186 
        6.20467        0.735982       0.0687614 
        6.22036        0.734711       0.0683082 
         6.2361        0.732583        0.067858 
         6.2518        0.734287       0.0674125 
        6.26748        0.731778       0.0669719 
        6.28319        0.732098       0.0665341 
        6.29893        0.732855       0.0660998 
        6.31463        0.731841       0.0656701 
        6.33033        0.729576       0.0652443 
        6.34604        0.730044        0.064822 
        6.36177        0.728834        0.064403 
        6.37747        0.727529       0.0639884 
