# k  (h/Mpc)    Pcb(k)  (Mpc/h)^3    Pcb_linear(k) (Mpc/h)^3   ShotnoiseSubtracted = true
      0.0200456         2639.24         2670.94 
      0.0350414         1703.19         1665.51 
      0.0492313         1096.05         1090.15 
      0.0637834         878.464         888.595 
      0.0800726         688.788         702.426 
       0.096163         489.608         476.841 
       0.111083         371.863         358.696 
       0.126058         319.951         320.779 
       0.142273         274.639         276.718 
       0.158546         214.377         210.477 
        0.17375          176.04         169.311 
       0.188953         158.578         153.508 
       0.204907         137.782         138.763 
       0.220756         119.388         115.801 
        0.23588          101.43         97.3325 
         0.2514         90.7523         87.5512 
       0.267535         84.4555         80.3404 
       0.283568         73.9281         70.7529 
       0.299022         66.3384         61.7544 
       0.314451         61.6775         55.7314 
       0.330372         55.1966         51.3577 
       0.346141         50.3364         46.7293 
       0.361624         45.7717         42.0486 
       0.377134         41.5352          38.268 
       0.392932         39.8321         35.3546 
       0.408854         36.3105          32.638 
       0.424564         34.3951          29.955 
       0.440253          31.178         27.5657 
       0.455999         28.3061          25.587 
       0.471626         26.7364         23.8507 
        0.48727         25.7524         22.1873 
       0.502856         23.9983         20.6512 
       0.518488         22.2298         19.2943 
       0.534347         20.8015          18.072 
       0.550082         19.9189         16.9479 
       0.565732         19.0319         15.9033 
       0.581496         17.7956         14.9449 
       0.597222         16.7787         14.0793 
       0.612804         15.8162         13.2893 
       0.628434         15.4517         12.5516 
       0.644267         14.5548         11.8583 
       0.660051         13.7465          11.223 
       0.675724         13.0334           10.64 
       0.691403         12.6726         10.0976 
       0.707174         12.0474         9.58961 
       0.722871         11.6454          9.1182 
        0.73838         10.9817         8.68319 
       0.754018          10.354         8.27303 
       0.769845           10.03         7.88469 
        0.78569         9.71775         7.52076 
       0.801365         9.27925         7.18325 
       0.817031         8.89625         6.86662 
       0.832809          8.5522         6.56707 
       0.848511          8.2595         6.28674 
       0.864097         7.95186         6.02472 
       0.879701         7.77357         5.77741 
       0.895507         7.46024         5.54108 
       0.911279         7.12596         5.31847 
        0.92691         6.93624         5.10993 
       0.942635         6.69956         4.91144 
       0.958396         6.47981         4.72307 
       0.974128         6.29524         4.54493 
       0.989692          5.9653         4.37773 
        1.00528         5.89292         4.21869 
        1.02113         5.67634         4.06506 
        1.03692         5.53865         3.91964 
        1.05264          5.3619         3.78199 
        1.06832         5.22303         3.65115 
        1.08405         5.06378         3.52616 
        1.09979         4.92037         3.40693 
        1.11537         4.77352         3.29438 
        1.13105         4.65064         3.18625 
        1.14679         4.53742         3.08254 
        1.16256         4.40769         2.98324 
        1.17828         4.31499         2.88864 
        1.19395         4.17689         2.79845 
         1.2097         4.03983         2.71165 
        1.22537         3.94235         2.62895 
          1.241         3.83104         2.54993 
        1.25666         3.79934         2.47397 
        1.27241         3.70629         2.40074 
        1.28819         3.54595         2.33034 
        1.30392         3.49041         2.26297 
        1.31957         3.40146         2.19856 
        1.33529         3.31741         2.13642 
        1.35108         3.24821         2.07643 
        1.36674         3.15098         2.01917 
         1.3824         3.11297         1.96411 
        1.39811         3.04014         1.91093 
        1.41389         2.95364          1.8595 
        1.42964         2.89879         1.81006 
        1.44531         2.83423         1.76264 
        1.46101          2.8037         1.71683 
        1.47667         2.72855         1.67277 
        1.49229         2.63491         1.63038 
        1.50793         2.58326          1.5894 
        1.52367         2.52825         1.54957 
        1.53953         2.48168         1.51083 
        1.55526         2.46575         1.47372 
        1.57092         2.39714         1.43801 
        1.58662         2.35737         1.40339 
        1.60235         2.30915         1.36985 
        1.61809         2.26032         1.33738 
        1.63369         2.21353         1.30625 
        1.64941         2.16888         1.27588 
        1.66519         2.14652         1.24637 
        1.68085         2.09365           1.218 
        1.69652         2.05812         1.19051 
        1.71228         2.02873          1.1637 
        1.72806         1.98869          1.1377 
        1.74368         1.95207         1.11274 
        1.75933         1.91941         1.08849 
        1.77505         1.87926         1.06484 
        1.79081         1.84787         1.04186 
         1.8065         1.82438         1.01964 
        1.82218         1.78264        0.998095 
        1.83797         1.74858        0.977021 
        1.85367         1.72235         0.95667 
        1.86928         1.69842         0.93702 
        1.88497         1.66255        0.917812 
        1.90073         1.64542        0.899071 
        1.91647         1.61253        0.880869 
        1.93218         1.58587        0.863207 
        1.94787         1.56805        0.846054 
        1.96363         1.54305        0.829299 
        1.97935         1.51549         0.81303 
        1.99499         1.49154        0.797288 
        2.01064         1.47137        0.781939 
         2.0264         1.44613        0.766896 
        2.04216         1.42378        0.752256 
        2.05781          1.4031        0.738089 
        2.07353         1.38724        0.724235 
        2.08928         1.36395        0.710705 
        2.10499          1.3353        0.697557 
        2.12065         1.33023        0.684779 
        2.13633         1.30611        0.672309 
        2.15211           1.279        0.660069 
        2.16785         1.26724        0.648166 
        2.18349         1.24767        0.636631 
        2.19916         1.23522        0.625351 
        2.21489         1.22159        0.614306 
        2.23063         1.19626         0.60352 
         2.2463         1.17644         0.59304 
        2.26194         1.16536        0.582835 
        2.27765          1.1379        0.572816 
        2.29341         1.12839        0.563006 
        2.30914         1.11504        0.553446 
        2.32486         1.10674        0.544111 
        2.34061         1.08723        0.534976 
        2.35635         1.07358        0.526059 
        2.37203          1.0641        0.517374 
        2.38768         1.04792        0.508903 
        2.40339         1.02939         0.50059 
        2.41914          1.0207        0.492443 
        2.43483         1.00784        0.484505 
         2.4505        0.993637        0.476755 
        2.46622        0.980935        0.469148 
        2.48195        0.971351        0.461705 
        2.49759        0.955936        0.454463 
        2.51328        0.947654        0.447356 
        2.52906        0.936163        0.440357 
        2.54479        0.922269        0.433532 
        2.56049        0.914769        0.426865 
        2.57618        0.902873        0.420343 
        2.59189        0.892017        0.413948 
        2.60758        0.882668        0.407694 
        2.62325        0.869111        0.401578 
        2.63898        0.858718        0.395564 
        2.65468         0.84651        0.389687 
        2.67044        0.841871        0.383903 
        2.68618        0.832893        0.378249 
        2.70184        0.826061        0.372731 
        2.71755        0.815162        0.367309 
        2.73329        0.802133        0.361987 
        2.74897        0.795849        0.356786 
        2.76462        0.788116        0.351699 
        2.78034        0.780379         0.34669 
        2.79607         0.76948        0.341773 
        2.81179        0.761768        0.336956 
        2.82749        0.753043        0.332237 
        2.84321         0.74466        0.327603 
        2.85893        0.737447        0.323059 
        2.87462        0.732104        0.318608 
        2.89033        0.724594        0.314236 
        2.90605        0.715585        0.309943 
        2.92176        0.710639        0.305731 
        2.93747        0.702432          0.3016 
        2.95318        0.695026        0.297544 
        2.96891         0.69039         0.29356 
        2.98456        0.681616        0.289666 
        3.00023        0.674182        0.285838 
        3.01596        0.665199        0.282066 
        3.03164        0.661879        0.278372 
        3.04738        0.656069        0.274734 
         3.0631        0.649777        0.271162 
        3.07883        0.641915        0.267653 
        3.09456        0.637066        0.264206 
        3.11026        0.632421        0.260825 
        3.12596        0.625605        0.257504 
        3.14163        0.620998        0.254247 
        3.15734          0.6129         0.25104 
        3.17308        0.609996        0.247879 
        3.18879        0.604689        0.244781 
        3.20447        0.597958        0.241741 
         3.2202        0.593774        0.238743 
         3.2359        0.588106          0.2358 
        3.25157        0.580495        0.232914 
        3.26729        0.578146        0.230067 
        3.28304        0.573436        0.227263 
        3.29877        0.567655        0.224508 
        3.31446        0.564341        0.221805 
        3.33014         0.55707        0.219148 
        3.34585        0.553947        0.216531 
        3.36158         0.55009        0.213953 
        3.37727        0.547206        0.211424 
        3.39294         0.53933        0.208938 
        3.40867        0.537835        0.206484 
        3.42439        0.532311        0.204069 
        3.44008        0.529486        0.201698 
        3.45578        0.524794        0.199363 
        3.47153        0.520371        0.197059 
        3.48724        0.516959        0.194796 
        3.50292        0.511629        0.192573 
        3.51859        0.510726        0.190386 
        3.53431        0.504333        0.188226 
        3.55007        0.501605        0.186094 
        3.56577        0.497804        0.184004 
        3.58146        0.495093        0.181946 
        3.59719         0.49115        0.179915 
        3.61292        0.486737        0.177915 
        3.62859        0.484342        0.175953 
        3.64429        0.479263        0.174017 
        3.66003          0.4759        0.172104 
        3.67578        0.473308        0.170221 
        3.69146        0.470696        0.168372 
        3.70712         0.46621        0.166554 
        3.72284        0.463324        0.164756 
        3.73853        0.459725        0.162988 
        3.75422        0.457828        0.161245 
        3.76993        0.453436        0.159526 
        3.78564        0.449953        0.157832 
        3.80137        0.447321         0.15616 
        3.81707        0.443142        0.154516 
        3.83279        0.441346        0.152894 
        3.84853        0.437878        0.151292 
        3.86424        0.434679        0.149717 
        3.87992        0.432882        0.148166 
        3.89561        0.429819        0.146637 
        3.91134         0.42634        0.145127 
        3.92704        0.423594        0.143639 
        3.94273        0.421382        0.142173 
        3.95845        0.417018        0.140726 
        3.97418        0.414556        0.139298 
        3.98988        0.412083        0.137891 
        4.00554        0.409174        0.136508 
        4.02125        0.405593         0.13514 
        4.03698         0.40266        0.133788 
        4.05268        0.398792        0.132458 
        4.06839        0.394948        0.131144 
         4.0841        0.392476        0.129849 
        4.09983        0.389673         0.12857 
        4.11555         0.38595        0.127308 
        4.13124        0.382013        0.126067 
        4.14693        0.380028        0.124841 
        4.16266         0.37629        0.123628 
        4.17839        0.372842        0.122432 
        4.19408        0.369834        0.121255 
        4.20977         0.36813        0.120092 
        4.22551        0.364238        0.118942 
        4.24123        0.362086        0.117808 
        4.25691        0.359588        0.116692 
        4.27259        0.356795         0.11559 
        4.28831        0.355313        0.114499 
        4.30404        0.352104        0.113422 
        4.31974        0.349966        0.112361 
        4.33543         0.34697        0.111314 
        4.35116        0.345037        0.110278 
        4.36688        0.342695        0.109255 
        4.38255        0.341326         0.10825 
        4.39825         0.33901        0.107254 
        4.41398        0.336812        0.106269 
         4.4297        0.335585        0.105297 
        4.44541        0.333269        0.104338 
        4.46111        0.331709        0.103391 
        4.47683        0.329753        0.102456 
        4.49251        0.327997        0.101533 
        4.50819        0.326276        0.100622 
         4.5239        0.324716       0.0997215 
        4.53962         0.32305       0.0988304 
        4.55535        0.321639       0.0979497 
        4.57106        0.320142        0.097081 
        4.58678        0.319259       0.0962226 
         4.6025        0.318058       0.0953743 
        4.61821        0.317223       0.0945363 
        4.63391        0.316689       0.0937094 
         4.6496        0.313732       0.0928928 
        4.66532         0.31348       0.0920845 
        4.68103        0.312052       0.0912862 
        4.69673        0.311551        0.090498 
        4.71241        0.310955       0.0897199 
        4.72811        0.309225       0.0889497 
        4.74384        0.309742       0.0881874 
        4.75955        0.307771       0.0874352 
        4.77525        0.306707       0.0866922 
        4.79096        0.307632       0.0859568 
        4.80669        0.305993       0.0852296 
         4.8224        0.304649       0.0845116 
        4.83809        0.305222       0.0838026 
        4.85379         0.30381       0.0831012 
         4.8695        0.304129       0.0824073 
        4.88521        0.303473       0.0817215 
        4.90093        0.303303       0.0810435 
        4.91663        0.302945       0.0803736 
        4.93234        0.301891       0.0797106 
        4.94807        0.302518       0.0790546 
        4.96377        0.303142       0.0784072 
        4.97943        0.302899       0.0777684 
        4.99514        0.301647        0.077135 
        5.01086        0.302394       0.0765082 
        5.02654        0.302937       0.0758898 
        5.04227        0.302099       0.0752765 
          5.058        0.302685       0.0746696 
        5.07371        0.302874       0.0740706 
        5.08942        0.302541        0.073478 
        5.10513        0.303694       0.0728919 
        5.12084        0.303189       0.0723118 
        5.13656        0.303649       0.0717381 
        5.15225        0.304425       0.0711715 
        5.16796        0.304853       0.0706102 
        5.18369        0.305595       0.0700543 
         5.1994        0.306052       0.0695055 
        5.21509        0.307081        0.068963 
        5.23079        0.306602       0.0684256 
        5.24649        0.307815       0.0678943 
        5.26217        0.308277        0.067369 
        5.27788        0.309503       0.0668485 
        5.29359         0.31064       0.0663334 
        5.30933        0.311606       0.0658229 
        5.32504        0.311079       0.0653187 
        5.34073        0.312238       0.0648202 
        5.35646        0.313753       0.0643259 
        5.37218        0.314098       0.0638367 
        5.38789        0.315556       0.0633533 
        5.40357        0.315858       0.0628755 
        5.41929         0.31789       0.0624015 
        5.43502        0.318998       0.0619323 
         5.4507        0.319674       0.0614691 
        5.46639        0.320853       0.0610104 
        5.48212        0.322158       0.0605554 
        5.49786        0.324523       0.0601045 
        5.51353        0.325661       0.0596603 
        5.52921         0.32555       0.0592202 
        5.54495        0.327331       0.0587832 
        5.56066        0.329919       0.0583511 
        5.57637        0.331059       0.0579234 
        5.59207        0.332814       0.0575003 
        5.60778        0.333675       0.0570812 
        5.62346        0.335776       0.0566669 
        5.63916        0.336435       0.0562563 
        5.65487        0.337462       0.0558495 
         5.6706        0.337907       0.0554463 
        5.68633         0.34256       0.0550469 
        5.70203        0.343532       0.0546522 
        5.71773        0.345424       0.0542614 
        5.73344        0.346259       0.0538742 
        5.74916        0.347935       0.0534905 
        5.76486        0.349608       0.0531109 
        5.78054         0.35198       0.0527357 
        5.79626        0.353364       0.0523629 
          5.812        0.354853       0.0519934 
         5.8277        0.356728       0.0516286 
        5.84339        0.359533       0.0512672 
        5.85911        0.360601       0.0509085 
        5.87484        0.363346       0.0505534 
        5.89053          0.3652       0.0502023 
        5.90623        0.367206       0.0498544 
        5.92195        0.368535       0.0495091 
        5.93767        0.370552       0.0491673 
        5.95336        0.373552       0.0488293 
        5.96905        0.373905       0.0484945 
        5.98476        0.375066       0.0481625 
        6.00048        0.377225       0.0478334 
        6.01617        0.378273       0.0475078 
        6.03185         0.38149       0.0471856 
        6.04756        0.383243       0.0468656 
        6.06331        0.385447       0.0465479 
        6.07903        0.387571       0.0462338 
        6.09473        0.388245       0.0459228 
        6.11044        0.391388       0.0456145 
        6.12616         0.39352        0.045309 
        6.14186        0.395704       0.0450066 
        6.15755        0.397524       0.0447069 
        6.17326        0.398851       0.0444098 
        6.18898        0.401107       0.0441152 
        6.20467        0.403084       0.0438237 
        6.22036        0.405607       0.0435349 
         6.2361        0.406502        0.043248 
         6.2518        0.408419        0.042964 
        6.26748        0.409783       0.0426833 
        6.28319        0.414825       0.0424042 
        6.29893        0.414813       0.0421274 
        6.31463        0.417009       0.0418536 
        6.33033        0.418042       0.0415822 
        6.34604        0.420742        0.041313 
        6.36177        0.421482        0.041046 
        6.37747        0.425894       0.0407818 
