# k  (h/Mpc)    Pcb(k)  (Mpc/h)^3    Pcb_linear(k) (Mpc/h)^3   ShotnoiseSubtracted = true
      0.0200456         12824.3         13020.1 
      0.0350414         9722.41         9465.19 
      0.0492313         6802.14         6877.23 
      0.0637834         5500.67         5716.98 
      0.0800726         4331.23         4537.42 
       0.096163          3407.8          3292.3 
       0.111083         2770.31         2626.02 
       0.126058          2305.9         2327.19 
       0.142273         1992.53         1971.64 
       0.158546         1636.38         1557.18 
        0.17375         1434.91         1311.93 
       0.188953         1333.01         1187.92 
       0.204907         1139.57         1051.07 
       0.220756         1022.37         889.265 
        0.23588         909.186         773.584 
         0.2514         814.525         702.793 
       0.267535         790.109         635.907 
       0.283568         691.589         560.784 
       0.299022          659.73          499.63 
       0.314451         669.431         456.628 
       0.330372         575.748         418.905 
       0.346141          533.05          380.22 
       0.361624         509.624         345.568 
       0.377134         478.356         317.977 
       0.392932         463.169         294.218 
       0.408854         440.698         271.212 
       0.424564         426.422          249.98 
       0.440253         386.522          231.76 
       0.455999         370.142         215.918 
       0.471626          372.52         201.359 
        0.48727         352.958         187.739 
       0.502856         324.931         175.504 
       0.518488         325.823         164.588 
       0.534347          303.11         154.439 
       0.550082         293.659         145.081 
       0.565732         292.055          136.52 
       0.581496         278.276          128.68 
       0.597222         270.581         121.489 
       0.612804         263.407         114.877 
       0.628434         253.531         108.713 
       0.644267         242.619         102.951 
       0.660051         238.722         97.6409 
       0.675724         235.844         92.7373 
       0.691403         229.523         88.1662 
       0.707174         221.399         83.8776 
       0.722871         218.017         79.8912 
        0.73838         216.012         76.2066 
       0.754018         205.031         72.7265 
       0.769845         204.828          69.426 
        0.78569          199.58         66.3275 
       0.801365         194.066         63.4489 
       0.817031         189.853         60.7438 
       0.832809         186.728         58.1801 
       0.848511         182.098         55.7765 
       0.864097         178.044         53.5258 
       0.879701         176.882         51.3978 
       0.895507         172.599          49.361 
       0.911279          167.56         47.4392 
        0.92691         165.214         45.6362 
       0.942635         163.169         43.9173 
       0.958396         159.948         42.2837 
       0.974128         156.812         40.7366 
       0.989692         152.364         39.2824 
        1.00528         151.369         37.8974 
        1.02113         147.896         36.5578 
        1.03692         145.967         35.2881 
        1.05264         143.957         34.0848 
        1.06832         141.724         32.9397 
        1.08405         138.897         31.8444 
        1.09979         138.064         30.7985 
        1.11537          134.89         29.8101 
        1.13105         133.382         28.8593 
        1.14679         131.232         27.9465 
        1.16256         128.988         27.0715 
        1.17828          127.56          26.237 
        1.19395         124.507         25.4407 
         1.2097         123.674         24.6734 
        1.22537         121.571         23.9417 
          1.241         120.066         23.2419 
        1.25666         117.237         22.5684 
        1.27241          114.98         21.9186 
        1.28819         114.428         21.2933 
        1.30392         112.369         20.6943 
        1.31957         110.529         20.1211 
        1.33529         109.343         19.5676 
        1.35108         108.289         19.0328 
        1.36674         106.208         18.5218 
         1.3824         105.878         18.0302 
        1.39811         103.151         17.5548 
        1.41389         102.293         17.0947 
        1.42964         100.179          16.652 
        1.44531         99.4027         16.2272 
        1.46101         97.8479         15.8163 
        1.47667         97.3349         15.4209 
        1.49229         96.2419         15.0401 
        1.50793         94.3618         14.6718 
        1.52367         93.4653         14.3135 
        1.53953         92.3058         13.9648 
        1.55526         90.9139         13.6305 
        1.57092          90.401         13.3085 
        1.58662         89.0826         12.9962 
        1.60235         87.6066         12.6934 
        1.61809         86.8693         12.4001 
        1.63369         85.3482         12.1186 
        1.64941         85.3661         11.8439 
        1.66519         83.5183         11.5768 
        1.68085         82.4726         11.3198 
        1.69652         81.1104         11.0706 
        1.71228          80.276         10.8274 
        1.72806         79.7471         10.5914 
        1.74368         78.3648         10.3648 
        1.75933         77.6983         10.1444 
        1.77505         76.9923         9.92937 
        1.79081          75.607         9.72022 
         1.8065         75.2461         9.51799 
        1.82218         73.7489         9.32171 
        1.83797         73.3957         9.12963 
        1.85367         72.0896         8.94403 
        1.86928         71.4372         8.76471 
        1.88497          70.761         8.58934 
        1.90073         69.8625         8.41813 
        1.91647         68.8382         8.25175 
        1.93218          68.155         8.09022 
        1.94787         67.2829         7.93326 
        1.96363         66.4591         7.77985 
        1.97935         65.8194         7.63082 
        1.99499         65.0852         7.48654 
        2.01064         64.3478         7.34579 
         2.0264         63.4625         7.20777 
        2.04216         62.7621         7.07338 
        2.05781         62.0435         6.94326 
        2.07353         61.3469         6.81596 
        2.08928         60.6025         6.69158 
        2.10499         59.9514         6.57063 
        2.12065         59.4219         6.45305 
        2.13633         58.8867         6.33824 
        2.15211         57.9883         6.22549 
        2.16785         57.0968          6.1158 
        2.18349         56.6149         6.00944 
        2.19916         55.9109         5.90539 
        2.21489         55.4448         5.80346 
        2.23063         54.6619         5.70388 
         2.2463         54.1906         5.60707 
        2.26194         53.8562         5.51276 
        2.27765         52.9703         5.42014 
        2.29341         52.3177         5.32941 
        2.30914         51.6879         5.24094 
        2.32486         51.0914         5.15453 
        2.34061         50.7743         5.06993 
        2.35635         49.9271          4.9873 
        2.37203         49.5297          4.9068 
        2.38768         49.0935         4.82825 
        2.40339         48.5465         4.75113 
        2.41914         48.0003         4.67552 
        2.43483         47.3042         4.60183 
         2.4505         47.0241         4.52984 
        2.46622         46.5022         4.45915 
        2.48195         45.8913         4.38997 
        2.49759         45.3604         4.32262 
        2.51328         45.0536         4.25651 
        2.52906          44.442         4.19137 
        2.54479          44.104         4.12783 
        2.56049         43.3013         4.06574 
        2.57618         43.0511         4.00498 
        2.59189         42.6221         3.94536 
        2.60758          41.971         3.88706 
        2.62325          41.782            3.83 
        2.63898         41.2849          3.7739 
        2.65468         40.9045         3.71903 
        2.67044         40.5469         3.66502 
        2.68618         40.1535         3.61221 
        2.70184         39.4754         3.56065 
        2.71755          39.271         3.50997 
        2.73329         38.6436         3.46019 
        2.74897         38.4583         3.41155 
        2.76462         37.8911         3.36395 
        2.78034         37.6086         3.31706 
        2.79607         37.1207         3.27101 
        2.81179         36.7963          3.2259 
        2.82749         36.3788         3.18168 
        2.84321         35.9572         3.13824 
        2.85893         35.5855         3.09563 
        2.87462         35.2214         3.05388 
        2.89033         34.9795         3.01287 
        2.90605         34.5422         2.97257 
        2.92176         34.3467         2.93303 
        2.93747         34.0133         2.89423 
        2.95318         33.5883         2.85612 
        2.96891         33.2137         2.81868 
        2.98456          32.973         2.78208 
        3.00023         32.5729         2.74608 
        3.01596         32.2815          2.7106 
        3.03164         31.9185         2.67585 
        3.04738         31.6826         2.64161 
         3.0631         31.4314         2.60797 
        3.07883         30.9822         2.57492 
        3.09456         30.5842         2.54245 
        3.11026         30.3306         2.51059 
        3.12596         30.0598         2.47928 
        3.14163         29.7647         2.44858 
        3.15734         29.4632         2.41832 
        3.17308         29.1501          2.3885 
        3.18879         28.8721         2.35927 
        3.20447         28.6277         2.33057 
         3.2202         28.3013         2.30225 
         3.2359         28.0119         2.27446 
        3.25157         27.8386         2.24719 
        3.26729         27.5284         2.22029 
        3.28304         27.1551         2.19378 
        3.29877         26.8681         2.16773 
        3.31446         26.6461         2.14216 
        3.33014         26.4581         2.11703 
        3.34585         26.1671         2.09226 
        3.36158          25.969         2.06785 
        3.37727         25.6545          2.0439 
        3.39294         25.4141         2.02036 
        3.40867         25.1742          1.9971 
        3.42439         24.9854         1.97423 
        3.44008         24.7114         1.95175 
        3.45578         24.5989         1.92961 
        3.47153         24.2367         1.90776 
        3.48724         24.0162         1.88629 
        3.50292         23.8041          1.8652 
        3.51859         23.5661         1.84444 
        3.53431         23.3598         1.82394 
        3.55007         23.1221         1.80369 
        3.56577         22.9347         1.78384 
        3.58146         22.7455         1.76428 
        3.59719          22.495         1.74498 
        3.61292         22.2958         1.72598 
        3.62859         22.0864         1.70732 
        3.64429         21.8314         1.68891 
        3.66003         21.7349         1.67071 
        3.67578         21.5171         1.65279 
        3.69146         21.2762          1.6352 
        3.70712         21.1399         1.61789 
        3.72284         20.9243         1.60077 
        3.73853         20.7556         1.58393 
        3.75422         20.4745         1.56733 
        3.76993         20.3439         1.55095 
        3.78564         20.1591         1.53481 
        3.80137         19.9896         1.51887 
        3.81707          19.833         1.50319 
        3.83279         19.6312         1.48772 
        3.84853         19.4372         1.47245 
        3.86424         19.2626         1.45741 
        3.87992         19.0797         1.44261 
        3.89561         18.9675         1.42802 
        3.91134         18.7012         1.41359 
        3.92704         18.6007         1.39939 
        3.94273         18.4017         1.38539 
        3.95845         18.2651         1.37156 
        3.97418          18.065         1.35791 
        3.98988         17.9265         1.34447 
        4.00554         17.8432         1.33124 
        4.02125          17.584         1.31816 
        4.03698          17.419         1.30523 
        4.05268         17.3184          1.2925 
        4.06839         17.1917         1.27994 
         4.0841         16.9937         1.26754 
        4.09983         16.8424         1.25529 
        4.11555         16.6859         1.24321 
        4.13124         16.5983         1.23132 
        4.14693         16.4564         1.21958 
        4.16266         16.3389         1.20796 
        4.17839          16.165          1.1965 
        4.19408         16.0068         1.18522 
        4.20977         15.8948         1.17407 
        4.22551         15.7487         1.16304 
        4.24123         15.6108         1.15217 
        4.25691         15.4213         1.14146 
        4.27259          15.365         1.13089 
        4.28831         15.2745         1.12043 
        4.30404         15.0857         1.11009 
        4.31974         15.0012          1.0999 
        4.33543         14.8559         1.08985 
        4.35116         14.6996          1.0799 
        4.36688         14.6073         1.07007 
        4.38255         14.4871         1.06041 
        4.39825         14.3111         1.05084 
        4.41398         14.2551         1.04137 
         4.4297         14.1026         1.03203 
        4.44541          13.981         1.02281 
        4.46111         13.8938         1.01371 
        4.47683          13.756          1.0047 
        4.49251         13.6475        0.995832 
        4.50819         13.5408        0.987068 
         4.5239         13.4249        0.978397 
        4.53962         13.3436         0.96982 
        4.55535         13.2134        0.961341 
        4.57106         13.1093        0.952976 
        4.58678         13.0087        0.944708 
         4.6025         12.9129        0.936537 
        4.61821         12.7954        0.928463 
        4.63391         12.6958        0.920495 
         4.6496         12.5807        0.912624 
        4.66532         12.4813        0.904832 
        4.68103         12.3762        0.897135 
        4.69673         12.2663        0.889535 
        4.71241         12.2017         0.88203 
        4.72811         12.1144        0.874599 
        4.74384         12.0014        0.867245 
        4.75955         11.9116        0.859986 
        4.77525         11.8079        0.852814 
        4.79096         11.7358        0.845715 
        4.80669          11.659        0.838694 
         4.8224         11.5641         0.83176 
        4.83809         11.4757        0.824912 
        4.85379         11.3638        0.818137 
         4.8695          11.265        0.811432 
        4.88521         11.2102        0.804805 
        4.90093         11.1419        0.798251 
        4.91663         11.0369        0.791776 
        4.93234         10.9326        0.785366 
        4.94807         10.8599        0.779023 
        4.96377         10.7728        0.772761 
        4.97943         10.7055        0.766582 
        4.99514         10.5694        0.760454 
        5.01086         10.5277        0.754388 
        5.02654          10.452        0.748404 
        5.04227         10.3354        0.742467 
          5.058         10.2923        0.736592 
        5.07371         10.2099        0.730791 
        5.08942         10.1598        0.725053 
        5.10513         10.0524        0.719375 
        5.12084         9.99859        0.713755 
        5.13656         9.91271        0.708197 
        5.15225         9.82439        0.702707 
        5.16796         9.76218        0.697266 
        5.18369         9.69925        0.691878 
         5.1994         9.60589        0.686557 
        5.21509         9.52902        0.681296 
        5.23079         9.45421        0.676084 
        5.24649         9.39691        0.670931 
        5.26217         9.31543        0.665835 
        5.27788         9.27544        0.660785 
        5.29359         9.17752        0.655786 
        5.30933         9.14196        0.650832 
        5.32504         9.06724        0.645937 
        5.34073          9.0088        0.641098 
        5.35646         8.91715        0.636298 
        5.37218         8.86905        0.631547 
        5.38789         8.79972        0.626852 
        5.40357         8.71771         0.62221 
        5.41929         8.68902        0.617604 
        5.43502         8.61802        0.613045 
         5.4507          8.5403        0.608543 
        5.46639          8.4918        0.604085 
        5.48212         8.42618        0.599661 
        5.49786           8.366        0.595277 
        5.51353         8.31746        0.590958 
        5.52921         8.26293        0.586677 
        5.54495         8.20269        0.582426 
        5.56066         8.12501        0.578222 
        5.57637         8.08493         0.57406 
        5.59207         8.02273        0.569943 
        5.60778         7.96706        0.565864 
        5.62346         7.90572        0.561831 
        5.63916         7.86134        0.557833 
        5.65487         7.80677        0.553872 
         5.6706          7.7515        0.549945 
        5.68633         7.68941        0.546055 
        5.70203         7.62526         0.54221 
        5.71773          7.5879        0.538403 
        5.73344         7.53754         0.53463 
        5.74916         7.48921         0.53089 
        5.76486         7.43706        0.527191 
        5.78054         7.38331        0.523533 
        5.79626         7.31968        0.519899 
          5.812         7.29849        0.516296 
         5.8277         7.23005        0.512738 
        5.84339          7.1796        0.509213 
        5.85911         7.11777        0.505714 
        5.87484         7.08416        0.502249 
        5.89053         7.03874        0.498824 
        5.90623         6.98542        0.495428 
        5.92195         6.94546        0.492059 
        5.93767         6.89061        0.488722 
        5.95336         6.84814        0.485422 
        5.96905         6.80279        0.482154 
        5.98476         6.75113        0.478911 
        6.00048          6.7106        0.475697 
        6.01617         6.66202        0.472516 
        6.03185         6.62222        0.469369 
        6.04756         6.57857        0.466243 
        6.06331         6.53605        0.463138 
        6.07903         6.49031        0.460068 
        6.09473         6.45072        0.457029 
        6.11044         6.42188        0.454015 
        6.12616         6.35823        0.451028 
        6.14186         6.32523        0.448071 
        6.15755         6.28132         0.44514 
        6.17326         6.24755        0.442234 
        6.18898         6.19954        0.439352 
        6.20467         6.15545        0.436501 
        6.22036         6.12163        0.433676 
         6.2361         6.07609        0.430867 
         6.2518         6.03354        0.428089 
        6.26748         6.00502        0.425341 
        6.28319         5.96071        0.422609 
        6.29893          5.9315        0.419899 
        6.31463         5.88421        0.417217 
        6.33033         5.85554         0.41456 
        6.34604         5.80788        0.411924 
        6.36177         5.77418        0.409308 
        6.37747          5.7413         0.40672 
