# k  (h/Mpc)    Pcb(k)  (Mpc/h)^3    Pcb_linear(k) (Mpc/h)^3   ShotnoiseSubtracted = true
      0.0200456         5563.25         5655.38 
      0.0350414         4034.59         4111.27 
      0.0492313         2981.62         2987.17 
      0.0637834          2524.4         2483.21 
      0.0800726         2000.44         1970.86 
       0.096163         1411.84         1430.03 
       0.111083         1119.97         1140.63 
       0.126058         1023.82         1010.83 
       0.142273         880.569         856.395 
       0.158546          715.58         676.373 
        0.17375          580.94         569.844 
       0.188953         549.428          515.98 
       0.204907         512.211         456.537 
       0.220756         429.104         386.258 
        0.23588         375.108         336.011 
         0.2514         331.545         305.263 
       0.267535         313.152          276.21 
       0.283568         282.798          243.58 
       0.299022         259.712         217.018 
       0.314451         236.754         198.339 
       0.330372          219.68         181.954 
       0.346141         197.911         165.151 
       0.361624         187.355           150.1 
       0.377134         176.117         138.115 
       0.392932         159.966         127.795 
       0.408854         153.601         117.803 
       0.424564         147.039          108.58 
       0.440253         137.484         100.667 
       0.455999           129.4         93.7853 
       0.471626         119.707         87.4614 
        0.48727         116.011         81.5458 
       0.502856         110.554         76.2315 
       0.518488         106.922         71.4897 
       0.534347         102.431         67.0815 
       0.550082         94.5205          63.017 
       0.565732         90.3896         59.2985 
       0.581496         87.1381         55.8928 
       0.597222         84.2825         52.7694 
       0.612804         79.8327         49.8974 
       0.628434         77.9923         47.2204 
       0.644267         75.4935         44.7177 
       0.660051         73.0927          42.411 
       0.675724         70.0994         40.2811 
       0.691403         68.0058         38.2956 
       0.707174         65.7991         36.4328 
       0.722871         63.8915         34.7013 
        0.73838         62.3549         33.1008 
       0.754018         59.3119         31.5893 
       0.769845         58.0509         30.1556 
        0.78569         56.5074         28.8098 
       0.801365         54.5344         27.5595 
       0.817031         53.1208         26.3845 
       0.832809         52.3339         25.2709 
       0.848511         49.7077         24.2269 
       0.864097         48.6493         23.2493 
       0.879701         47.8901          22.325 
       0.895507         47.1485         21.4403 
       0.911279         45.8492         20.6055 
        0.92691         44.7029         19.8224 
       0.942635         43.1294         19.0758 
       0.958396         42.8772         18.3662 
       0.974128         41.6637         17.6942 
       0.989692         41.0039         17.0626 
        1.00528         40.1118          16.461 
        1.02113         38.8565         15.8791 
        1.03692         38.0896         15.3276 
        1.05264         37.6107          14.805 
        1.06832         36.6498         14.3076 
        1.08405         36.0998         13.8318 
        1.09979         35.4222         13.3775 
        1.11537         34.3104         12.9482 
        1.13105         34.3161         12.5352 
        1.14679         33.7707         12.1387 
        1.16256          32.798         11.7587 
        1.17828         32.2666         11.3962 
        1.19395         31.6491         11.0503 
         1.2097         31.3756         10.7171 
        1.22537         30.8871         10.3992 
          1.241         30.2024         10.0953 
        1.25666         29.4654         9.80274 
        1.27241         29.2206         9.52047 
        1.28819         28.4268         9.24888 
        1.30392         28.1825         8.98871 
        1.31957          27.976         8.73974 
        1.33529         27.6811         8.49931 
        1.35108         27.0527         8.26701 
        1.36674         26.5847         8.04508 
         1.3824         26.0556         7.83152 
        1.39811         25.8887         7.62502 
        1.41389         25.5699         7.42521 
        1.42964         25.0966         7.23291 
        1.44531         24.9593         7.04838 
        1.46101         24.3212         6.86991 
        1.47667         24.1021         6.69817 
        1.49229         23.8849         6.53278 
        1.50793         23.5402          6.3728 
        1.52367         23.2901         6.21716 
        1.53953         23.0382         6.06569 
        1.55526          22.593         5.92049 
        1.57092         22.3079         5.78065 
        1.58662         22.0504           5.645 
        1.60235         21.7972         5.51346 
        1.61809         21.5395         5.38605 
        1.63369         21.2912         5.26381 
        1.64941         20.8802          5.1445 
        1.66519         20.8051         5.02846 
        1.68085         20.4666         4.91684 
        1.69652         20.2317         4.80857 
        1.71228         20.0543         4.70296 
        1.72806         19.7991         4.60045 
        1.74368         19.5331         4.50202 
        1.75933         19.3334         4.40628 
        1.77505         19.1357         4.31289 
        1.79081         18.8675         4.22204 
         1.8065         18.7817          4.1342 
        1.82218         18.4664         4.04895 
        1.83797         18.2088         3.96551 
        1.85367         18.0514          3.8849 
        1.86928         17.9121         3.80701 
        1.88497         17.6302         3.73084 
        1.90073         17.6332         3.65647 
        1.91647         17.3367          3.5842 
        1.93218         17.1771         3.51404 
        1.94787         17.0526         3.44586 
        1.96363         16.8967         3.37923 
        1.97935          16.706          3.3145 
        1.99499         16.4757         3.25183 
        2.01064         16.3412         3.19069 
         2.0264          16.131         3.13074 
        2.04216         15.9905         3.07237 
        2.05781         15.7655         3.01585 
        2.07353         15.6375         2.96056 
        2.08928         15.5231         2.90653 
        2.10499         15.3332           2.854 
        2.12065         15.1095         2.80292 
        2.13633         15.1039         2.75306 
        2.15211         14.8563         2.70408 
        2.16785         14.8362         2.65644 
        2.18349         14.6897         2.61024 
        2.19916         14.4885         2.56505 
        2.21489         14.3833         2.52077 
        2.23063         14.2197         2.47752 
         2.2463         14.0764         2.43547 
        2.26194         13.9748         2.39451 
        2.27765         13.8732         2.35427 
        2.29341         13.7099         2.31486 
        2.30914         13.5322         2.27644 
        2.32486         13.5106          2.2389 
        2.34061          13.349         2.20216 
        2.35635         13.2001         2.16627 
        2.37203          13.145          2.1313 
        2.38768         12.9799         2.09718 
        2.40339         12.8078         2.06369 
        2.41914         12.7218         2.03085 
        2.43483         12.6635         1.99883 
         2.4505         12.5264         1.96757 
        2.46622         12.4217         1.93686 
        2.48195          12.329         1.90681 
        2.49759          12.221         1.87756 
        2.51328         12.0787         1.84885 
        2.52906         11.9807         1.82055 
        2.54479         11.8815         1.79295 
        2.56049         11.8313         1.76598 
        2.57618         11.7377         1.73959 
        2.59189         11.5625          1.7137 
        2.60758         11.5333         1.68837 
        2.62325         11.4669         1.66359 
        2.63898         11.2752         1.63922 
        2.65468         11.2095         1.61539 
        2.67044         11.1118         1.59193 
        2.68618         11.0016         1.56899 
        2.70184         10.9285         1.54659 
        2.71755         10.8231         1.52458 
        2.73329         10.7101         1.50296 
        2.74897         10.6463         1.48183 
        2.76462         10.6285         1.46115 
        2.78034         10.4307         1.44079 
        2.79607         10.3861         1.42079 
        2.81179         10.2861         1.40119 
        2.82749         10.2563         1.38198 
        2.84321         10.1258         1.36312 
        2.85893         10.0623         1.34461 
        2.87462         10.0003         1.32648 
        2.89033         9.86284         1.30866 
        2.90605          9.7991         1.29116 
        2.92176         9.74961         1.27398 
        2.93747          9.6528         1.25713 
        2.95318         9.60443         1.24058 
        2.96891         9.51347         1.22431 
        2.98456         9.42347         1.20842 
        3.00023          9.3678         1.19278 
        3.01596         9.29321         1.17737 
        3.03164         9.24928         1.16227 
        3.04738          9.1612          1.1474 
         3.0631         9.05402         1.13279 
        3.07883         9.00953         1.11844 
        3.09456         8.95796         1.10433 
        3.11026         8.84543         1.09049 
        3.12596         8.82509         1.07689 
        3.14163         8.72552         1.06356 
        3.15734         8.66586         1.05041 
        3.17308         8.61802         1.03746 
        3.18879         8.53266         1.02476 
        3.20447         8.46218          1.0123 
         3.2202          8.3961               1 
         3.2359         8.35707        0.987928 
        3.25157         8.29052        0.976084 
        3.26729         8.23418        0.964398 
        3.28304         8.14135        0.952881 
        3.29877         8.08085        0.941567 
        3.31446         8.04899        0.930461 
        3.33014         7.95284        0.919544 
        3.34585         7.93578        0.908786 
        3.36158         7.86499        0.898184 
        3.37727         7.81315        0.887783 
        3.39294         7.76753        0.877558 
        3.40867         7.65174        0.867456 
        3.42439         7.63624        0.857519 
        3.44008         7.56696        0.847757 
        3.45578         7.51847        0.838139 
        3.47153         7.47894         0.82865 
        3.48724         7.41173        0.819324 
        3.50292         7.37512        0.810163 
        3.51859           7.305        0.801147 
        3.53431          7.2471         0.79224 
        3.55007          7.2182        0.783446 
        3.56577         7.16469        0.774821 
        3.58146         7.10515        0.766329 
        3.59719         7.04343        0.757945 
        3.61292         7.00889        0.749689 
        3.62859         6.94827        0.741587 
        3.64429         6.90042        0.733589 
        3.66003         6.83033        0.725685 
        3.67578         6.80968          0.7179 
        3.69146         6.74815        0.710259 
        3.70712         6.73418        0.702742 
        3.72284         6.63553        0.695307 
        3.73853         6.61843        0.687992 
        3.75422            6.56        0.680779 
        3.76993          6.5348        0.673664 
        3.78564         6.47219        0.666653 
        3.80137         6.43918        0.659731 
        3.81707         6.37597        0.652921 
        3.83279         6.37193        0.646202 
        3.84853         6.29341        0.639566 
        3.86424         6.23681        0.633037 
        3.87992         6.20924        0.626609 
        3.89561         6.16226        0.620269 
        3.91134         6.11706        0.614004 
        3.92704         6.07981        0.607833 
        3.94273         6.03246        0.601753 
        3.95845         5.99742        0.595744 
        3.97418         5.97152        0.589817 
        3.98988         5.91197        0.583978 
        4.00554         5.87486        0.578234 
        4.02125         5.82313        0.572551 
        4.03698         5.79495        0.566935 
        4.05268         5.76138        0.561407 
        4.06839         5.72465        0.555949 
         4.0841         5.68019        0.550566 
        4.09983         5.63739        0.545245 
        4.11555         5.59454        0.539998 
        4.13124         5.56004        0.534833 
        4.14693         5.49956        0.529732 
        4.16266         5.45937        0.524686 
        4.17839         5.43058        0.519708 
        4.19408         5.38617        0.514806 
        4.20977          5.3545        0.509966 
        4.22551         5.30866        0.505175 
        4.24123         5.27722        0.500452 
        4.25691         5.25087        0.495801 
        4.27259         5.21241        0.491208 
        4.28831         5.17445        0.486664 
        4.30404         5.13241        0.482173 
        4.31974         5.10817        0.477749 
        4.33543         5.06521        0.473383 
        4.35116         5.03308         0.46906 
        4.36688         4.98222        0.464793 
        4.38255         4.94859        0.460595 
        4.39825         4.93674         0.45644 
        4.41398         4.89517        0.452328 
         4.4297         4.86922        0.448271 
        4.44541         4.82743        0.444264 
        4.46111         4.80923         0.44031 
        4.47683         4.74932          0.4364 
        4.49251         4.73494        0.432546 
        4.50819         4.69836         0.42874 
         4.5239         4.66967        0.424973 
        4.53962         4.65002        0.421248 
        4.55535         4.61295        0.417565 
        4.57106         4.58791        0.413931 
        4.58678         4.55367         0.41034 
         4.6025         4.52508        0.406791 
        4.61821         4.49124        0.403284 
        4.63391         4.46976        0.399823 
         4.6496         4.43474        0.396404 
        4.66532         4.41335         0.39302 
        4.68103         4.36959        0.389677 
        4.69673         4.34999        0.386375 
        4.71241         4.31619        0.383116 
        4.72811         4.30039        0.379888 
        4.74384         4.27867        0.376694 
        4.75955         4.23761        0.373541 
        4.77525         4.20436        0.370426 
        4.79096         4.18173        0.367342 
        4.80669         4.14776        0.364292 
         4.8224         4.13349        0.361281 
        4.83809         4.10447        0.358306 
        4.85379         4.07572        0.355363 
         4.8695         4.04964        0.352451 
        4.88521         4.02638        0.349573 
        4.90093         4.01202        0.346726 
        4.91663         3.97491        0.343913 
        4.93234         3.95343        0.341129 
        4.94807         3.93449        0.338374 
        4.96377         3.89194        0.335654 
        4.97943         3.87435         0.33297 
        4.99514         3.85098        0.330308 
        5.01086         3.83046        0.327673 
        5.02654         3.80381        0.325074 
        5.04227         3.77965        0.322495 
          5.058          3.7593        0.319944 
        5.07371         3.73419        0.317424 
        5.08942         3.71431        0.314932 
        5.10513         3.69062        0.312465 
        5.12084         3.66772        0.310024 
        5.13656         3.65179         0.30761 
        5.15225         3.63035        0.305225 
        5.16796         3.60119        0.302862 
        5.18369          3.5786        0.300522 
         5.1994         3.55548        0.298211 
        5.21509         3.54014        0.295926 
        5.23079         3.51308        0.293662 
        5.24649         3.49409        0.291423 
        5.26217          3.4753         0.28921 
        5.27788         3.44621        0.287016 
        5.29359         3.42375        0.284845 
        5.30933         3.41342        0.282693 
        5.32504         3.39188        0.280567 
        5.34073         3.36583        0.278465 
        5.35646         3.35486         0.27638 
        5.37218         3.32936        0.274317 
        5.38789         3.31238        0.272277 
        5.40357         3.29379        0.270261 
        5.41929         3.26729        0.268261 
        5.43502         3.25363         0.26628 
         5.4507         3.23642        0.264325 
        5.46639         3.20974        0.262388 
        5.48212         3.19733        0.260467 
        5.49786         3.17715        0.258562 
        5.51353         3.15691        0.256686 
        5.52921         3.13931        0.254827 
        5.54495         3.12061        0.252981 
        5.56066         3.10181        0.251155 
        5.57637         3.09094        0.249347 
        5.59207         3.07268        0.247558 
        5.60778         3.05495        0.245787 
        5.62346         3.03253        0.244035 
        5.63916           3.015        0.242299 
        5.65487         3.00009        0.240578 
         5.6706         2.97963        0.238872 
        5.68633         2.96209        0.237183 
        5.70203          2.9526        0.235513 
        5.71773            2.93        0.233859 
        5.73344         2.91147         0.23222 
        5.74916          2.8959        0.230596 
        5.76486         2.88371        0.228989 
        5.78054          2.8597          0.2274 
        5.79626          2.8506        0.225822 
          5.812         2.83735        0.224257 
         5.8277         2.82162        0.222711 
        5.84339          2.8023         0.22118 
        5.85911         2.78973         0.21966 
        5.87484         2.77806        0.218155 
        5.89053         2.75366        0.216667 
        5.90623         2.74064        0.215193 
        5.92195         2.72862        0.213729 
        5.93767         2.71222         0.21228 
        5.95336         2.69675        0.210846 
        5.96905         2.68255        0.209427 
        5.98476         2.67105        0.208018 
        6.00048         2.65809        0.206622 
        6.01617         2.63701        0.205241 
        6.03185          2.6255        0.203874 
        6.04756         2.60901        0.202516 
        6.06331         2.59395        0.201167 
        6.07903         2.57927        0.199834 
        6.09473         2.57236        0.198514 
        6.11044         2.55157        0.197204 
        6.12616         2.54106        0.195907 
        6.14186         2.52477        0.194623 
        6.15755         2.51249         0.19335 
        6.17326         2.50091        0.192087 
        6.18898         2.48708        0.190836 
        6.20467         2.47604        0.189597 
        6.22036         2.46088         0.18837 
         6.2361         2.44762         0.18715 
         6.2518         2.43813        0.185943 
        6.26748          2.4231         0.18475 
        6.28319         2.40827        0.183563 
        6.29893         2.40215        0.182386 
        6.31463         2.38597        0.181221 
        6.33033         2.37158        0.180067 
        6.34604         2.35992        0.178922 
        6.36177         2.35082        0.177786 
        6.37747         2.33839        0.176661 
