# k  (h/Mpc)    Pcb(k)  (Mpc/h)^3    Pcb_linear(k) (Mpc/h)^3   ShotnoiseSubtracted = true
      0.0200456         4296.66         4365.12 
      0.0350414         3123.79         3173.29 
      0.0492313         2304.89         2305.65 
      0.0637834          1945.8         1916.67 
      0.0800726         1542.29         1521.21 
       0.096163         1092.18         1103.77 
       0.111083          866.25         880.397 
       0.126058         789.152         780.211 
       0.142273         677.482          661.01 
       0.158546         546.877          522.06 
        0.17375         445.874         439.835 
       0.188953         418.835         398.261 
       0.204907         388.975         352.379 
       0.220756         324.996         298.134 
        0.23588         283.705         259.351 
         0.2514         251.691         235.618 
       0.267535         235.645         213.194 
       0.283568         212.201         188.008 
       0.299022         194.043         167.505 
       0.314451         175.499         153.089 
       0.330372         163.083         140.442 
       0.346141         147.202         127.472 
       0.361624         138.338         115.855 
       0.377134         130.196         106.605 
       0.392932         116.975         98.6392 
       0.408854         112.491         90.9263 
       0.424564         107.269         83.8081 
       0.440253         99.5544         77.6998 
       0.455999         93.7247         72.3884 
       0.471626         86.9872         67.5073 
        0.48727         83.9319         62.9413 
       0.502856         79.5065         58.8394 
       0.518488         76.4205         55.1795 
       0.534347         73.3893          51.777 
       0.550082         67.4486         48.6398 
       0.565732         63.8968         45.7697 
       0.581496         61.9422          43.141 
       0.597222         59.9194         40.7302 
       0.612804         56.3839         38.5134 
       0.628434         54.8192         36.4472 
       0.644267         53.2536         34.5154 
       0.660051         51.0992          32.735 
       0.675724         48.6948          31.091 
       0.691403         47.2188         29.5585 
       0.707174         45.8036         28.1207 
       0.722871         44.1278         26.7843 
        0.73838         42.8465          25.549 
       0.754018         40.8796         24.3822 
       0.769845         39.8877         23.2757 
        0.78569         38.7198         22.2369 
       0.801365         37.3268         21.2718 
       0.817031         36.4772         20.3649 
       0.832809          35.791         19.5054 
       0.848511         33.7572         18.6996 
       0.864097         33.1623          17.945 
       0.879701         32.5009         17.2316 
       0.895507          31.897         16.5487 
       0.911279          30.861         15.9044 
        0.92691         30.1297         15.2999 
       0.942635          29.015         14.7237 
       0.958396         28.6553          14.176 
       0.974128         27.7821         13.6573 
       0.989692         27.4608         13.1698 
        1.00528         26.8238         12.7055 
        1.02113         25.8272         12.2563 
        1.03692         25.3253         11.8307 
        1.05264         24.9033         11.4272 
        1.06832         24.2921         11.0433 
        1.08405         23.7597         10.6761 
        1.09979         23.2821         10.3255 
        1.11537          22.764          9.9941 
        1.13105         22.5026         9.67534 
        1.14679         22.1868         9.36931 
        1.16256         21.4002         9.07598 
        1.17828         21.2938         8.79621 
        1.19395          20.665         8.52922 
         1.2097         20.5101           8.272 
        1.22537         20.0259         8.02666 
          1.241         19.6799         7.79205 
        1.25666         19.1767         7.56626 
        1.27241         18.8678          7.3484 
        1.28819         18.4721         7.13877 
        1.30392         18.3287         6.93796 
        1.31957         18.1166         6.74578 
        1.33529         17.8284         6.56021 
        1.35108         17.4092         6.38091 
        1.36674         17.1865         6.20961 
         1.3824         16.8194         6.04477 
        1.39811         16.5869         5.88539 
        1.41389         16.4253         5.73116 
        1.42964         16.1696         5.58274 
        1.44531         16.0356         5.44031 
        1.46101         15.5779         5.30256 
        1.47667         15.4096            5.17 
        1.49229         15.2305         5.04234 
        1.50793         15.0199         4.91886 
        1.52367         14.8083         4.79873 
        1.53953         14.6213         4.68182 
        1.55526         14.3822         4.56974 
        1.57092         14.1619         4.46181 
        1.58662          14.035         4.35711 
        1.60235         13.8153         4.25558 
        1.61809         13.6568         4.15724 
        1.63369         13.4721         4.06288 
        1.64941         13.2314         3.97079 
        1.66519         13.1614         3.88123 
        1.68085         12.9541         3.79507 
        1.69652         12.7846         3.71151 
        1.71228         12.6206         3.62999 
        1.72806         12.5424         3.55086 
        1.74368         12.3293         3.47489 
        1.75933         12.1995           3.401 
        1.77505          12.051         3.32891 
        1.79081         11.8627         3.25879 
         1.8065         11.7949         3.19099 
        1.82218         11.5754         3.12519 
        1.83797         11.4799         3.06079 
        1.85367         11.3286         2.99857 
        1.86928         11.3076         2.93845 
        1.88497         11.0629         2.87965 
        1.90073         11.0429         2.82225 
        1.91647         10.9125         2.76647 
        1.93218         10.8134         2.71232 
        1.94787         10.6564          2.6597 
        1.96363         10.5843         2.60827 
        1.97935         10.4166          2.5583 
        1.99499         10.2817         2.50993 
        2.01064         10.1934         2.46274 
         2.0264          10.108         2.41647 
        2.04216         9.98835         2.37141 
        2.05781         9.84547         2.32779 
        2.07353         9.79673         2.28511 
        2.08928         9.68973         2.24341 
        2.10499         9.63579         2.20287 
        2.12065          9.4794         2.16344 
        2.13633         9.46291         2.12495 
        2.15211         9.30927         2.08715 
        2.16785         9.26247         2.05038 
        2.18349         9.19188         2.01472 
        2.19916         9.07723         1.97984 
        2.21489         8.98144         1.94566 
        2.23063         8.89727         1.91228 
         2.2463          8.7904         1.87982 
        2.26194         8.71021          1.8482 
        2.27765          8.6783         1.81715 
        2.29341         8.57841         1.78673 
        2.30914         8.45327         1.75707 
        2.32486         8.39316          1.7281 
        2.34061          8.3301         1.69974 
        2.35635         8.28497         1.67204 
        2.37203         8.20062         1.64505 
        2.38768         8.07328         1.61871 
        2.40339         8.04148         1.59286 
        2.41914         7.92933         1.56751 
        2.43483         7.91565          1.5428 
         2.4505         7.84372         1.51867 
        2.46622           7.763         1.49497 
        2.48195         7.69021         1.47178 
        2.49759         7.64474          1.4492 
        2.51328         7.55772         1.42704 
        2.52906         7.52262          1.4052 
        2.54479         7.44097         1.38389 
        2.56049         7.39747         1.36308 
        2.57618         7.34272          1.3427 
        2.59189         7.23709         1.32272 
        2.60758         7.22593         1.30317 
        2.62325         7.14771         1.28404 
        2.63898         7.05116         1.26523 
        2.65468         6.98976         1.24684 
        2.67044         6.95981         1.22873 
        2.68618         6.90735         1.21103 
        2.70184         6.84975         1.19374 
        2.71755         6.77987         1.17675 
        2.73329         6.73793         1.16006 
        2.74897         6.69776         1.14375 
        2.76462         6.65847         1.12779 
        2.78034         6.57445         1.11207 
        2.79607         6.53075         1.09664 
        2.81179         6.49793         1.08151 
        2.82749         6.43137         1.06669 
        2.84321         6.43142         1.05213 
        2.85893         6.35984         1.03784 
        2.87462         6.28084         1.02384 
        2.89033         6.23743         1.01009 
        2.90605         6.18975        0.996581 
        2.92176         6.13504        0.983325 
        2.93747          6.0943        0.970317 
        2.95318         6.07478        0.957541 
        2.96891         6.00485         0.94499 
        2.98456         5.96135        0.932719 
        3.00023         5.90227        0.920648 
        3.01596         5.87313        0.908753 
        3.03164         5.84546        0.897103 
        3.04738         5.80916        0.885622 
         3.0631         5.74535        0.874347 
        3.07883          5.7004        0.863267 
        3.09456         5.66191        0.852381 
        3.11026         5.63932        0.841699 
        3.12596          5.5949        0.831202 
        3.14163         5.53495        0.820908 
        3.15734         5.50023        0.810764 
        3.17308         5.46931        0.800768 
        3.18879         5.41681        0.790967 
        3.20447          5.4043        0.781344 
         3.2202         5.33365        0.771852 
         3.2359         5.32308        0.762534 
        3.25157         5.26672        0.753392 
        3.26729         5.25686        0.744373 
        3.28304         5.20238        0.735483 
        3.29877         5.15654         0.72675 
        3.31446         5.12294        0.718178 
        3.33014         5.09948        0.709752 
        3.34585         5.06413        0.701448 
        3.36158         5.03079        0.693265 
        3.37727         4.99784        0.685237 
        3.39294         4.97876        0.677345 
        3.40867         4.91945        0.669548 
        3.42439         4.90261        0.661878 
        3.44008         4.85889        0.654343 
        3.45578         4.82143        0.646919 
        3.47153         4.79479        0.639595 
        3.48724         4.76855        0.632397 
        3.50292         4.73545        0.625326 
        3.51859         4.70119        0.618367 
        3.53431         4.65411        0.611492 
        3.55007         4.64434        0.604705 
        3.56577         4.61901        0.598047 
        3.58146         4.59072        0.591493 
        3.59719         4.55563        0.585021 
        3.61292          4.5313        0.578649 
        3.62859         4.48587        0.572395 
        3.64429         4.46051        0.566222 
        3.66003         4.43855        0.560122 
        3.67578         4.40795        0.554113 
        3.69146         4.35915        0.548215 
        3.70712         4.35095        0.542413 
        3.72284         4.32299        0.536674 
        3.73853         4.29823        0.531028 
        3.75422         4.26509        0.525461 
        3.76993          4.2372        0.519969 
        3.78564         4.21026        0.514558 
        3.80137         4.19267        0.509215 
        3.81707         4.15973        0.503959 
        3.83279         4.13049        0.498772 
        3.84853         4.09195        0.493651 
        3.86424         4.07296        0.488611 
        3.87992         4.04978        0.483649 
        3.89561         4.03812        0.478756 
        3.91134         3.99432         0.47392 
        3.92704         3.96871        0.469157 
        3.94273         3.95056        0.464464 
        3.95845         3.92902        0.459826 
        3.97418         3.90172        0.455251 
        3.98988         3.88372        0.450744 
        4.00554         3.85305        0.446311 
        4.02125         3.81892        0.441924 
        4.03698         3.79391         0.43759 
        4.05268         3.76424        0.433323 
        4.06839         3.75736        0.429111 
         4.0841         3.71943        0.424955 
        4.09983         3.69626        0.420849 
        4.11555         3.66958        0.416798 
        4.13124         3.64905        0.412812 
        4.14693         3.62353        0.408875 
        4.16266         3.60781         0.40498 
        4.17839         3.58292        0.401138 
        4.19408         3.54901        0.397354 
        4.20977         3.53502        0.393618 
        4.22551         3.50396        0.389921 
        4.24123         3.48755        0.386275 
        4.25691          3.4648        0.382685 
        4.27259         3.45575         0.37914 
        4.28831         3.42074        0.375633 
        4.30404         3.40055        0.372166 
        4.31974         3.38219        0.368751 
        4.33543         3.35242        0.365381 
        4.35116         3.33017        0.362045 
        4.36688         3.32042        0.358752 
        4.38255         3.29174        0.355512 
        4.39825         3.28121        0.352304 
        4.41398         3.26764         0.34913 
         4.4297         3.24071        0.345999 
        4.44541         3.22079        0.342906 
        4.46111          3.2048        0.339854 
        4.47683         3.17112        0.336836 
        4.49251         3.15998        0.333862 
        4.50819         3.14187        0.330924 
         4.5239         3.12645        0.328017 
        4.53962         3.10756        0.325141 
        4.55535          3.0909        0.322298 
        4.57106         3.07084        0.319494 
        4.58678          3.0493        0.316722 
         4.6025         3.03358        0.313982 
        4.61821         3.02038        0.311276 
        4.63391         3.00457        0.308604 
         4.6496         2.98687        0.305965 
        4.66532         2.95328        0.303353 
        4.68103         2.94256        0.300773 
        4.69673         2.92546        0.298225 
        4.71241          2.9041        0.295709 
        4.72811         2.89434        0.293217 
        4.74384         2.88081        0.290752 
        4.75955         2.86612        0.288318 
        4.77525         2.85049        0.285914 
        4.79096          2.8248        0.283534 
        4.80669         2.81426         0.28118 
         4.8224         2.80783        0.278855 
        4.83809         2.78283        0.276559 
        4.85379         2.77111        0.274288 
         4.8695         2.75695         0.27204 
        4.88521         2.73899        0.269818 
        4.90093         2.72123        0.267621 
        4.91663         2.70726         0.26545 
        4.93234          2.6906        0.263301 
        4.94807         2.67893        0.261174 
        4.96377         2.65996        0.259075 
        4.97943         2.64859        0.257003 
        4.99514         2.62814        0.254949 
        5.01086         2.61183        0.252915 
        5.02654         2.60151        0.250909 
        5.04227         2.59159        0.248919 
          5.058         2.58043        0.246949 
        5.07371         2.55981        0.245005 
        5.08942         2.54891        0.243081 
        5.10513         2.53375        0.241177 
        5.12084         2.52138        0.239293 
        5.13656         2.50955        0.237429 
        5.15225         2.49085        0.235589 
        5.16796         2.47349        0.233765 
        5.18369         2.46397        0.231958 
         5.1994         2.45633        0.230174 
        5.21509         2.44084        0.228411 
        5.23079          2.4279        0.226663 
        5.24649         2.41366        0.224936 
        5.26217         2.40691        0.223227 
        5.27788         2.38247        0.221534 
        5.29359         2.37497        0.219858 
        5.30933         2.36702        0.218197 
        5.32504          2.3483        0.216556 
        5.34073          2.3366        0.214934 
        5.35646         2.32588        0.213325 
        5.37218         2.30925        0.211732 
        5.38789         2.30619        0.210158 
        5.40357         2.29225        0.208601 
        5.41929         2.27989        0.207058 
        5.43502         2.26743        0.205529 
         5.4507         2.25694         0.20402 
        5.46639         2.24562        0.202525 
        5.48212         2.23653        0.201042 
        5.49786         2.22697        0.199572 
        5.51353         2.20737        0.198124 
        5.52921         2.20081        0.196689 
        5.54495          2.1912        0.195264 
        5.56066         2.18235        0.193854 
        5.57637         2.16911        0.192459 
        5.59207         2.15962        0.191078 
        5.60778         2.15274        0.189711 
        5.62346          2.1398        0.188359 
        5.63916         2.12325        0.187019 
        5.65487         2.11581        0.185691 
         5.6706         2.10703        0.184374 
        5.68633         2.09456         0.18307 
        5.70203         2.08508        0.181781 
        5.71773         2.07781        0.180504 
        5.73344         2.06571         0.17924 
        5.74916         2.05339        0.177986 
        5.76486         2.04939        0.176746 
        5.78054         2.04056        0.175519 
        5.79626          2.0271        0.174301 
          5.812          2.0161        0.173093 
         5.8277         2.00512          0.1719 
        5.84339         1.99771        0.170718 
        5.85911         1.98972        0.169545 
        5.87484         1.98102        0.168384 
        5.89053         1.97017        0.167235 
        5.90623         1.96131        0.166097 
        5.92195          1.9523        0.164967 
        5.93767         1.94455        0.163849 
        5.95336         1.93188        0.162742 
        5.96905         1.92602        0.161646 
        5.98476         1.91315        0.160559 
        6.00048         1.90473        0.159482 
        6.01617         1.89972        0.158415 
        6.03185          1.8911         0.15736 
        6.04756            1.88        0.156312 
        6.06331         1.87151        0.155271 
        6.07903         1.86253        0.154242 
        6.09473         1.86036        0.153223 
        6.11044          1.8484        0.152213 
        6.12616         1.83865        0.151211 
        6.14186          1.8324         0.15022 
        6.15755         1.82274        0.149237 
        6.17326         1.81456        0.148263 
        6.18898          1.8076        0.147297 
        6.20467         1.79995        0.146341 
        6.22036         1.79053        0.145394 
         6.2361         1.78181        0.144452 
         6.2518         1.77364        0.143521 
        6.26748         1.76721        0.142599 
        6.28319         1.76094        0.141684 
        6.29893         1.75676        0.140775 
        6.31463         1.74475        0.139876 
        6.33033         1.73357        0.138985 
        6.34604         1.72788        0.138101 
        6.36177         1.72389        0.137224 
        6.37747         1.71497        0.136357 
