# k  (h/Mpc)    Pcb(k)  (Mpc/h)^3    Pcb_linear(k) (Mpc/h)^3   ShotnoiseSubtracted = true
      0.0200456         19964.4         20306.7 
      0.0350414         15215.6         14762.3 
      0.0492313         10517.1           10726 
      0.0637834         8481.78         8916.43 
      0.0800726         6660.47         7076.75 
       0.096163         5332.15          5134.8 
       0.111083         4342.22         4095.65 
       0.126058         3591.61         3629.58 
       0.142273         3138.77         3075.05 
       0.158546            2577         2428.65 
        0.17375         2294.14         2046.13 
       0.188953         2166.37         1852.73 
       0.204907          1861.7         1639.29 
       0.220756         1680.45         1386.93 
        0.23588         1499.53         1206.51 
         0.2514         1354.07          1096.1 
       0.267535         1309.47         991.786 
       0.283568         1162.01         874.622 
       0.299022         1108.87         779.243 
       0.314451         1151.34         712.175 
       0.330372         1009.41         653.341 
       0.346141         928.023         593.006 
       0.361624         890.555         538.962 
       0.377134          851.27          495.93 
       0.392932         814.627         458.874 
       0.408854         779.116         422.993 
       0.424564         761.101         389.879 
       0.440253         702.196         361.463 
       0.455999         671.672         336.754 
       0.471626          684.25         314.047 
        0.48727          645.51         292.806 
       0.502856         613.376         273.724 
       0.518488          600.15         256.697 
       0.534347          571.62         240.869 
       0.550082         545.831         226.275 
       0.565732         539.587         212.923 
       0.581496         527.608         200.694 
       0.597222         514.484         189.479 
       0.612804         502.717         179.166 
       0.628434         481.902         169.554 
       0.644267         466.982         160.567 
       0.660051         461.262         152.285 
       0.675724         451.912         144.637 
       0.691403         440.836         137.508 
       0.707174          425.64         130.819 
       0.722871         419.443         124.602 
        0.73838         412.265         118.855 
       0.754018         399.699         113.427 
       0.769845         396.126          108.28 
        0.78569         387.755         103.447 
       0.801365         374.554         98.9575 
       0.817031         371.857         94.7386 
       0.832809         365.724           90.74 
       0.848511         358.484         86.9912 
       0.864097         349.503         83.4811 
       0.879701         347.499         80.1621 
       0.895507         335.323         76.9853 
       0.911279         329.394         73.9881 
        0.92691         326.495          71.176 
       0.942635         323.144         68.4952 
       0.958396         312.343         65.9474 
       0.974128         309.323         63.5344 
       0.989692         298.403         61.2665 
        1.00528         297.529         59.1064 
        1.02113         292.786          57.017 
        1.03692         287.233         55.0368 
        1.05264          282.52         53.1601 
        1.06832         279.232         51.3742 
        1.08405         274.646         49.6659 
        1.09979         270.387         48.0346 
        1.11537         263.817          46.493 
        1.13105         260.211         45.0101 
        1.14679             257         43.5865 
        1.16256         254.865         42.2219 
        1.17828         250.754         40.9204 
        1.19395         244.188         39.6783 
         1.2097         244.134         38.4817 
        1.22537         240.019         37.3404 
          1.241         233.969          36.249 
        1.25666         232.312         35.1986 
        1.27241         228.447         34.1851 
        1.28819         224.605         33.2099 
        1.30392          223.12         32.2757 
        1.31957         216.803         31.3817 
        1.33529         213.967         30.5184 
        1.35108         212.982         29.6843 
        1.36674         207.172         28.8874 
         1.3824         206.007         28.1206 
        1.39811         204.124         27.3791 
        1.41389         198.254         26.6616 
        1.42964           196.2         25.9711 
        1.44531         194.512         25.3086 
        1.46101         191.011         24.6677 
        1.47667         188.857         24.0511 
        1.49229          186.08         23.4572 
        1.50793         183.169         22.8828 
        1.52367         181.021         22.3239 
        1.53953         176.981           21.78 
        1.55526         176.124         21.2586 
        1.57092          174.65         20.7565 
        1.58662          170.22         20.2695 
        1.60235          168.67         19.7971 
        1.61809         166.126         19.3397 
        1.63369         163.176         18.9007 
        1.64941         161.511         18.4723 
        1.66519         159.479         18.0556 
        1.68085          156.77         17.6548 
        1.69652         155.006         17.2661 
        1.71228         152.566         16.8869 
        1.72806           151.2         16.5188 
        1.74368         149.214         16.1654 
        1.75933         147.983         15.8216 
        1.77505         145.662         15.4862 
        1.79081         142.508           15.16 
         1.8065         141.044         14.8446 
        1.82218         138.604         14.5385 
        1.83797         137.784         14.2389 
        1.85367          135.89         13.9495 
        1.86928         134.082         13.6698 
        1.88497         132.716         13.3963 
        1.90073         131.306         13.1293 
        1.91647         128.855         12.8698 
        1.93218         127.432         12.6178 
        1.94787         125.403          12.373 
        1.96363         124.801         12.1338 
        1.97935         123.131         11.9013 
        1.99499         121.658         11.6763 
        2.01064         119.055         11.4568 
         2.0264         118.226         11.2415 
        2.04216           116.5         11.0319 
        2.05781         115.017          10.829 
        2.07353         113.561         10.6305 
        2.08928         112.172         10.4365 
        2.10499         111.059         10.2478 
        2.12065         109.839         10.0644 
        2.13633         108.866         9.88538 
        2.15211         106.974         9.70953 
        2.16785         105.617         9.53845 
        2.18349         104.163         9.37257 
        2.19916         103.252         9.21029 
        2.21489         102.246         9.05132 
        2.23063         100.369           8.896 
         2.2463         99.4483         8.74502 
        2.26194         98.4559         8.59793 
        2.27765         97.0913         8.45347 
        2.29341         96.1862         8.31196 
        2.30914           94.91         8.17398 
        2.32486         93.2013         8.03921 
        2.34061         92.6833         7.90726 
        2.35635         91.5047          7.7784 
        2.37203         89.9654         7.65285 
        2.38768         89.1891         7.53034 
        2.40339         88.4469         7.41006 
        2.41914         86.8995         7.29214 
        2.43483         86.2625          7.1772 
         2.4505         85.1824         7.06493 
        2.46622         84.1678         6.95468 
        2.48195         83.3185         6.84678 
        2.49759         82.1774         6.74174 
        2.51328         81.4349         6.63863 
        2.52906          79.927         6.53703 
        2.54479         79.2351         6.43794 
        2.56049         78.0824         6.34109 
        2.57618         77.1626         6.24632 
        2.59189         76.7946         6.15335 
        2.60758         75.1963         6.06242 
        2.62325          74.926         5.97343 
        2.63898         74.0185         5.88592 
        2.65468         73.1505         5.80035 
        2.67044         72.0892         5.71612 
        2.68618         71.5534         5.63375 
        2.70184         70.5104         5.55333 
        2.71755         69.8015         5.47429 
        2.73329          68.775         5.39666 
        2.74897         68.4191         5.32079 
        2.76462         67.5281         5.24655 
        2.78034         66.4793         5.17342 
        2.79607         65.8867         5.10161 
        2.81179         65.3986         5.03124 
        2.82749         64.8064         4.96228 
        2.84321         64.0233         4.89453 
        2.85893         63.2848         4.82807 
        2.87462         62.5595         4.76296 
        2.89033         62.0008         4.69899 
        2.90605          61.436         4.63614 
        2.92176         60.5976         4.57447 
        2.93747         60.0691         4.51396 
        2.95318         59.2284         4.45453 
        2.96891         58.6953         4.39614 
        2.98456         58.0435         4.33905 
        3.00023         57.4537          4.2829 
        3.01596          56.956         4.22756 
        3.03164         56.2701         4.17336 
        3.04738         55.8717         4.11996 
         3.0631          54.887          4.0675 
        3.07883         54.3858         4.01596 
        3.09456         53.8108         3.96532 
        3.11026         53.2514         3.91562 
        3.12596         52.8241         3.86679 
        3.14163         52.1044          3.8189 
        3.15734         51.5736         3.77171 
        3.17308          51.098         3.72521 
        3.18879         50.5467         3.67961 
        3.20447         50.1757         3.63485 
         3.2202         49.4619         3.59069 
         3.2359         48.9323         3.54734 
        3.25157         48.5877         3.50482 
        3.26729         47.9787         3.46286 
        3.28304         47.5965          3.4215 
        3.29877         47.0355         3.38088 
        3.31446         46.6689           3.341 
        3.33014           46.14          3.3018 
        3.34585         45.5443         3.26317 
        3.36158         45.1826          3.2251 
        3.37727         44.7334         3.18776 
        3.39294         44.3832         3.15104 
        3.40867         43.9323         3.11477 
        3.42439         43.4808         3.07909 
        3.44008         42.9172         3.04403 
        3.45578         42.6005          3.0095 
        3.47153         42.1015         2.97543 
        3.48724         41.6569         2.94194 
        3.50292         41.2908         2.90905 
        3.51859         40.8737         2.87667 
        3.53431         40.3741         2.84469 
        3.55007         40.0642         2.81311 
        3.56577         39.7933         2.78214 
        3.58146         39.2852         2.75165 
        3.59719         38.9074         2.72155 
        3.61292         38.4983          2.6919 
        3.62859         38.2503         2.66281 
        3.64429         37.9081         2.63409 
        3.66003         37.5256         2.60571 
        3.67578         37.2201         2.57776 
        3.69146         36.9013         2.55032 
        3.70712         36.4579         2.52333 
        3.72284         36.1538         2.49663 
        3.73853         35.8925         2.47037 
        3.75422         35.5466         2.44447 
        3.76993         35.2053         2.41892 
        3.78564         34.9672         2.39375 
        3.80137         34.5605         2.36889 
        3.81707         34.2378         2.34444 
        3.83279         33.9029         2.32031 
        3.84853         33.5748         2.29649 
        3.86424         33.2495         2.27304 
        3.87992         33.0975         2.24996 
        3.89561         32.7754         2.22719 
        3.91134         32.5328          2.2047 
        3.92704         32.1518         2.18254 
        3.94273         31.8827         2.16071 
        3.95845         31.6198         2.13913 
        3.97418         31.2723         2.11785 
        3.98988         30.9557         2.09688 
        4.00554         30.6963         2.07626 
        4.02125         30.5212         2.05585 
        4.03698         30.1218         2.03569 
        4.05268          29.901         2.01584 
        4.06839         29.5684         1.99624 
         4.0841         29.4152         1.97691 
        4.09983         29.0981         1.95781 
        4.11555         28.8024         1.93897 
        4.13124         28.6218         1.92042 
        4.14693         28.3825          1.9021 
        4.16266         28.0353         1.88398 
        4.17839          27.878         1.86611 
        4.19408         27.6133         1.84851 
        4.20977         27.3565         1.83113 
        4.22551         27.1408         1.81393 
        4.24123         26.9219         1.79697 
        4.25691         26.6716         1.78027 
        4.27259         26.5194         1.76378 
        4.28831         26.1996         1.74746 
        4.30404          25.992         1.73134 
        4.31974         25.7109         1.71545 
        4.33543         25.5695         1.69977 
        4.35116         25.3392         1.68425 
        4.36688         25.1415         1.66893 
        4.38255         24.9704         1.65386 
        4.39825         24.6656         1.63894 
        4.41398         24.4917         1.62417 
         4.4297         24.2664          1.6096 
        4.44541         24.1312         1.59522 
        4.46111          23.932         1.58102 
        4.47683         23.6731         1.56698 
        4.49251         23.4981         1.55314 
        4.50819         23.3256         1.53947 
         4.5239         23.1119         1.52595 
        4.53962         22.9512         1.51257 
        4.55535         22.7075         1.49935 
        4.57106         22.5365          1.4863 
        4.58678         22.3618         1.47341 
         4.6025          22.128         1.46066 
        4.61821         21.9831         1.44807 
        4.63391          21.773         1.43564 
         4.6496          21.618         1.42337 
        4.66532         21.4771         1.41121 
        4.68103         21.2172         1.39921 
        4.69673         21.1516         1.38735 
        4.71241         20.9549         1.37565 
        4.72811          20.775         1.36406 
        4.74384         20.5937         1.35259 
        4.75955         20.4675         1.34127 
        4.77525         20.2879         1.33008 
        4.79096         20.1268         1.31901 
        4.80669         19.9759         1.30806 
         4.8224         19.8262         1.29725 
        4.83809         19.6557         1.28657 
        4.85379         19.5032           1.276 
         4.8695         19.3413         1.26554 
        4.88521         19.1811         1.25521 
        4.90093         19.0378         1.24499 
        4.91663          18.898         1.23489 
        4.93234         18.7178         1.22489 
        4.94807         18.6033           1.215 
        4.96377         18.4864         1.20523 
        4.97943         18.2605         1.19559 
        4.99514         18.1481         1.18603 
        5.01086         17.9949         1.17657 
        5.02654         17.8945         1.16724 
        5.04227          17.714         1.15798 
          5.058          17.591         1.14882 
        5.07371         17.4811         1.13977 
        5.08942         17.3184         1.13082 
        5.10513         17.1911         1.12197 
        5.12084         17.0891          1.1132 
        5.13656         16.9089         1.10453 
        5.15225         16.7917         1.09597 
        5.16796         16.6823         1.08748 
        5.18369         16.5655         1.07908 
         5.1994         16.4542         1.07078 
        5.21509         16.3351         1.06258 
        5.23079         16.1984         1.05445 
        5.24649         16.1076         1.04641 
        5.26217         15.9575         1.03846 
        5.27788         15.8164         1.03059 
        5.29359         15.7212         1.02279 
        5.30933         15.5976         1.01506 
        5.32504         15.4501         1.00743 
        5.34073          15.389        0.999882 
        5.35646         15.2619        0.992396 
        5.37218         15.1136        0.984986 
        5.38789          15.034        0.977664 
        5.40357         14.9236        0.970424 
        5.41929         14.8124        0.963241 
        5.43502         14.6907         0.95613 
         5.4507          14.617        0.949108 
        5.46639         14.5039        0.942155 
        5.48212         14.3809        0.935256 
        5.49786         14.2745        0.928418 
        5.51353         14.1706        0.921682 
        5.52921         14.0672        0.915005 
        5.54495         13.9451        0.908375 
        5.56066         13.8773        0.901819 
        5.57637         13.7634        0.895327 
        5.59207         13.6581        0.888906 
        5.60778         13.5574        0.882544 
        5.62346         13.4992        0.876254 
        5.63916         13.3695        0.870019 
        5.65487         13.2752        0.863842 
         5.6706         13.1972        0.857717 
        5.68633         13.1144        0.851649 
        5.70203         13.0012        0.845653 
        5.71773         12.9118        0.839715 
        5.73344         12.8333        0.833831 
        5.74916          12.737        0.827998 
        5.76486         12.6492        0.822229 
        5.78054         12.5621        0.816523 
        5.79626         12.4508        0.810856 
          5.812         12.3899        0.805236 
         5.8277         12.3032        0.799687 
        5.84339         12.2009        0.794189 
        5.85911         12.1157        0.788733 
        5.87484          12.051        0.783329 
        5.89053         11.9432        0.777986 
        5.90623         11.8523         0.77269 
        5.92195         11.7635        0.767435 
        5.93767          11.687        0.762231 
        5.95336         11.6457        0.757084 
        5.96905         11.5431        0.751987 
        5.98476         11.4926        0.746929 
        6.00048         11.3808        0.741916 
        6.01617         11.2988        0.736956 
        6.03185          11.245        0.732047 
        6.04756         11.1564        0.727171 
        6.06331         11.0714        0.722329 
        6.07903         10.9978        0.717541 
        6.09473         10.9432        0.712801 
        6.11044         10.8482          0.7081 
        6.12616         10.7654        0.703441 
        6.14186         10.6992        0.698829 
        6.15755         10.6427        0.694259 
        6.17326         10.5536        0.689726 
        6.18898         10.4846        0.685232 
        6.20467         10.4253        0.680785 
        6.22036         10.3605        0.676378 
         6.2361         10.2829        0.671998 
         6.2518         10.2422        0.667665 
        6.26748         10.1566        0.663379 
        6.28319         10.0971        0.659118 
        6.29893         10.0227        0.654892 
        6.31463         9.95783        0.650709 
        6.33033         9.87973        0.646565 
        6.34604          9.8172        0.642453 
        6.36177         9.76857        0.638373 
        6.37747         9.69173        0.634337 
