# k  (h/Mpc)    Pcb(k)  (Mpc/h)^3    Pcb_linear(k) (Mpc/h)^3   ShotnoiseSubtracted = true
      0.0200456         91.0952         92.2774 
      0.0350414          67.512         67.0825 
      0.0492313         48.9555         48.7409 
      0.0637834          40.398         40.5179 
      0.0800726         32.0057          32.158 
       0.096163         23.5354         23.3335 
       0.111083         18.7996         18.6114 
       0.126058         16.4487         16.4935 
       0.142273          13.907         13.9736 
       0.158546         11.0696         11.0362 
        0.17375         9.35997         9.29799 
       0.188953         8.41648         8.41912 
       0.204907         7.37907         7.44921 
       0.220756         6.30603         6.30248 
        0.23588          5.4877         5.48261 
         0.2514         4.97994          4.9809 
       0.267535         4.50442         4.50686 
       0.283568         3.97609         3.97444 
       0.299022         3.54442         3.54102 
       0.314451         3.25748         3.23625 
       0.330372         2.97311          2.9689 
       0.346141         2.69968         2.69473 
       0.361624         2.45066         2.44914 
       0.377134         2.25024         2.25359 
       0.392932         2.10563         2.08521 
       0.408854         1.92065         1.92216 
       0.424564         1.78502         1.77168 
       0.440253         1.64716         1.64255 
       0.455999         1.52644         1.53027 
       0.471626         1.42293         1.42709 
        0.48727         1.33734         1.33056 
       0.502856         1.25156         1.24385 
       0.518488         1.16269         1.16648 
       0.534347         1.08737         1.09455 
       0.550082         1.03065         1.02823 
       0.565732        0.976165        0.967559 
       0.581496        0.913912        0.911989 
       0.597222        0.862071        0.861026 
       0.612804        0.814624        0.814163 
       0.628434        0.770013        0.770483 
       0.644267         0.73191        0.729647 
       0.660051        0.694559         0.69201 
       0.675724        0.656466        0.657256 
       0.691403         0.62404         0.62486 
       0.707174         0.59386        0.594465 
       0.722871        0.571395        0.566212 
        0.73838        0.538667        0.540098 
       0.754018         0.51363        0.515434 
       0.769845        0.488089        0.492042 
        0.78569        0.469336        0.470082 
       0.801365        0.449849        0.449681 
       0.817031        0.430819        0.430509 
       0.832809        0.410865        0.412339 
       0.848511        0.394417        0.395304 
       0.864097        0.379788        0.379353 
       0.879701        0.365792        0.364271 
       0.895507        0.347759        0.349835 
       0.911279        0.336065        0.336215 
        0.92691        0.324773        0.323437 
       0.942635        0.309863        0.311255 
       0.958396         0.29912        0.299677 
       0.974128        0.288231        0.288712 
       0.989692        0.277879        0.278406 
        1.00528        0.266568         0.26859 
        1.02113        0.259313        0.259096 
        1.03692        0.250405        0.250097 
        1.05264         0.24058        0.241569 
        1.06832        0.232773        0.233453 
        1.08405        0.224401        0.225691 
        1.09979        0.217574        0.218278 
        1.11537        0.209298        0.211273 
        1.13105        0.202257        0.204534 
        1.14679        0.196593        0.198065 
        1.16256        0.191059        0.191864 
        1.17828        0.185153         0.18595 
        1.19395        0.179549        0.180305 
         1.2097        0.173549        0.174868 
        1.22537        0.167841        0.169681 
          1.241        0.163084        0.164722 
        1.25666        0.158915        0.159949 
        1.27241        0.153765        0.155343 
        1.28819        0.149142        0.150912 
        1.30392        0.145505        0.146667 
        1.31957         0.14098        0.142604 
        1.33529         0.13764        0.138681 
        1.35108        0.133071        0.134891 
        1.36674        0.129986        0.131269 
         1.3824        0.126186        0.127785 
        1.39811        0.122404        0.124416 
        1.41389        0.119878        0.121155 
        1.42964        0.116415        0.118018 
        1.44531        0.113265        0.115007 
        1.46101        0.110138        0.112095 
        1.47667         0.10759        0.109292 
        1.49229        0.104915        0.106594 
        1.50793        0.102299        0.103983 
        1.52367       0.0996664        0.101444 
        1.53953       0.0968915       0.0989724 
        1.55526       0.0946177       0.0966031 
        1.57092       0.0928546       0.0943214 
        1.58662       0.0904238       0.0921081 
        1.60235       0.0881706       0.0899618 
        1.61809       0.0860131       0.0878829 
        1.63369       0.0839862       0.0858883 
        1.64941        0.082031       0.0839415 
        1.66519       0.0802613       0.0820481 
        1.68085       0.0782953       0.0802268 
        1.69652       0.0767071       0.0784603 
        1.71228       0.0746709        0.076737 
        1.72806       0.0733088       0.0750643 
        1.74368       0.0715466       0.0734583 
        1.75933       0.0700799       0.0718962 
        1.77505        0.068678       0.0703723 
        1.79081       0.0669701         0.06889 
         1.8065       0.0657077       0.0674567 
        1.82218       0.0640136       0.0660656 
        1.83797       0.0627661       0.0647043 
        1.85367       0.0613918       0.0633889 
        1.86928       0.0598863        0.062118 
        1.88497       0.0588262       0.0608751 
        1.90073       0.0574412       0.0596617 
        1.91647       0.0566687       0.0584825 
        1.93218       0.0557204       0.0573377 
        1.94787       0.0541411       0.0562253 
        1.96363       0.0531247        0.055138 
        1.97935       0.0520272       0.0540818 
        1.99499       0.0510903       0.0530593 
        2.01064       0.0500279       0.0520617 
         2.0264       0.0492123       0.0510836 
        2.04216       0.0482273       0.0501311 
        2.05781        0.047127       0.0492089 
        2.07353       0.0463208       0.0483067 
        2.08928       0.0455166       0.0474251 
        2.10499       0.0446552        0.046568 
        2.12065       0.0438091       0.0457346 
        2.13633       0.0429799       0.0449209 
        2.15211       0.0422583       0.0441218 
        2.16785       0.0412023       0.0433444 
        2.18349        0.040592       0.0425906 
        2.19916       0.0397827       0.0418532 
        2.21489       0.0390613       0.0411308 
        2.23063       0.0385181        0.040425 
         2.2463       0.0377878        0.039739 
        2.26194       0.0371228       0.0390705 
        2.27765       0.0365443       0.0384141 
        2.29341       0.0357315        0.037771 
        2.30914       0.0351505        0.037144 
        2.32486       0.0344808       0.0365316 
        2.34061       0.0338818        0.035932 
        2.35635       0.0333825       0.0353464 
        2.37203       0.0330093       0.0347759 
        2.38768       0.0324671       0.0342192 
        2.40339       0.0318095       0.0336727 
        2.41914       0.0312169       0.0331368 
        2.43483       0.0308215       0.0326145 
         2.4505       0.0302055       0.0321043 
        2.46622       0.0296897       0.0316033 
        2.48195       0.0291932        0.031113 
        2.49759       0.0287472       0.0306357 
        2.51328       0.0281906       0.0301671 
        2.52906        0.027804       0.0297055 
        2.54479       0.0274106       0.0292552 
        2.56049       0.0268957       0.0288151 
        2.57618       0.0265201       0.0283844 
        2.59189       0.0260074       0.0279619 
        2.60758       0.0257549       0.0275487 
        2.62325       0.0252024       0.0271443 
        2.63898       0.0249156       0.0267467 
        2.65468       0.0244392       0.0263578 
        2.67044       0.0240785       0.0259751 
        2.68618       0.0236964       0.0256008 
        2.70184        0.023479       0.0252353 
        2.71755       0.0230622       0.0248762 
        2.73329       0.0227569       0.0245234 
        2.74897       0.0223716       0.0241786 
        2.76462        0.022012       0.0238413 
        2.78034       0.0217406        0.023509 
        2.79607       0.0213936       0.0231826 
        2.81179       0.0210804       0.0228629 
        2.82749       0.0208379       0.0225495 
        2.84321        0.020479       0.0222416 
        2.85893       0.0201926       0.0219396 
        2.87462        0.019891       0.0216438 
        2.89033       0.0196119       0.0213531 
        2.90605       0.0193015       0.0210675 
        2.92176       0.0191153       0.0207872 
        2.93747       0.0187705       0.0205122 
        2.95318       0.0185556       0.0202422 
        2.96891        0.018254       0.0199768 
        2.98456       0.0179783       0.0197174 
        3.00023       0.0178456       0.0194623 
        3.01596       0.0174952       0.0192108 
        3.03164       0.0172864       0.0189645 
        3.04738       0.0170657       0.0187218 
         3.0631       0.0167486       0.0184835 
        3.07883       0.0166235       0.0182492 
        3.09456       0.0163812       0.0180191 
        3.11026       0.0161084       0.0177933 
        3.12596       0.0159844       0.0175714 
        3.14163       0.0157608       0.0173538 
        3.15734       0.0155763       0.0171393 
        3.17308       0.0153717        0.016928 
        3.18879        0.015126       0.0167208 
        3.20447       0.0149539       0.0165174 
         3.2202       0.0147457       0.0163167 
         3.2359       0.0145826       0.0161198 
        3.25157       0.0143795       0.0159265 
        3.26729       0.0142154       0.0157358 
        3.28304       0.0140647       0.0155479 
        3.29877       0.0138829       0.0153633 
        3.31446       0.0136648       0.0151821 
        3.33014       0.0135367        0.015004 
        3.34585       0.0133949       0.0148284 
        3.36158       0.0132004       0.0146554 
        3.37727       0.0130199       0.0144857 
        3.39294       0.0128711       0.0143189 
        3.40867       0.0127652       0.0141541 
        3.42439       0.0125919       0.0139919 
        3.44008       0.0124551       0.0138326 
        3.45578       0.0122956       0.0136757 
        3.47153       0.0121696       0.0135209 
        3.48724       0.0120107       0.0133687 
        3.50292       0.0119175       0.0132192 
        3.51859       0.0117991       0.0130721 
        3.53431        0.011622       0.0129268 
        3.55007       0.0115042       0.0127833 
        3.56577       0.0113769       0.0126426 
        3.58146       0.0112417        0.012504 
        3.59719        0.011172       0.0123672 
        3.61292       0.0110187       0.0122325 
        3.62859       0.0108714       0.0121003 
        3.64429       0.0107821       0.0119698 
        3.66003       0.0106972       0.0118408 
        3.67578        0.010567       0.0117138 
        3.69146       0.0104698       0.0115891 
        3.70712        0.010346       0.0114665 
        3.72284       0.0102434       0.0113451 
        3.73853       0.0101333       0.0112258 
        3.75422       0.0100397       0.0111081 
        3.76993      0.00995088        0.010992 
        3.78564      0.00985105       0.0108776 
        3.80137      0.00975652       0.0107647 
        3.81707      0.00963907       0.0106535 
        3.83279      0.00954302       0.0105439 
        3.84853      0.00947483       0.0104356 
        3.86424      0.00937095       0.0103291 
        3.87992      0.00930778       0.0102242 
        3.89561      0.00921662       0.0101208 
        3.91134      0.00912543       0.0100185 
        3.92704      0.00904678      0.00991785 
        3.94273      0.00897094      0.00981864 
        3.95845      0.00888055      0.00972061 
        3.97418      0.00880699      0.00962389 
        3.98988      0.00868764      0.00952862 
        4.00554      0.00861942      0.00943489 
        4.02125      0.00852208      0.00934216 
        4.03698      0.00839454      0.00925053 
        4.05268      0.00830338      0.00916034 
        4.06839      0.00820833      0.00907128 
         4.0841      0.00809035      0.00898344 
        4.09983      0.00800619      0.00889663 
        4.11555      0.00790671      0.00881101 
        4.13124      0.00781262      0.00872674 
        4.14693       0.0077345      0.00864351 
        4.16266      0.00764428      0.00856117 
        4.17839      0.00755984      0.00847995 
        4.19408      0.00745856      0.00839996 
        4.20977       0.0073763      0.00832098 
        4.22551      0.00731798      0.00824282 
        4.24123      0.00725221      0.00816574 
        4.25691      0.00720229      0.00808986 
        4.27259       0.0071034      0.00801492 
        4.28831      0.00705346      0.00794078 
        4.30404      0.00698714       0.0078675 
        4.31974      0.00695136      0.00779531 
        4.33543      0.00688356      0.00772406 
        4.35116      0.00682127      0.00765354 
        4.36688      0.00678347      0.00758391 
        4.38255      0.00676211      0.00751542 
        4.39825      0.00673161      0.00744762 
        4.41398      0.00667116      0.00738052 
         4.4297      0.00664517      0.00731432 
        4.44541      0.00660949      0.00724895 
        4.46111      0.00656319      0.00718442 
        4.47683      0.00656325      0.00712063 
        4.49251      0.00652477      0.00705775 
        4.50819      0.00650984      0.00699564 
         4.5239       0.0064862      0.00693418 
        4.53962      0.00648422      0.00687339 
        4.55535      0.00645863       0.0068133 
        4.57106      0.00647525      0.00675401 
        4.58678      0.00645825      0.00669542 
         4.6025      0.00645717       0.0066375 
        4.61821      0.00645091      0.00658029 
        4.63391       0.0064604      0.00652381 
         4.6496      0.00644561      0.00646803 
        4.66532      0.00646878      0.00641281 
        4.68103      0.00646864      0.00635826 
        4.69673       0.0064733      0.00630439 
        4.71241      0.00653394       0.0062512 
        4.72811      0.00654049      0.00619854 
        4.74384      0.00656529      0.00614641 
        4.75955      0.00657558      0.00609497 
        4.77525      0.00660087      0.00604414 
        4.79096      0.00665207      0.00599383 
        4.80669      0.00667962      0.00594407 
         4.8224      0.00673631      0.00589492 
        4.83809      0.00677271      0.00584639 
        4.85379       0.0068275      0.00579837 
         4.8695      0.00683706      0.00575085 
        4.88521      0.00690274      0.00570389 
        4.90093      0.00694502      0.00565744 
        4.91663      0.00702132      0.00561155 
        4.93234      0.00707781      0.00556612 
        4.94807      0.00712676      0.00552116 
        4.96377      0.00721799      0.00547678 
        4.97943      0.00732978      0.00543299 
        4.99514      0.00734924      0.00538955 
        5.01086      0.00744209      0.00534657 
        5.02654      0.00750619      0.00530415 
        5.04227      0.00759546      0.00526208 
          5.058      0.00770834      0.00522044 
        5.07371      0.00777536      0.00517933 
        5.08942      0.00792149      0.00513866 
        5.10513      0.00796863      0.00509842 
        5.12084      0.00806297      0.00505859 
        5.13656      0.00817197       0.0050192 
        5.15225       0.0083037      0.00498029 
        5.16796      0.00847177      0.00494173 
        5.18369      0.00855212      0.00490354 
         5.1994      0.00869215      0.00486583 
        5.21509      0.00880262      0.00482854 
        5.23079      0.00893845       0.0047916 
        5.24649      0.00907255      0.00475508 
        5.26217      0.00921794      0.00471897 
        5.27788      0.00936028      0.00468317 
        5.29359      0.00950569      0.00464774 
        5.30933      0.00969271      0.00461263 
        5.32504       0.0098496      0.00457794 
        5.34073      0.00998402      0.00454364 
        5.35646       0.0102176      0.00450963 
        5.37218       0.0103992      0.00447595 
        5.38789       0.0105245      0.00444268 
        5.40357        0.010718      0.00440978 
        5.41929       0.0109203      0.00437714 
        5.43502       0.0111718      0.00434483 
         5.4507       0.0113407      0.00431292 
        5.46639       0.0115415      0.00428132 
        5.48212       0.0117416      0.00424997 
        5.49786       0.0120832       0.0042189 
        5.51353       0.0122917      0.00418829 
        5.52921       0.0124797      0.00415795 
        5.54495       0.0127291      0.00412782 
        5.56066       0.0130362      0.00409803 
        5.57637       0.0132857      0.00406853 
        5.59207       0.0135759      0.00403935 
        5.60778       0.0138862      0.00401044 
        5.62346        0.014131      0.00398186 
        5.63916         0.01434      0.00395352 
        5.65487       0.0147096      0.00392545 
         5.6706       0.0150005      0.00389762 
        5.68633       0.0153809      0.00387005 
        5.70203       0.0157068       0.0038428 
        5.71773       0.0160776      0.00381582 
        5.73344       0.0162957      0.00378908 
        5.74916       0.0166845      0.00376257 
        5.76486       0.0171811      0.00373636 
        5.78054       0.0174738      0.00371043 
        5.79626       0.0178514      0.00368467 
          5.812       0.0183201      0.00365914 
         5.8277       0.0186478      0.00363392 
        5.84339       0.0191235      0.00360894 
        5.85911       0.0196917      0.00358414 
        5.87484       0.0201043      0.00355959 
        5.89053       0.0205309      0.00353531 
        5.90623       0.0211473      0.00351124 
        5.92195       0.0214452      0.00348736 
        5.93767       0.0220265      0.00346372 
        5.95336       0.0226282      0.00344033 
        5.96905       0.0231478      0.00341716 
        5.98476       0.0235456      0.00339418 
        6.00048       0.0243282       0.0033714 
        6.01617       0.0247708      0.00334886 
        6.03185        0.025366      0.00332655 
        6.04756       0.0261926       0.0033044 
        6.06331        0.026739      0.00328239 
        6.07903       0.0274191      0.00326064 
        6.09473       0.0281033       0.0032391 
        6.11044        0.029009      0.00321773 
        6.12616       0.0295301      0.00319656 
        6.14186       0.0304302      0.00317561 
        6.15755       0.0311829      0.00315484 
        6.17326       0.0318812      0.00313424 
        6.18898        0.032728      0.00311382 
        6.20467       0.0336422      0.00309361 
        6.22036       0.0347095      0.00307358 
         6.2361       0.0353805      0.00305368 
         6.2518       0.0364049      0.00303399 
        6.26748       0.0370946      0.00301451 
        6.28319       0.0385776      0.00299515 
        6.29893        0.039438      0.00297595 
        6.31463       0.0407618      0.00295694 
        6.33033       0.0413224      0.00293811 
        6.34604       0.0425017      0.00291942 
        6.36177       0.0435776      0.00290088 
        6.37747       0.0452566      0.00288254 
