# k  (h/Mpc)    Pcb(k)  (Mpc/h)^3    Pcb_linear(k) (Mpc/h)^3   ShotnoiseSubtracted = true
      0.0200456         6695.13         6787.14 
      0.0350414         5043.69         4934.02 
      0.0492313         3572.92         3584.96 
      0.0637834         2902.43         2980.15 
      0.0800726         2291.45         2365.27 
       0.096163         1766.67         1716.21 
       0.111083         1430.45         1368.89 
       0.126058         1204.38         1213.12 
       0.142273         1028.82         1027.78 
       0.158546         840.541         811.729 
        0.17375         727.733         683.881 
       0.188953         664.652         619.239 
       0.204907         565.711           547.9 
       0.220756         504.116         463.557 
        0.23588          444.83         403.254 
         0.2514          399.19         366.352 
       0.267535         381.305         331.486 
       0.283568         332.405         292.326 
       0.299022         312.584         260.447 
       0.314451         305.125         238.031 
       0.330372         264.851         218.367 
       0.346141         244.806         198.201 
       0.361624         230.738         180.138 
       0.377134         211.688         165.755 
       0.392932         206.131          153.37 
       0.408854         194.147         141.378 
       0.424564          185.44          130.31 
       0.440253         167.756         120.812 
       0.455999         157.375         112.554 
       0.471626          153.14         104.964 
        0.48727         147.562         97.8648 
       0.502856         134.899          91.487 
       0.518488         132.592         85.7963 
       0.534347         124.243         80.5059 
       0.550082         121.106          75.628 
       0.565732         118.351         71.1654 
       0.581496           109.1         67.0781 
       0.597222         106.444         63.3297 
       0.612804          102.87         59.8829 
       0.628434         100.193         56.6702 
       0.644267         94.9209         53.6666 
       0.660051         91.8422         50.8983 
       0.675724         89.9361         48.3421 
       0.691403         88.0073         45.9593 
       0.707174         84.9207         43.7237 
       0.722871          83.064         41.6457 
        0.73838         80.3853          39.725 
       0.754018         75.8311         37.9109 
       0.769845         75.2508         36.1904 
        0.78569         72.8586         34.5752 
       0.801365         70.7473         33.0747 
       0.817031         68.3003         31.6646 
       0.832809         67.1045         30.3281 
       0.848511         65.4773         29.0752 
       0.864097         64.2509          27.902 
       0.879701         62.9324         26.7927 
       0.895507         60.6033         25.7309 
       0.911279         59.6542         24.7291 
        0.92691         57.9637         23.7892 
       0.942635         56.7745         22.8932 
       0.958396         56.5239         22.0417 
       0.974128         55.0857         21.2352 
       0.989692         53.5969         20.4772 
        1.00528         52.6688         19.7552 
        1.02113         51.5024         19.0569 
        1.03692         51.1772          18.395 
        1.05264         49.9857         17.7678 
        1.06832         48.7756         17.1708 
        1.08405         47.8693         16.5999 
        1.09979         47.6363         16.0547 
        1.11537         46.2728         15.5394 
        1.13105         45.1706         15.0438 
        1.14679          44.654          14.568 
        1.16256         44.0192         14.1119 
        1.17828         43.4663         13.6769 
        1.19395         42.3522         13.2617 
         1.2097         42.2582         12.8618 
        1.22537         41.2763         12.4803 
          1.241         40.6397         12.1155 
        1.25666          39.851         11.7645 
        1.27241         39.6526         11.4257 
        1.28819         38.5358         11.0998 
        1.30392         38.3208         10.7875 
        1.31957         37.8942         10.4887 
        1.33529         37.1816         10.2002 
        1.35108         36.5368         9.92141 
        1.36674         36.1564         9.65506 
         1.3824         35.5677         9.39877 
        1.39811         34.8921         9.15095 
        1.41389         34.4948         8.91115 
        1.42964         34.2516         8.68036 
        1.44531          33.492         8.45891 
        1.46101         33.3069         8.24473 
        1.47667         32.8874         8.03862 
        1.49229         32.2758         7.84013 
        1.50793         32.0042         7.64813 
        1.52367         31.4563         7.46135 
        1.53953         31.3158         7.27956 
        1.55526         30.7869          7.1053 
        1.57092         30.4425         6.93748 
        1.58662         29.9818         6.77469 
        1.60235         29.6141         6.61682 
        1.61809         29.3139         6.46391 
        1.63369          29.033         6.31721 
        1.64941         28.6372         6.17402 
        1.66519         28.1884         6.03476 
        1.68085         27.7896          5.9008 
        1.69652          27.574         5.77087 
        1.71228         27.3811         5.64412 
        1.72806         26.9152         5.52109 
        1.74368         26.5963         5.40297 
        1.75933         26.4018         5.28807 
        1.77505         26.1709         5.17599 
        1.79081         25.8393         5.06696 
         1.8065          25.496         4.96154 
        1.82218         25.2188         4.85922 
        1.83797         25.0733         4.75909 
        1.85367          24.752         4.66235 
        1.86928         24.6929         4.56887 
        1.88497         24.2141         4.47745 
        1.90073         24.0037         4.38821 
        1.91647         23.7287         4.30147 
        1.93218         23.7552         4.21727 
        1.94787         23.3825         4.13545 
        1.96363          23.114         4.05548 
        1.97935         22.8021          3.9778 
        1.99499         22.6569         3.90259 
        2.01064         22.3438         3.82921 
         2.0264         22.1715         3.75727 
        2.04216         22.0565         3.68721 
        2.05781         21.7712         3.61939 
        2.07353         21.5875         3.55303 
        2.08928         21.2147         3.48819 
        2.10499         21.0803         3.42514 
        2.12065          20.884         3.36385 
        2.13633         20.7541           3.304 
        2.15211         20.4164         3.24523 
        2.16785         20.4036         3.18805 
        2.18349         20.1184          3.1326 
        2.19916         19.9333         3.07836 
        2.21489         19.6948         3.02523 
        2.23063         19.6226         2.97332 
         2.2463          19.365         2.92286 
        2.26194         19.2073          2.8737 
        2.27765         18.9105         2.82541 
        2.29341         18.7976         2.77812 
        2.30914         18.5976           2.732 
        2.32486         18.5237         2.68696 
        2.34061         18.3382         2.64285 
        2.35635         18.0743         2.59978 
        2.37203         17.9728         2.55782 
        2.38768         17.7989         2.51687 
        2.40339         17.7262         2.47667 
        2.41914         17.5124         2.43726 
        2.43483         17.3223         2.39884 
         2.4505         17.1172         2.36132 
        2.46622         17.0611         2.32447 
        2.48195         16.8573         2.28841 
        2.49759         16.6166          2.2533 
        2.51328         16.5994         2.21884 
        2.52906         16.4466         2.18488 
        2.54479         16.2586         2.15176 
        2.56049         16.1081         2.11939 
        2.57618         16.0671         2.08772 
        2.59189         15.8534         2.05664 
        2.60758         15.6531         2.02625 
        2.62325          15.561         1.99651 
        2.63898         15.4913         1.96726 
        2.65468          15.253         1.93866 
        2.67044         15.1562          1.9105 
        2.68618         15.0692         1.88297 
        2.70184          14.902          1.8561 
        2.71755         14.7675         1.82968 
        2.73329         14.6549         1.80373 
        2.74897         14.5268         1.77837 
        2.76462         14.4224         1.75356 
        2.78034         14.2629         1.72912 
        2.79607          14.173         1.70512 
        2.81179         14.0584          1.6816 
        2.82749         13.9328         1.65855 
        2.84321         13.8166         1.63591 
        2.85893         13.6463         1.61369 
        2.87462         13.6158         1.59193 
        2.89033         13.4492         1.57055 
        2.90605         13.3674         1.54954 
        2.92176          13.245         1.52893 
        2.93747         13.1244         1.50871 
        2.95318         13.0214         1.48884 
        2.96891         12.9214         1.46933 
        2.98456          12.804         1.45025 
        3.00023         12.7071         1.43148 
        3.01596          12.627         1.41298 
        3.03164         12.5209         1.39487 
        3.04738         12.4163         1.37702 
         3.0631         12.2611         1.35949 
        3.07883         12.1945         1.34226 
        3.09456         12.1009         1.32533 
        3.11026         12.0279         1.30872 
        3.12596         11.9284          1.2924 
        3.14163         11.8197          1.2764 
        3.15734         11.7139         1.26062 
        3.17308         11.6573         1.24508 
        3.18879         11.5324         1.22984 
        3.20447         11.4707         1.21488 
         3.2202         11.3532         1.20012 
         3.2359         11.2382         1.18563 
        3.25157         11.2063         1.17142 
        3.26729         11.0724         1.15739 
        3.28304         10.9636         1.14357 
        3.29877         10.9335         1.12999 
        3.31446         10.8236         1.11667 
        3.33014         10.7457         1.10356 
        3.34585         10.6345         1.09065 
        3.36158         10.5731         1.07793 
        3.37727         10.5266         1.06545 
        3.39294         10.4224         1.05317 
        3.40867         10.3323         1.04105 
        3.42439         10.2341         1.02913 
        3.44008         10.1843         1.01741 
        3.45578         10.0805         1.00587 
        3.47153         10.0278         0.99448 
        3.48724         9.93944        0.983287 
        3.50292         9.85302        0.972293 
        3.51859          9.7833        0.961473 
        3.53431         9.67459        0.950783 
        3.55007         9.60955         0.94023 
        3.56577         9.52877        0.929879 
        3.58146         9.45123        0.919687 
        3.59719         9.37341        0.909625 
        3.61292         9.34782        0.899717 
        3.62859         9.27949        0.889994 
        3.64429         9.17452        0.880396 
        3.66003         9.13442         0.87091 
        3.67578         9.03533        0.861567 
        3.69146         9.00832        0.852396 
        3.70712         8.91542        0.843376 
        3.72284         8.84193        0.834452 
        3.73853         8.78974        0.825673 
        3.75422         8.72818        0.817017 
        3.76993         8.63376        0.808478 
        3.78564          8.5832        0.800064 
        3.80137          8.5286        0.791757 
        3.81707         8.44394        0.783584 
        3.83279         8.36467         0.77552 
        3.84853         8.32098        0.767557 
        3.86424         8.27376        0.759721 
        3.87992         8.22433        0.752006 
        3.89561         8.14055        0.744398 
        3.91134         8.06629        0.736879 
        3.92704          8.0144        0.729473 
        3.94273         7.95033        0.722176 
        3.95845         7.90819        0.714965 
        3.97418         7.83871        0.707851 
        3.98988           7.793        0.700844 
        4.00554         7.72829         0.69395 
        4.02125         7.69121         0.68713 
        4.03698         7.60723         0.68039 
        4.05268         7.54697        0.673757 
        4.06839          7.4709        0.667206 
         4.0841         7.43793        0.660745 
        4.09983         7.37979         0.65436 
        4.11555         7.30752        0.648062 
        4.13124         7.26488        0.641865 
        4.14693         7.20466        0.635743 
        4.16266         7.15714        0.629686 
        4.17839         7.11496        0.623712 
        4.19408         7.06254         0.61783 
        4.20977         6.98956         0.61202 
        4.22551         6.96164        0.606271 
        4.24123         6.91059        0.600602 
        4.25691         6.85809        0.595021 
        4.27259         6.77868        0.589509 
        4.28831         6.74972        0.584056 
        4.30404         6.69362        0.578666 
        4.31974         6.64637        0.573356 
        4.33543         6.58951        0.568116 
        4.35116         6.54506        0.562929 
        4.36688         6.50498        0.557808 
        4.38255         6.45456         0.55277 
        4.39825         6.40472        0.547783 
        4.41398         6.34882        0.542848 
         4.4297         6.31779        0.537979 
        4.44541         6.26547        0.533171 
        4.46111         6.23873        0.528425 
        4.47683         6.19088        0.523733 
        4.49251         6.14886        0.519108 
        4.50819         6.10838        0.514539 
         4.5239           6.042        0.510019 
        4.53962         6.01252        0.505548 
        4.55535         5.96633        0.501128 
        4.57106         5.92037        0.496768 
        4.58678         5.88369        0.492458 
         4.6025         5.84115        0.488198 
        4.61821         5.81116         0.48399 
        4.63391         5.75438        0.479836 
         4.6496         5.71855        0.475733 
        4.66532          5.6751        0.471671 
        4.68103         5.64213        0.467659 
        4.69673         5.60793        0.463697 
        4.71241         5.56787        0.459785 
        4.72811         5.51422        0.455912 
        4.74384          5.5015        0.452078 
        4.75955         5.44597        0.448294 
        4.77525          5.4083        0.444555 
        4.79096          5.3785        0.440855 
        4.80669          5.3314        0.437195 
         4.8224         5.30286         0.43358 
        4.83809         5.26392         0.43001 
        4.85379         5.21364        0.426479 
         4.8695         5.19645        0.422984 
        4.88521         5.16426        0.419529 
        4.90093         5.11454        0.416113 
        4.91663         5.08118        0.412738 
        4.93234         5.05828        0.409396 
        4.94807         5.02037        0.406089 
        4.96377         4.98633        0.402825 
        4.97943         4.95183        0.399604 
        4.99514         4.91179         0.39641 
        5.01086         4.89004        0.393248 
        5.02654         4.86065        0.390128 
        5.04227          4.8247        0.387033 
          5.058         4.78126        0.383971 
        5.07371         4.75574        0.380947 
        5.08942         4.72676        0.377956 
        5.10513         4.69453        0.374996 
        5.12084         4.66629        0.372067 
        5.13656         4.62536        0.369169 
        5.15225         4.59764        0.366307 
        5.16796         4.57428        0.363471 
        5.18369         4.53332        0.360663 
         5.1994          4.5011        0.357889 
        5.21509          4.4816        0.355146 
        5.23079           4.451         0.35243 
        5.24649         4.42272        0.349743 
        5.26217         4.38619        0.347087 
        5.27788         4.36863        0.344454 
        5.29359          4.3378        0.341848 
        5.30933         4.31188        0.339266 
        5.32504         4.28339        0.336714 
        5.34073         4.25947        0.334192 
        5.35646          4.2333         0.33169 
        5.37218         4.19471        0.329213 
        5.38789         4.17577        0.326766 
        5.40357          4.1486        0.324346 
        5.41929         4.11922        0.321945 
        5.43502         4.09154        0.319568 
         5.4507         4.07196        0.317221 
        5.46639         4.03796        0.314898 
        5.48212         4.02434        0.312592 
        5.49786         3.99017        0.310306 
        5.51353         3.96623        0.308055 
        5.52921         3.94922        0.305823 
        5.54495          3.9173        0.303607 
        5.56066         3.89631        0.301416 
        5.57637         3.86842        0.299246 
        5.59207         3.84048          0.2971 
        5.60778         3.83006        0.294974 
        5.62346         3.80315        0.292871 
        5.63916         3.77398        0.290788 
        5.65487         3.75179        0.288723 
         5.6706         3.73045        0.286676 
        5.68633         3.70954        0.284648 
        5.70203         3.68349        0.282643 
        5.71773         3.66298        0.280659 
        5.73344         3.64057        0.278692 
        5.74916          3.6171        0.276743 
        5.76486         3.59506        0.274814 
        5.78054         3.57362        0.272907 
        5.79626          3.5507        0.271013 
          5.812         3.52532        0.269135 
         5.8277         3.50227         0.26728 
        5.84339         3.49449        0.265443 
        5.85911         3.46922        0.263619 
        5.87484         3.44533        0.261813 
        5.89053         3.42279        0.260027 
        5.90623         3.40868        0.258257 
        5.92195         3.38633        0.256501 
        5.93767         3.36386        0.254761 
        5.95336         3.34649        0.253041 
        5.96905         3.32312        0.251337 
        5.98476         3.30963        0.249647 
        6.00048         3.28268        0.247971 
        6.01617         3.26552        0.246314 
        6.03185         3.25383        0.244673 
        6.04756         3.22544        0.243043 
        6.06331         3.20914        0.241425 
        6.07903         3.18864        0.239825 
        6.09473         3.17127         0.23824 
        6.11044         3.14822        0.236669 
        6.12616         3.13722        0.235112 
        6.14186         3.12063        0.233571 
        6.15755         3.10145        0.232043 
        6.17326         3.08164        0.230528 
        6.18898         3.05865        0.229026 
        6.20467         3.04432         0.22754 
        6.22036         3.02738        0.226067 
         6.2361         3.01082        0.224603 
         6.2518         2.99292        0.223154 
        6.26748         2.97651        0.221722 
        6.28319         2.95841        0.220298 
        6.29893         2.94582        0.218885 
        6.31463         2.93112        0.217487 
        6.33033         2.91525        0.216102 
        6.34604         2.89345        0.214728 
        6.36177         2.88142        0.213364 
        6.37747         2.85924        0.212015 
