# k  (h/Mpc)    Pcb(k)  (Mpc/h)^3    Pcb_linear(k) (Mpc/h)^3   ShotnoiseSubtracted = true
      0.0200456         10739.5         10943.5 
      0.0350414         7724.24         7955.56 
      0.0492313         5732.68         5780.36 
      0.0637834          4898.2         4805.16 
      0.0800726         3876.38         3813.74 
       0.096163         2710.82          2767.2 
       0.111083         2155.93         2207.19 
       0.126058          1985.3         1956.02 
       0.142273         1714.51         1657.18 
       0.158546         1431.16         1308.82 
        0.17375         1149.24         1102.68 
       0.188953          1107.3         998.453 
       0.204907         1039.42         883.428 
       0.220756         882.441         747.433 
        0.23588         776.396         650.202 
         0.2514         678.604         590.702 
       0.267535         659.597         534.484 
       0.283568         597.889         471.343 
       0.299022         556.767         419.942 
       0.314451         521.849         383.799 
       0.330372         481.474         352.092 
       0.346141         436.575         319.577 
       0.361624         419.586         290.452 
       0.377134          390.58         267.262 
       0.392932          369.18         247.292 
       0.408854         354.151         227.956 
       0.424564         337.006          210.11 
       0.440253         324.781         194.796 
       0.455999         305.559          181.48 
       0.471626         284.688         169.243 
        0.48727         276.387         157.796 
       0.502856         267.015         147.513 
       0.518488         263.596         138.337 
       0.534347         248.347         129.807 
       0.550082         233.093         121.942 
       0.565732         229.111         114.746 
       0.581496         217.562         108.156 
       0.597222          212.15         102.112 
       0.612804         204.375         96.5545 
       0.628434         197.557         91.3744 
       0.644267         191.071         86.5314 
       0.660051          188.74         82.0679 
       0.675724          184.39         77.9463 
       0.691403         179.044         74.1043 
       0.707174         171.467         70.4997 
       0.722871          169.98         67.1491 
        0.73838         166.236         64.0521 
       0.754018         161.079         61.1271 
       0.769845         156.593          58.353 
        0.78569         154.299         55.7487 
       0.801365         149.817         53.3292 
       0.817031         144.825         51.0556 
       0.832809         142.786         48.9007 
       0.848511         139.164         46.8805 
       0.864097         136.622         44.9888 
       0.879701         133.753         43.2002 
       0.895507         130.444         41.4882 
       0.911279          128.04          39.873 
        0.92691         126.598         38.3575 
       0.942635         123.452         36.9128 
       0.958396         123.153         35.5397 
       0.974128         119.653         34.2394 
       0.989692          116.72         33.0171 
        1.00528          114.47          31.853 
        1.02113         113.705         30.7271 
        1.03692          109.39         29.6599 
        1.05264          108.93         28.6485 
        1.06832         106.362         27.6861 
        1.08405         104.961         26.7655 
        1.09979         104.412         25.8863 
        1.11537          100.91         25.0556 
        1.13105         100.741         24.2564 
        1.14679         99.5436         23.4892 
        1.16256         98.0896         22.7538 
        1.17828         95.5553         22.0524 
        1.19395         94.4458         21.3831 
         1.2097         92.2942         20.7382 
        1.22537         92.3848         20.1231 
          1.241         90.2034         19.5349 
        1.25666         88.4066         18.9689 
        1.27241         87.3359         18.4227 
        1.28819         85.9555         17.8971 
        1.30392         84.9222         17.3937 
        1.31957          83.699         16.9119 
        1.33529          82.229         16.4467 
        1.35108          81.455         15.9972 
        1.36674         80.5134         15.5677 
         1.3824         79.0197         15.1545 
        1.39811         78.1968         14.7549 
        1.41389         77.0333         14.3682 
        1.42964          76.138         13.9961 
        1.44531         74.5432          13.639 
        1.46101         73.6171         13.2937 
        1.47667         73.4738         12.9614 
        1.49229         71.9999         12.6413 
        1.50793         71.5136         12.3318 
        1.52367         70.3341         12.0306 
        1.53953         69.3461         11.7375 
        1.55526         68.6872         11.4565 
        1.57092         68.4419         11.1859 
        1.58662         66.9588         10.9234 
        1.60235         66.4564         10.6689 
        1.61809         65.5491         10.4223 
        1.63369         64.5356         10.1858 
        1.64941         63.9389         9.95492 
        1.66519         62.7249         9.73038 
        1.68085         62.2964         9.51438 
        1.69652         61.2484         9.30488 
        1.71228         60.9059         9.10052 
        1.72806         60.2585         8.90214 
        1.74368         59.4482         8.71168 
        1.75933         58.7693         8.52643 
        1.77505         58.1869          8.3457 
        1.79081         57.4107         8.16991 
         1.8065         56.9103         7.99993 
        1.82218         56.0982         7.83496 
        1.83797         55.4987         7.67351 
        1.85367         54.8637         7.51751 
        1.86928         54.3237          7.3668 
        1.88497         53.6849          7.2194 
        1.90073         53.0048         7.07549 
        1.91647         52.6468         6.93565 
        1.93218         51.9778         6.79988 
        1.94787         51.4271         6.66796 
        1.96363         50.7363         6.53902 
        1.97935         50.3243         6.41375 
        1.99499         49.6066         6.29249 
        2.01064         49.4335         6.17418 
         2.0264         48.2536         6.05818 
        2.04216         48.0269         5.94522 
        2.05781          47.409         5.83586 
        2.07353         46.9299         5.72886 
        2.08928          46.408         5.62432 
        2.10499         46.0081         5.52266 
        2.12065         45.4365         5.42383 
        2.13633         45.2458         5.32733 
        2.15211         44.7878         5.23256 
        2.16785         43.9122         5.14037 
        2.18349         43.6591         5.05097 
        2.19916         43.2613         4.96352 
        2.21489         42.7849         4.87785 
        2.23063         42.1513         4.79415 
         2.2463         41.7411         4.71278 
        2.26194         41.1395         4.63351 
        2.27765         40.7317         4.55566 
        2.29341         40.2717          4.4794 
        2.30914         39.8408         4.40504 
        2.32486          39.327         4.33242 
        2.34061         39.0583         4.26131 
        2.35635         38.6427         4.19186 
        2.37203         38.2008          4.1242 
        2.38768         37.8169         4.05818 
        2.40339         37.5938         3.99336 
        2.41914         37.2215         3.92981 
        2.43483         36.5831         3.86787 
         2.4505         36.3457         3.80736 
        2.46622              36         3.74795 
        2.48195         35.6761          3.6898 
        2.49759         35.2353         3.63319 
        2.51328         34.7628         3.57763 
        2.52906         34.5821         3.52287 
        2.54479         34.0193         3.46947 
        2.56049           33.75         3.41728 
        2.57618           33.42         3.36621 
        2.59189         33.1487          3.3161 
        2.60758         32.8918          3.2671 
        2.62325         32.4247         3.21914 
        2.63898         32.1676         3.17198 
        2.65468         31.7987         3.12587 
        2.67044         31.4878         3.08047 
        2.68618         31.2094         3.03609 
        2.70184         30.8372         2.99275 
        2.71755         30.6971         2.95015 
        2.73329         30.3318         2.90832 
        2.74897         29.9842         2.86743 
        2.76462          29.617         2.82742 
        2.78034         29.4982         2.78801 
        2.79607         29.1607         2.74931 
        2.81179         28.9132         2.71139 
        2.82749         28.6406         2.67422 
        2.84321         28.1734         2.63772 
        2.85893         27.9644          2.6019 
        2.87462          27.712         2.56681 
        2.89033         27.4529         2.53234 
        2.90605         27.2756         2.49847 
        2.92176         27.1095         2.46523 
        2.93747         26.7195         2.43262 
        2.95318          26.352         2.40059 
        2.96891         26.2115         2.36912 
        2.98456          25.854         2.33836 
        3.00023          25.641          2.3081 
        3.01596         25.3712         2.27828 
        3.03164         25.1782         2.24907 
        3.04738         24.9841         2.22029 
         3.0631         24.7278         2.19202 
        3.07883         24.4946         2.16424 
        3.09456         24.1878         2.13695 
        3.11026         23.9835         2.11017 
        3.12596         23.8083         2.08385 
        3.14163         23.5831         2.05805 
        3.15734         23.3628         2.03262 
        3.17308         23.1309         2.00755 
        3.18879         22.9452         1.98298 
        3.20447         22.7003         1.95886 
         3.2202         22.4855         1.93506 
         3.2359           22.22          1.9117 
        3.25157         22.2112         1.88878 
        3.26729          21.901         1.86617 
        3.28304         21.7049         1.84388 
        3.29877         21.4131         1.82199 
        3.31446         21.2476          1.8005 
        3.33014         21.0535         1.77937 
        3.34585         20.8976         1.75856 
        3.36158         20.6727         1.73804 
        3.37727         20.4666         1.71791 
        3.39294         20.3284         1.69813 
        3.40867         20.1342         1.67858 
        3.42439         19.9648         1.65935 
        3.44008         19.7736         1.64046 
        3.45578         19.5789         1.62185 
        3.47153         19.3715         1.60349 
        3.48724         19.2182         1.58544 
        3.50292         19.0974         1.56771 
        3.51859         18.8827         1.55027 
        3.53431         18.7077         1.53303 
        3.55007         18.5291         1.51602 
        3.56577         18.3336         1.49933 
        3.58146         18.2241         1.48289 
        3.59719         18.0303         1.46667 
        3.61292         17.8767         1.45069 
        3.62859         17.7354         1.43502 
        3.64429         17.5824         1.41954 
        3.66003         17.4416         1.40424 
        3.67578         17.2433         1.38918 
        3.69146         17.1509         1.37439 
        3.70712         16.9536         1.35985 
        3.72284         16.8995         1.34546 
        3.73853         16.6769         1.33131 
        3.75422         16.4693         1.31735 
        3.76993         16.3793         1.30358 
        3.78564         16.2348         1.29001 
        3.80137         16.0593         1.27662 
        3.81707         15.9208         1.26344 
        3.83279         15.8058         1.25044 
        3.84853         15.6373          1.2376 
        3.86424         15.5444         1.22497 
        3.87992         15.3922         1.21253 
        3.89561         15.2261         1.20026 
        3.91134         15.1434         1.18814 
        3.92704         14.9916         1.17619 
        3.94273         14.8882         1.16443 
        3.95845         14.7113          1.1528 
        3.97418         14.6384         1.14133 
        3.98988         14.4714         1.13003 
        4.00554          14.384         1.11892 
        4.02125         14.2498         1.10792 
        4.03698         14.1778         1.09705 
        4.05268         13.9978         1.08636 
        4.06839         13.8807          1.0758 
         4.0841         13.7799         1.06538 
        4.09983         13.6267         1.05508 
        4.11555         13.5188         1.04493 
        4.13124         13.4256         1.03494 
        4.14693         13.3175         1.02506 
        4.16266         13.2021          1.0153 
        4.17839         13.0788         1.00567 
        4.19408         12.9663        0.996181 
        4.20977         12.8971        0.986814 
        4.22551         12.7522        0.977545 
        4.24123         12.6708        0.968404 
        4.25691         12.5541        0.959405 
        4.27259         12.4498        0.950518 
        4.28831          12.324        0.941725 
        4.30404          12.242        0.933035 
        4.31974          12.126        0.924473 
        4.33543         12.0509        0.916024 
        4.35116         11.9556         0.90766 
        4.36688         11.8247        0.899403 
        4.38255         11.7388         0.89128 
        4.39825         11.6477         0.88324 
        4.41398         11.6016        0.875282 
         4.4297         11.4591        0.867432 
        4.44541         11.3535        0.859679 
        4.46111         11.2809        0.852026 
        4.47683         11.2026        0.844461 
        4.49251         11.1059        0.837003 
        4.50819         11.0365        0.829637 
         4.5239         10.9356         0.82235 
        4.53962         10.8547         0.81514 
        4.55535         10.7563        0.808014 
        4.57106         10.6565        0.800983 
        4.58678         10.5638        0.794033 
         4.6025         10.5041        0.787165 
        4.61821         10.4164        0.780379 
        4.63391         10.3215        0.773682 
         4.6496         10.2516        0.767066 
        4.66532         10.1576        0.760517 
        4.68103          10.097        0.754048 
        4.69673         10.0056         0.74766 
        4.71241         9.91103        0.741352 
        4.72811         9.82916        0.735106 
        4.74384         9.78843        0.728925 
        4.75955         9.69545        0.722824 
        4.77525         9.60762        0.716796 
        4.79096         9.57079        0.710829 
        4.80669         9.48033        0.704928 
         4.8224         9.41906          0.6991 
        4.83809         9.33722        0.693344 
        4.85379         9.26567        0.687649 
         4.8695         9.21166        0.682014 
        4.88521         9.12489        0.676444 
        4.90093         9.04616        0.670936 
        4.91663         8.99325        0.665493 
        4.93234         8.93941        0.660105 
        4.94807         8.84212        0.654774 
        4.96377         8.77265        0.649511 
        4.97943         8.72723        0.644317 
        4.99514         8.66816        0.639166 
        5.01086         8.59521        0.634068 
        5.02654         8.52713        0.629038 
        5.04227         8.48027        0.624048 
          5.058         8.38476         0.61911 
        5.07371          8.3406        0.614235 
        5.08942         8.29198        0.609412 
        5.10513          8.2162         0.60464 
        5.12084         8.15037        0.599916 
        5.13656         8.11146        0.595244 
        5.15225         8.04542         0.59063 
        5.16796         7.98748        0.586057 
        5.18369          7.9343        0.581528 
         5.1994         7.83371        0.577056 
        5.21509         7.81151        0.572634 
        5.23079         7.75014        0.568253 
        5.24649         7.69672        0.563922 
        5.26217         7.62893        0.559639 
        5.27788         7.58238        0.555394 
        5.29359         7.52152        0.551193 
        5.30933         7.46769        0.547028 
        5.32504         7.41511        0.542914 
        5.34073         7.37758        0.538847 
        5.35646         7.30231        0.534813 
        5.37218         7.27228        0.530819 
        5.38789         7.20715        0.526873 
        5.40357         7.16476        0.522971 
        5.41929         7.10864        0.519101 
        5.43502         7.05794        0.515269 
         5.4507         7.02163        0.511484 
        5.46639         6.98258        0.507737 
        5.48212         6.92429        0.504019 
        5.49786         6.88162        0.500334 
        5.51353         6.81249        0.496704 
        5.52921         6.77252        0.493106 
        5.54495         6.73114        0.489533 
        5.56066         6.68305        0.485999 
        5.57637         6.61423        0.482501 
        5.59207          6.5918         0.47904 
        5.60778         6.52201        0.475612 
        5.62346         6.49192        0.472222 
        5.63916         6.44849        0.468862 
        5.65487         6.41181        0.465533 
         5.6706         6.35313        0.462233 
        5.68633         6.31196        0.458963 
        5.70203         6.27601        0.455731 
        5.71773         6.23922        0.452531 
        5.73344         6.18789         0.44936 
        5.74916         6.15279        0.446217 
        5.76486         6.11583        0.443108 
        5.78054         6.07215        0.440033 
        5.79626          6.0279        0.436979 
          5.812         5.98641         0.43395 
         5.8277         5.94867        0.430959 
        5.84339         5.89847        0.427997 
        5.85911         5.87305        0.425056 
        5.87484         5.82813        0.422144 
        5.89053         5.78495        0.419265 
        5.90623         5.74791        0.416411 
        5.92195         5.69667        0.413579 
        5.93767         5.67415        0.410774 
        5.95336         5.62983        0.408001 
        5.96905         5.60974        0.405253 
        5.98476         5.56414        0.402528 
        6.00048         5.53288        0.399826 
        6.01617         5.49935        0.397153 
        6.03185          5.4668        0.394508 
        6.04756          5.4224         0.39188 
        6.06331           5.384        0.389271 
        6.07903         5.35696         0.38669 
        6.09473         5.31146        0.384136 
        6.11044          5.2779        0.381602 
        6.12616         5.25756        0.379092 
        6.14186         5.21835        0.376606 
        6.15755         5.17903        0.374143 
        6.17326         5.14711        0.371701 
        6.18898         5.11346        0.369278 
        6.20467         5.08725        0.366882 
        6.22036         5.05174        0.364507 
         6.2361         5.02317        0.362147 
         6.2518          4.9879        0.359811 
        6.26748         4.96206        0.357502 
        6.28319         4.92328        0.355206 
        6.29893         4.89884        0.352928 
        6.31463          4.8719        0.350674 
        6.33033         4.83235         0.34844 
        6.34604         4.81185        0.346225 
        6.36177         4.77913        0.344026 
        6.37747         4.74472        0.341851 
