# k  (h/Mpc)    Pcb(k)  (Mpc/h)^3    Pcb_linear(k) (Mpc/h)^3   ShotnoiseSubtracted = true
      0.0200456         23254.5         23822.3 
      0.0350414         16484.5           17318 
      0.0492313         12292.4         12582.9 
      0.0637834         10660.8         10460.1 
      0.0800726         8407.83          8301.9 
       0.096163         5823.86         6023.75 
       0.111083         4692.06          4804.7 
       0.126058         4316.97         4257.94 
       0.142273         3739.68         3607.41 
       0.158546         3293.76          2849.1 
        0.17375         2638.17         2400.36 
       0.188953         2582.68         2173.48 
       0.204907         2426.29         1923.08 
       0.220756          2107.5         1627.04 
        0.23588         1888.93         1415.39 
         0.2514         1646.77         1285.87 
       0.267535         1649.71         1163.49 
       0.283568          1496.2         1026.04 
       0.299022         1418.02         914.148 
       0.314451         1351.56         835.469 
       0.330372         1238.66         766.449 
       0.346141          1195.2          695.67 
       0.361624          1148.7         632.268 
       0.377134         1071.27         581.787 
       0.392932         1026.62         538.316 
       0.408854         1010.35         496.223 
       0.424564         932.368         457.376 
       0.440253         915.322         424.041 
       0.455999         888.055         395.054 
       0.471626           856.2         368.416 
        0.48727         821.045         343.497 
       0.502856         796.745         321.112 
       0.518488         790.536         301.138 
       0.534347         741.888         282.569 
       0.550082         725.746         265.448 
       0.565732         720.406         249.784 
       0.581496          682.31         235.439 
       0.597222         667.985         222.282 
       0.612804         657.341         210.184 
       0.628434         639.234         198.908 
       0.644267         622.724         188.365 
       0.660051         605.869         178.649 
       0.675724         599.106         169.677 
       0.691403          579.76         161.313 
       0.707174         561.009         153.467 
       0.722871         553.523         146.173 
        0.73838         543.039         139.431 
       0.754018          532.48         133.064 
       0.769845         523.323         127.025 
        0.78569         513.349         121.356 
       0.801365         500.374         116.089 
       0.817031         488.052          111.14 
       0.832809         483.429         106.449 
       0.848511         472.984         102.051 
       0.864097         458.292         97.9335 
       0.879701         452.236         94.0401 
       0.895507         450.281         90.3133 
       0.911279         437.978         86.7972 
        0.92691         431.753         83.4982 
       0.942635         420.594         80.3533 
       0.958396         410.148         77.3644 
       0.974128         404.738         74.5337 
       0.989692          402.43         71.8731 
        1.00528         390.333         69.3391 
        1.02113         388.524          66.888 
        1.03692         377.615         64.5649 
        1.05264         374.734         62.3633 
        1.06832         364.467         60.2682 
        1.08405         360.095         58.2642 
        1.09979         354.436         56.3505 
        1.11537         347.622          54.542 
        1.13105         342.298         52.8024 
        1.14679         333.071         51.1323 
        1.16256         326.689         49.5314 
        1.17828          326.41         48.0046 
        1.19395          318.42         46.5475 
         1.2097         312.576         45.1438 
        1.22537         306.564         43.8049 
          1.241         303.149         42.5245 
        1.25666         298.718         41.2923 
        1.27241         294.013         40.1033 
        1.28819         289.057         38.9593 
        1.30392         282.944         37.8634 
        1.31957         281.528         36.8146 
        1.33529         276.725         35.8018 
        1.35108         270.772         34.8233 
        1.36674           266.2         33.8885 
         1.3824         264.513         32.9889 
        1.39811         259.792         32.1191 
        1.41389          256.94         31.2774 
        1.42964         253.802         30.4673 
        1.44531         249.973         29.6901 
        1.46101         245.167         28.9383 
        1.47667         242.402         28.2149 
        1.49229         239.641         27.5182 
        1.50793         233.584         26.8443 
        1.52367         232.434         26.1887 
        1.53953         228.543         25.5506 
        1.55526         224.465          24.939 
        1.57092         222.505           24.35 
        1.58662         219.968         23.7786 
        1.60235         215.956         23.2245 
        1.61809         213.502         22.6878 
        1.63369         210.803         22.1729 
        1.64941          206.65         21.6703 
        1.66519          204.95         21.1815 
        1.68085         202.079         20.7113 
        1.69652         199.083         20.2553 
        1.71228         194.344         19.8104 
        1.72806         192.556         19.3786 
        1.74368         189.686          18.964 
        1.75933         186.796         18.5607 
        1.77505         185.496         18.1673 
        1.79081         183.307         17.7846 
         1.8065          179.65         17.4146 
        1.82218         177.945         17.0555 
        1.83797         176.466          16.704 
        1.85367         173.418         16.3644 
        1.86928         170.479         16.0364 
        1.88497         168.466         15.7155 
        1.90073         166.451         15.4022 
        1.91647         165.152         15.0978 
        1.93218         162.677         14.8023 
        1.94787         158.957         14.5151 
        1.96363         157.049         14.2344 
        1.97935         156.132         13.9617 
        1.99499         153.727         13.6977 
        2.01064          151.79         13.4402 
         2.0264         150.383         13.1877 
        2.04216         148.218         12.9418 
        2.05781          146.27         12.7037 
        2.07353         144.799         12.4708 
        2.08928         142.293         12.2432 
        2.10499         141.019          12.022 
        2.12065         138.606         11.8068 
        2.13633         136.999         11.5968 
        2.15211         134.891         11.3905 
        2.16785         133.682         11.1898 
        2.18349         132.371         10.9952 
        2.19916         130.395         10.8048 
        2.21489         129.258         10.6183 
        2.23063         126.954         10.4361 
         2.2463         125.518          10.259 
        2.26194          123.58         10.0864 
        2.27765         122.495         9.91696 
        2.29341         121.067         9.75095 
        2.30914         119.824         9.58908 
        2.32486         117.932         9.43099 
        2.34061         116.634         9.27619 
        2.35635         115.188         9.12502 
        2.37203         114.053         8.97773 
        2.38768         112.265         8.83401 
        2.40339         111.178         8.69291 
        2.41914         109.664         8.55457 
        2.43483         108.469         8.41974 
         2.4505         107.339         8.28803 
        2.46622         106.107         8.15869 
        2.48195         104.481         8.03211 
        2.49759         103.305         7.90889 
        2.51328         102.601         7.78793 
        2.52906         101.111         7.66874 
        2.54479         100.098         7.55249 
        2.56049         98.7271         7.43888 
        2.57618         97.8121         7.32771 
        2.59189         96.8261         7.21864 
        2.60758         95.5882         7.11196 
        2.62325         94.1631         7.00757 
        2.63898         93.0705         6.90491 
        2.65468         92.0693         6.80452 
        2.67044         91.3922         6.70571 
        2.68618         90.2846         6.60908 
        2.70184         89.5766         6.51474 
        2.71755         88.0222         6.42201 
        2.73329         87.3532         6.33095 
        2.74897         86.4235         6.24194 
        2.76462         85.2586         6.15485 
        2.78034         84.5001         6.06906 
        2.79607         83.1427         5.98481 
        2.81179         82.4046         5.90226 
        2.82749         81.5781         5.82136 
        2.84321         80.6714         5.74189 
        2.85893         79.8694         5.66393 
        2.87462         78.9554         5.58754 
        2.89033         77.9395          5.5125 
        2.90605         77.1001         5.43876 
        2.92176         76.1401         5.36642 
        2.93747         75.6382         5.29543 
        2.95318         74.5545         5.22571 
        2.96891         74.0615         5.15721 
        2.98456          73.252         5.09024 
        3.00023          72.377         5.02436 
        3.01596         71.4206         4.95945 
        3.03164         70.8415         4.89587 
        3.04738         69.8677         4.83321 
         3.0631         69.1497         4.77168 
        3.07883         68.7171         4.71121 
        3.09456         68.1605          4.6518 
        3.11026         67.1868         4.59351 
        3.12596         66.3764         4.53622 
        3.14163         65.9887         4.48004 
        3.15734         64.9432         4.42468 
        3.17308         64.3146         4.37013 
        3.18879         63.8222         4.31664 
        3.20447         63.0455         4.26412 
         3.2202         62.5482         4.21232 
         3.2359         61.7286         4.16147 
        3.25157         61.1858         4.11158 
        3.26729         60.6449         4.06236 
        3.28304         60.1555         4.01384 
        3.29877         59.4565         3.96618 
        3.31446         58.5485          3.9194 
        3.33014         58.2902         3.87342 
        3.34585         57.4572          3.8281 
        3.36158         57.0701         3.78344 
        3.37727         56.6079         3.73963 
        3.39294         55.7286         3.69656 
        3.40867         55.3318           3.654 
        3.42439         54.8666         3.61215 
        3.44008          54.223         3.57102 
        3.45578         53.6464         3.53051 
        3.47153         53.1308         3.49054 
        3.48724         52.7179         3.45126 
        3.50292         52.3137         3.41267 
        3.51859         51.6593         3.37469 
        3.53431         51.3472         3.33717 
        3.55007         50.7419         3.30013 
        3.56577         50.3817          3.2638 
        3.58146         49.8122         3.22802 
        3.59719         49.2053         3.19271 
        3.61292          48.796         3.15793 
        3.62859         48.2845          3.1238 
        3.64429          47.822         3.09011 
        3.66003         47.5068         3.05682 
        3.67578         46.9906         3.02403 
        3.69146          46.512         2.99184 
        3.70712         46.0009         2.96018 
        3.72284         45.6503         2.92886 
        3.73853         45.1883         2.89804 
        3.75422         44.7005         2.86766 
        3.76993         44.2261         2.83769 
        3.78564         43.8941         2.80816 
        3.80137         43.4908           2.779 
        3.81707         43.0217         2.75031 
        3.83279         42.6466         2.72201 
        3.84853          42.404         2.69406 
        3.86424         41.8739         2.66656 
        3.87992         41.4851         2.63948 
        3.89561         41.1825         2.61277 
        3.91134         40.7226         2.58638 
        3.92704         40.3098         2.56039 
        3.94273         39.9672         2.53478 
        3.95845          39.748         2.50947 
        3.97418         39.3591          2.4845 
        3.98988         39.0291          2.4599 
        4.00554         38.6389         2.43571 
        4.02125         38.3385         2.41177 
        4.03698         37.9038         2.38811 
        4.05268         37.6527         2.36483 
        4.06839         37.2744         2.34184 
         4.0841         36.9345         2.31916 
        4.09983         36.6616         2.29675 
        4.11555         36.3403         2.27464 
        4.13124         36.0626         2.25289 
        4.14693         35.7407          2.2314 
        4.16266         35.4261         2.21015 
        4.17839         35.0275         2.18918 
        4.19408         34.7286         2.16853 
        4.20977         34.4832         2.14814 
        4.22551         34.1632         2.12796 
        4.24123         33.9012         2.10806 
        4.25691         33.6015         2.08847 
        4.27259         33.2782         2.06913 
        4.28831         32.9951         2.04999 
        4.30404         32.7401         2.03107 
        4.31974         32.4651         2.01243 
        4.33543         32.0886         1.99404 
        4.35116         31.9388         1.97583 
        4.36688          31.617         1.95786 
        4.38255         31.3436         1.94018 
        4.39825         31.1405         1.92267 
        4.41398         30.8992         1.90535 
         4.4297         30.5593         1.88826 
        4.44541         30.3692         1.87138 
        4.46111         30.0395         1.85473 
        4.47683         29.8126         1.83826 
        4.49251         29.5394         1.82202 
        4.50819         29.3496         1.80599 
         4.5239         29.1427         1.79013 
        4.53962          28.854         1.77443 
        4.55535         28.6521         1.75892 
        4.57106         28.3851         1.74361 
        4.58678          28.224         1.72849 
         4.6025         27.8755         1.71353 
        4.61821         27.7419         1.69876 
        4.63391         27.4771         1.68418 
         4.6496         27.2393         1.66978 
        4.66532           27.03         1.65553 
        4.68103          26.814         1.64144 
        4.69673          26.598         1.62754 
        4.71241         26.4569         1.61381 
        4.72811         26.1661         1.60021 
        4.74384         26.0387         1.58675 
        4.75955         25.7377         1.57347 
        4.77525         25.5721         1.56035 
        4.79096         25.3841         1.54736 
        4.80669          25.133         1.53452 
         4.8224         24.9628         1.52183 
        4.83809         24.8164          1.5093 
        4.85379         24.5873          1.4969 
         4.8695         24.3573         1.48464 
        4.88521         24.1598         1.47251 
        4.90093         23.9498         1.46052 
        4.91663         23.7538         1.44867 
        4.93234         23.5614         1.43695 
        4.94807         23.4656         1.42534 
        4.96377         23.2488         1.41388 
        4.97943         23.0021         1.40258 
        4.99514         22.8893         1.39136 
        5.01086         22.7246         1.38027 
        5.02654         22.5153         1.36932 
        5.04227         22.3626         1.35845 
          5.058         22.2123         1.34771 
        5.07371         22.0312         1.33709 
        5.08942         21.7958         1.32659 
        5.10513         21.6975         1.31621 
        5.12084         21.5522         1.30592 
        5.13656         21.3973         1.29575 
        5.15225         21.1918         1.28571 
        5.16796         21.0269         1.27575 
        5.18369         20.8345          1.2659 
         5.1994         20.6994         1.25616 
        5.21509          20.561         1.24653 
        5.23079         20.4036           1.237 
        5.24649         20.2983         1.22757 
        5.26217         20.1184         1.21825 
        5.27788         19.9905         1.20901 
        5.29359         19.8268         1.19986 
        5.30933         19.5956         1.19079 
        5.32504          19.507         1.18184 
        5.34073         19.3816         1.17298 
        5.35646         19.2277          1.1642 
        5.37218         19.0696         1.15551 
        5.38789         18.9442         1.14692 
        5.40357         18.8217         1.13843 
        5.41929         18.6122            1.13 
        5.43502         18.5598         1.12166 
         5.4507         18.3583         1.11342 
        5.46639         18.2459         1.10526 
        5.48212         18.1345         1.09717 
        5.49786         17.9695         1.08915 
        5.51353         17.8381         1.08125 
        5.52921         17.7254         1.07341 
        5.54495         17.5958         1.06564 
        5.56066         17.4702         1.05794 
        5.57637         17.3302         1.05033 
        5.59207         17.1989          1.0428 
        5.60778         17.0385         1.03533 
        5.62346         16.9573         1.02795 
        5.63916         16.8579         1.02064 
        5.65487         16.7453         1.01339 
         5.6706         16.6124         1.00621 
        5.68633         16.4947        0.999089 
        5.70203         16.3389        0.992055 
        5.71773         16.2855        0.985089 
        5.73344          16.136        0.978186 
        5.74916         16.0282        0.971344 
        5.76486         15.9355        0.964575 
        5.78054         15.8062        0.957882 
        5.79626         15.6698        0.951233 
          5.812         15.6143        0.944641 
         5.8277         15.4451        0.938131 
        5.84339          15.355        0.931682 
        5.85911         15.2794        0.925281 
        5.87484         15.1413        0.918941 
        5.89053         15.0258        0.912673 
        5.90623           14.95        0.906461 
        5.92195         14.8417        0.900295 
        5.93767         14.7258        0.894191 
        5.95336         14.6364        0.888153 
        5.96905         14.5312        0.882173 
        5.98476         14.4337         0.87624 
        6.00048         14.3216        0.870359 
        6.01617         14.2533         0.86454 
        6.03185         14.1221        0.858781 
        6.04756         14.0259        0.853061 
        6.06331         13.9449        0.847381 
        6.07903         13.8514        0.841764 
        6.09473         13.7563        0.836203 
        6.11044         13.6415        0.830688 
        6.12616         13.5565        0.825223 
        6.14186         13.4331        0.819813 
        6.15755         13.3617        0.814451 
        6.17326         13.2895        0.809134 
        6.18898         13.2139        0.803861 
        6.20467          13.121        0.798645 
        6.22036         13.0256        0.793475 
         6.2361         12.9272        0.788337 
         6.2518         12.8451        0.783253 
        6.26748         12.7579        0.778225 
        6.28319         12.6749        0.773227 
        6.29893         12.5814        0.768268 
        6.31463            12.5        0.763362 
        6.33033          12.453          0.7585 
        6.34604         12.3531        0.753676 
        6.36177         12.2544        0.748891 
        6.37747         12.1884        0.744155 
