# k  (h/Mpc)    Pcb(k)  (Mpc/h)^3    Pcb_linear(k) (Mpc/h)^3   ShotnoiseSubtracted = true
      0.0200456         19526.7           19973 
      0.0350414         13894.7         14519.7 
      0.0492313         10350.7         10549.7 
      0.0637834         8942.13         8769.88 
      0.0800726         7059.14         6960.44 
       0.096163         4898.31          5050.4 
       0.111083         3928.47         4028.33 
       0.126058          3620.2         3569.92 
       0.142273         3133.97         3024.51 
       0.158546         2721.73         2388.73 
        0.17375         2175.84          2012.5 
       0.188953         2124.62         1822.27 
       0.204907         1996.94         1612.34 
       0.220756         1726.01         1364.14 
        0.23588         1537.98         1186.68 
         0.2514         1337.81         1078.09 
       0.267535         1334.05         975.485 
       0.283568         1209.37         860.247 
       0.299022         1141.76         766.436 
       0.314451         1087.78          700.47 
       0.330372         999.493         642.603 
       0.346141         945.801          583.26 
       0.361624         908.998         530.103 
       0.377134         845.085         487.779 
       0.392932         812.582         451.332 
       0.408854         793.223         416.041 
       0.424564         736.596         383.471 
       0.440253         724.223         355.522 
       0.455999         692.471         331.219 
       0.471626         664.766         308.885 
        0.48727         637.982         287.993 
       0.502856         620.819         269.225 
       0.518488         613.728         252.478 
       0.534347         574.195          236.91 
       0.550082         556.569         222.556 
       0.565732         555.462         209.423 
       0.581496         523.019         197.395 
       0.597222         514.258         186.364 
       0.612804         502.684         176.221 
       0.628434         487.068         166.767 
       0.644267         474.299         157.928 
       0.660051         459.362         149.782 
       0.675724         455.221          142.26 
       0.691403         440.065         135.248 
       0.707174          425.35         128.669 
       0.722871         420.618         122.554 
        0.73838         413.729         116.901 
       0.754018         402.737         111.563 
       0.769845         393.951           106.5 
        0.78569         389.112         101.747 
       0.801365         378.255         97.3311 
       0.817031         366.508         93.1815 
       0.832809         364.266         89.2486 
       0.848511         355.306         85.5615 
       0.864097         346.578          82.109 
       0.879701         341.997         78.8446 
       0.895507         337.773           75.72 
       0.911279         326.972         72.7721 
        0.92691         323.524         70.0062 
       0.942635         316.046         67.3694 
       0.958396         309.071         64.8635 
       0.974128         303.989         62.4902 
       0.989692         300.685         60.2595 
        1.00528         294.244         58.1349 
        1.02113         292.113         56.0799 
        1.03692         284.154         54.1322 
        1.05264          281.73         52.2863 
        1.06832         274.749         50.5298 
        1.08405         270.333         48.8496 
        1.09979         265.243         47.2451 
        1.11537         261.283         45.7288 
        1.13105         255.562         44.2704 
        1.14679         252.303         42.8701 
        1.16256         247.622         41.5279 
        1.17828         245.031         40.2478 
        1.19395          239.45         39.0262 
         1.2097         238.425         37.8492 
        1.22537         232.771         36.7267 
          1.241         231.543         35.6532 
        1.25666         226.372         34.6201 
        1.27241         223.451         33.6232 
        1.28819         220.419          32.664 
        1.30392          215.08         31.7452 
        1.31957         215.526         30.8659 
        1.33529         210.688         30.0168 
        1.35108         205.829         29.1964 
        1.36674         204.734         28.4126 
         1.3824          202.81         27.6584 
        1.39811         200.142         26.9291 
        1.41389           196.4         26.2234 
        1.42964         194.186         25.5443 
        1.44531         191.336         24.8926 
        1.46101         188.868         24.2623 
        1.47667         185.363         23.6558 
        1.49229         183.727         23.0717 
        1.50793         179.991         22.5067 
        1.52367         178.661          21.957 
        1.53953         175.819         21.4221 
        1.55526         171.989         20.9092 
        1.57092         171.048         20.4154 
        1.58662         168.831         19.9363 
        1.60235         165.858         19.4718 
        1.61809         164.936         19.0218 
        1.63369         161.436         18.5901 
        1.64941         158.281         18.1687 
        1.66519         157.595         17.7589 
        1.68085         155.771         17.3647 
        1.69652         153.335         16.9823 
        1.71228         150.485         16.6093 
        1.72806         148.833         16.2473 
        1.74368         147.506         15.8997 
        1.75933         144.701         15.5616 
        1.77505         143.435         15.2317 
        1.79081         142.276         14.9109 
         1.8065         140.372         14.6007 
        1.82218         137.765         14.2996 
        1.83797         136.855         14.0049 
        1.85367         134.937         13.7202 
        1.86928         132.578         13.4451 
        1.88497         130.722         13.1761 
        1.90073         129.487         12.9135 
        1.91647         127.875         12.6582 
        1.93218         126.278         12.4104 
        1.94787         124.524         12.1697 
        1.96363         122.721         11.9343 
        1.97935         121.086         11.7057 
        1.99499         119.355         11.4844 
        2.01064          118.14         11.2685 
         2.0264         116.439         11.0568 
        2.04216         115.157         10.8506 
        2.05781           114.1          10.651 
        2.07353         113.057         10.4557 
        2.08928          110.55         10.2649 
        2.10499         109.276         10.0794 
        2.12065         107.887         9.89902 
        2.13633         107.296          9.7229 
        2.15211         105.103         9.54994 
        2.16785          103.55         9.38167 
        2.18349         102.791         9.21852 
        2.19916         101.677         9.05891 
        2.21489         100.351         8.90255 
        2.23063         98.8246         8.74978 
         2.2463         97.6754         8.60129 
        2.26194         96.7359         8.45662 
        2.27765         95.5237         8.31453 
        2.29341         94.6035         8.17534 
        2.30914         93.3246         8.03963 
        2.32486         92.5079         7.90708 
        2.34061         91.2025          7.7773 
        2.35635         89.7512         7.65055 
        2.37203          88.659         7.52707 
        2.38768         87.8563         7.40657 
        2.40339         86.9165         7.28827 
        2.41914         85.6557         7.17228 
        2.43483         84.7394         7.05923 
         2.4505          83.676         6.94881 
        2.46622         82.4498         6.84037 
        2.48195         81.5786         6.73424 
        2.49759         80.5912         6.63093 
        2.51328         80.1103         6.52952 
        2.52906         78.6708         6.42959 
        2.54479         77.9283         6.33213 
        2.56049         77.1325         6.23687 
        2.57618         76.3516         6.14366 
        2.59189         75.3353         6.05221 
        2.60758         74.6835         5.96277 
        2.62325         73.6013         5.87525 
        2.63898         72.7029         5.78918 
        2.65468         71.9166         5.70502 
        2.67044         71.1108         5.62217 
        2.68618         70.3873         5.54115 
        2.70184         69.9488         5.46206 
        2.71755         69.0022         5.38431 
        2.73329         68.2367         5.30796 
        2.74897         67.4175         5.23334 
        2.76462         66.6597         5.16032 
        2.78034         65.9853         5.08839 
        2.79607         64.9455         5.01776 
        2.81179         64.4523         4.94855 
        2.82749          63.614         4.88072 
        2.84321         63.1524         4.81409 
        2.85893         62.3693         4.74872 
        2.87462          61.562         4.68468 
        2.89033         60.9749         4.62176 
        2.90605          60.201         4.55994 
        2.92176         59.8001         4.49929 
        2.93747         59.3345         4.43977 
        2.95318          58.535         4.38131 
        2.96891         57.9636         4.32388 
        2.98456         57.3216         4.26773 
        3.00023         56.5039          4.2125 
        3.01596         56.0416         4.15808 
        3.03164         55.3314         4.10477 
        3.04738          54.823         4.05224 
         3.0631         54.2397         4.00065 
        3.07883         53.6434         3.94995 
        3.09456         53.1584         3.90014 
        3.11026         52.4251         3.85127 
        3.12596          51.944         3.80324 
        3.14163         51.4281         3.75613 
        3.15734         51.0608         3.70972 
        3.17308         50.3824         3.66398 
        3.18879         50.0637         3.61914 
        3.20447         49.1294         3.57511 
         3.2202          48.979         3.53167 
         3.2359         48.4284         3.48904 
        3.25157         47.8838         3.44721 
        3.26729         47.4976         3.40594 
        3.28304         46.9842         3.36527 
        3.29877         46.5541         3.32531 
        3.31446         45.8878         3.28609 
        3.33014         45.5985         3.24753 
        3.34585         45.3959         3.20954 
        3.36158         44.8334         3.17209 
        3.37727         44.3154         3.13536 
        3.39294         43.8896         3.09925 
        3.40867         43.4226         3.06357 
        3.42439         42.8525         3.02848 
        3.44008         42.5356           2.994 
        3.45578          42.092         2.96003 
        3.47153         41.6595         2.92652 
        3.48724         41.3577         2.89358 
        3.50292         41.0156         2.86123 
        3.51859         40.5099         2.82939 
        3.53431         40.0846         2.79793 
        3.55007         39.6238         2.76688 
        3.56577         39.3407         2.73642 
        3.58146          38.936         2.70642 
        3.59719         38.5599         2.67681 
        3.61292         38.1662         2.64766 
        3.62859         37.9031         2.61904 
        3.64429         37.5888          2.5908 
        3.66003         37.1462         2.56288 
        3.67578         36.6741         2.53539 
        3.69146          36.426          2.5084 
        3.70712         36.1031         2.48186 
        3.72284         35.7124          2.4556 
        3.73853         35.3985         2.42976 
        3.75422         35.0517         2.40429 
        3.76993         34.8519         2.37916 
        3.78564          34.495          2.3544 
        3.80137         34.1268         2.32995 
        3.81707         33.7661         2.30591 
        3.83279         33.5781         2.28218 
        3.84853          33.249         2.25874 
        3.86424         32.7894         2.23568 
        3.87992         32.6343         2.21298 
        3.89561         32.3151         2.19059 
        3.91134         31.8924         2.16846 
        3.92704         31.7425         2.14667 
        3.94273         31.3567         2.12519 
        3.95845         31.1333         2.10397 
        3.97418         30.8459         2.08304 
        3.98988         30.5507         2.06242 
        4.00554         30.2147         2.04213 
        4.02125         29.9992         2.02206 
        4.03698         29.7499         2.00223 
        4.05268         29.5393         1.98271 
        4.06839         29.2116         1.96343 
         4.0841         29.0193         1.94442 
        4.09983         28.6586         1.92563 
        4.11555         28.4259          1.9071 
        4.13124         28.2165         1.88886 
        4.14693          27.924         1.87084 
        4.16266          27.678         1.85302 
        4.17839          27.432         1.83544 
        4.19408         27.1735         1.81813 
        4.20977         26.9591         1.80103 
        4.22551         26.7537         1.78411 
        4.24123         26.5328         1.76743 
        4.25691         26.2725         1.75101 
        4.27259         26.1163         1.73479 
        4.28831         25.7706         1.71874 
        4.30404         25.6381         1.70288 
        4.31974         25.3853         1.68725 
        4.33543           25.16         1.67183 
        4.35116         25.0692         1.65657 
        4.36688         24.7877          1.6415 
        4.38255         24.5049         1.62667 
        4.39825         24.3418           1.612 
        4.41398         24.0555         1.59748 
         4.4297         23.8923         1.58315 
        4.44541          23.717           1.569 
        4.46111          23.547         1.55503 
        4.47683         23.3435         1.54122 
        4.49251         23.1331         1.52761 
        4.50819         22.9168         1.51417 
         4.5239         22.7754         1.50087 
        4.53962         22.5669         1.48771 
        4.55535          22.418          1.4747 
        4.57106          22.199         1.46187 
        4.58678          22.037         1.44919 
         4.6025         21.8775         1.43665 
        4.61821         21.7245         1.42427 
        4.63391           21.46         1.41205 
         4.6496         21.3141         1.39997 
        4.66532         21.1545         1.38802 
        4.68103         20.9578         1.37621 
        4.69673         20.7888         1.36455 
        4.71241         20.6479         1.35304 
        4.72811         20.4626         1.34164 
        4.74384         20.3254         1.33036 
        4.75955          20.156         1.31922 
        4.77525         19.9662         1.30822 
        4.79096         19.8532         1.29733 
        4.80669         19.6551         1.28656 
         4.8224         19.4814         1.27593 
        4.83809         19.3483         1.26542 
        4.85379         19.1221         1.25503 
         4.8695         19.0642         1.24474 
        4.88521         18.8912         1.23458 
        4.90093          18.736         1.22452 
        4.91663         18.5584         1.21459 
        4.93234         18.4554         1.20476 
        4.94807         18.2797         1.19503 
        4.96377         18.1639         1.18542 
        4.97943         18.0357         1.17594 
        4.99514         17.8903         1.16654 
        5.01086         17.7487         1.15724 
        5.02654         17.5953         1.14806 
        5.04227         17.4738         1.13895 
          5.058         17.3224         1.12994 
        5.07371         17.1994         1.12104 
        5.08942         17.0832         1.11224 
        5.10513         16.9567         1.10353 
        5.12084         16.8164         1.09491 
        5.13656         16.6468         1.08638 
        5.15225         16.5563         1.07796 
        5.16796         16.4561         1.06961 
        5.18369          16.317         1.06135 
         5.1994         16.2075         1.05318 
        5.21509         16.0785         1.04511 
        5.23079         15.9556         1.03712 
        5.24649         15.8413         1.02921 
        5.26217         15.6973          1.0214 
        5.27788          15.592         1.01365 
        5.29359         15.4802         1.00598 
        5.30933          15.344         0.99838 
        5.32504         15.2453        0.990871 
        5.34073         15.1291        0.983448 
        5.35646         15.0371        0.976086 
        5.37218         14.9128        0.968797 
        5.38789         14.7986        0.961595 
        5.40357         14.7107        0.954474 
        5.41929          14.595        0.947409 
        5.43502          14.464        0.940415 
         5.4507          14.378        0.933509 
        5.46639         14.2564         0.92667 
        5.48212          14.136        0.919884 
        5.49786         14.0845        0.913158 
        5.51353         13.9536        0.906533 
        5.52921          13.889        0.899966 
        5.54495         13.7778        0.893445 
        5.56066         13.6826        0.886996 
        5.57637         13.5662        0.880612 
        5.59207         13.4632        0.874296 
        5.60778         13.3824        0.868039 
        5.62346         13.2905        0.861852 
        5.63916         13.1556         0.85572 
        5.65487         13.0939        0.849644 
         5.6706           12.97         0.84362 
        5.68633         12.8818        0.837652 
        5.70203         12.8272        0.831754 
        5.71773         12.7106        0.825914 
        5.73344         12.6313        0.820126 
        5.74916         12.5584        0.814389 
        5.76486         12.4427        0.808715 
        5.78054         12.3662        0.803103 
        5.79626         12.2583        0.797529 
          5.812         12.1989        0.792002 
         5.8277         12.0915        0.786543 
        5.84339         12.0178        0.781136 
        5.85911         11.9232        0.775769 
        5.87484         11.8397        0.770454 
        5.89053         11.7616        0.765199 
        5.90623         11.6708         0.75999 
        5.92195         11.5932        0.754821 
        5.93767         11.5119        0.749703 
        5.95336         11.4453        0.744641 
        5.96905         11.3511        0.739627 
        5.98476         11.3052        0.734653 
        6.00048         11.1789        0.729722 
        6.01617         11.1367        0.724843 
        6.03185         11.0592        0.720015 
        6.04756         10.9764        0.715219 
        6.06331         10.9032        0.710457 
        6.07903         10.8228        0.705748 
        6.09473          10.757        0.701085 
        6.11044         10.6896        0.696461 
        6.12616         10.6297         0.69188 
        6.14186         10.5386        0.687343 
        6.15755         10.4702        0.682848 
        6.17326         10.3822         0.67839 
        6.18898          10.344        0.673969 
        6.20467         10.2574        0.669596 
        6.22036         10.1876        0.665261 
         6.2361         10.1237        0.660954 
         6.2518          10.054        0.656691 
        6.26748         9.98609        0.652475 
        6.28319         9.93352        0.648285 
        6.29893         9.86461        0.644128 
        6.31463         9.78145        0.640014 
        6.33033         9.71732        0.635938 
        6.34604         9.66268        0.631894 
        6.36177         9.59923        0.627881 
        6.37747         9.54837        0.623911 
