# k  (h/Mpc)    Pcb(k)  (Mpc/h)^3    Pcb_linear(k) (Mpc/h)^3   ShotnoiseSubtracted = true
      0.0200456         6108.08         6210.84 
      0.0350414         4425.31         4515.07 
      0.0492313         3272.29         3280.57 
      0.0637834         2773.65         2727.11 
      0.0800726          2197.7         2164.44 
       0.096163          1549.1         1570.49 
       0.111083         1229.02         1252.66 
       0.126058         1124.89         1110.11 
       0.142273         968.129          940.51 
       0.158546         789.015         742.805 
        0.17375         639.535         625.813 
       0.188953         606.412         566.659 
       0.204907         566.054         501.378 
       0.220756         474.828         424.196 
        0.23588         415.333         369.014 
         0.2514         366.566         335.245 
       0.267535         347.468          303.34 
       0.283568         314.065         267.505 
       0.299022         288.933         238.333 
       0.314451           264.3          217.82 
       0.330372         245.066         199.825 
       0.346141         220.684         181.372 
       0.361624          209.48         164.842 
       0.377134         196.747         151.681 
       0.392932         179.574         140.347 
       0.408854         172.334         129.373 
       0.424564         165.086         119.245 
       0.440253         154.879         110.554 
       0.455999         145.767         102.997 
       0.471626         134.774         96.0518 
        0.48727         130.747         89.5552 
       0.502856         124.875         83.7188 
       0.518488         121.116         78.5114 
       0.534347         115.841         73.6702 
       0.550082         107.071         69.2065 
       0.565732         102.778         65.1227 
       0.581496         98.8691         61.3825 
       0.597222         95.6486         57.9524 
       0.612804         90.8245         54.7983 
       0.628434         88.8129         51.8583 
       0.644267         85.8724         49.1098 
       0.660051         83.4338         46.5766 
       0.675724         80.2533         44.2374 
       0.691403         77.8496          42.057 
       0.707174         75.1895         40.0112 
       0.722871          73.299         38.1096 
        0.73838          71.647          36.352 
       0.754018         68.1315         34.6919 
       0.769845         66.7509         33.1175 
        0.78569         65.0285         31.6394 
       0.801365         62.8191         30.2663 
       0.817031         61.0375          28.976 
       0.832809         60.2425          27.753 
       0.848511         57.4167         26.6064 
       0.864097          56.111         25.5328 
       0.879701         55.3085         24.5177 
       0.895507          54.414         23.5461 
       0.911279          53.092         22.6294 
        0.92691         51.7361         21.7693 
       0.942635         49.9654         20.9494 
       0.958396          49.742         20.1701 
       0.974128         48.3907         19.4321 
       0.989692         47.5336         18.7385 
        1.00528         46.5359         18.0778 
        1.02113          45.204         17.4387 
        1.03692         44.2585         16.8331 
        1.05264         43.8077         16.2591 
        1.06832         42.6717         15.7129 
        1.08405         42.1122         15.1904 
        1.09979         41.4048         14.6915 
        1.11537         39.9591           14.22 
        1.13105         40.1246         13.7664 
        1.14679         39.3994          13.331 
        1.16256         38.4248         12.9136 
        1.17828         37.6485         12.5156 
        1.19395         37.0713         12.1357 
         1.2097         36.6454         11.7697 
        1.22537          36.228         11.4206 
          1.241          35.355         11.0868 
        1.25666         34.5513         10.7656 
        1.27241         34.3064         10.4556 
        1.28819         33.3565         10.1573 
        1.30392         33.0202         9.87157 
        1.31957         32.8001         9.59815 
        1.33529         32.4754         9.33411 
        1.35108         31.8292         9.07899 
        1.36674         31.2545         8.83526 
         1.3824         30.5922         8.60072 
        1.39811         30.4843         8.37395 
        1.41389         30.0433          8.1545 
        1.42964         29.4964         7.94332 
        1.44531         29.2926         7.74067 
        1.46101         28.5717         7.54467 
        1.47667         28.4032         7.35606 
        1.49229         28.1445         7.17443 
        1.50793         27.6989         6.99873 
        1.52367         27.4248         6.82781 
        1.53953         27.1575         6.66146 
        1.55526         26.6134         6.50199 
        1.57092         26.3082         6.34842 
        1.58662         25.9842         6.19945 
        1.60235         25.7089         6.05499 
        1.61809         25.3852         5.91507 
        1.63369         25.0966         5.78082 
        1.64941         24.6421         5.64978 
        1.66519         24.5288         5.52235 
        1.68085          24.157         5.39976 
        1.69652         23.8962         5.28087 
        1.71228         23.6958         5.16488 
        1.72806         23.3418          5.0523 
        1.74368         23.0359          4.9442 
        1.75933         22.8025         4.83906 
        1.77505         22.6352          4.7365 
        1.79081         22.2897         4.63673 
         1.8065         22.1606         4.54026 
        1.82218         21.8583         4.44663 
        1.83797         21.5408           4.355 
        1.85367         21.3389         4.26647 
        1.86928         21.1412         4.18093 
        1.88497         20.8121         4.09728 
        1.90073         20.8422         4.01561 
        1.91647         20.4726         3.93624 
        1.93218         20.2975         3.85919 
        1.94787         20.1519         3.78431 
        1.96363         19.9717         3.71113 
        1.97935          19.755         3.64004 
        1.99499          19.503         3.57122 
        2.01064         19.3577         3.50408 
         2.0264         19.0545         3.43824 
        2.04216         18.9151         3.37413 
        2.05781         18.6859         3.31207 
        2.07353         18.5205         3.25134 
        2.08928         18.4213         3.19201 
        2.10499         18.1625         3.13432 
        2.12065         17.8864         3.07822 
        2.13633         17.8731         3.02346 
        2.15211         17.5664         2.96967 
        2.16785         17.5264         2.91735 
        2.18349         17.3479         2.86662 
        2.19916         17.1475         2.81698 
        2.21489         16.9908         2.76836 
        2.23063         16.8278         2.72086 
         2.2463         16.6653         2.67468 
        2.26194         16.5595         2.62969 
        2.27765         16.3633         2.58551 
        2.29341         16.1761         2.54223 
        2.30914         16.0389         2.50003 
        2.32486         15.9734         2.45881 
        2.34061         15.7813         2.41845 
        2.35635         15.5774         2.37904 
        2.37203         15.5097         2.34064 
        2.38768         15.3701         2.30317 
        2.40339         15.1556         2.26638 
        2.41914         15.0433         2.23031 
        2.43483         14.9407         2.19516 
         2.4505         14.7734         2.16082 
        2.46622         14.6696          2.1271 
        2.48195         14.5222          2.0941 
        2.49759         14.4166         2.06197 
        2.51328         14.2636         2.03044 
        2.52906         14.1542         1.99936 
        2.54479         14.0387         1.96905 
        2.56049         13.9472         1.93943 
        2.57618         13.8436         1.91045 
        2.59189         13.6636         1.88201 
        2.60758         13.5861          1.8542 
        2.62325         13.5034         1.82698 
        2.63898         13.3104         1.80022 
        2.65468         13.2533         1.77405 
        2.67044         13.0994         1.74828 
        2.68618         13.0028         1.72309 
        2.70184         12.8847          1.6985 
        2.71755         12.7632         1.67432 
        2.73329         12.6556         1.65058 
        2.74897         12.5483         1.62737 
        2.76462         12.5298         1.60467 
        2.78034         12.3171          1.5823 
        2.79607         12.2295         1.56034 
        2.81179         12.1173         1.53881 
        2.82749         12.0554         1.51772 
        2.84321         11.9082           1.497 
        2.85893         11.8429         1.47667 
        2.87462         11.7697         1.45676 
        2.89033         11.6004         1.43719 
        2.90605         11.5268         1.41797 
        2.92176         11.4782         1.39911 
        2.93747         11.3586          1.3806 
        2.95318         11.2589         1.36242 
        2.96891          11.164         1.34457 
        2.98456         11.0821         1.32711 
        3.00023         11.0217         1.30993 
        3.01596          10.905         1.29301 
        3.03164         10.8491         1.27643 
        3.04738         10.7267          1.2601 
         3.0631         10.6305         1.24405 
        3.07883         10.5486         1.22829 
        3.09456          10.494          1.2128 
        3.11026         10.3431          1.1976 
        3.12596         10.3403         1.18266 
        3.14163         10.2258         1.16802 
        3.15734         10.1369         1.15358 
        3.17308         10.0879         1.13936 
        3.18879         10.0119         1.12542 
        3.20447          9.8917         1.11172 
         3.2202         9.82427         1.09822 
         3.2359         9.78286         1.08496 
        3.25157         9.69831         1.07195 
        3.26729         9.61882         1.05912 
        3.28304         9.51525         1.04647 
        3.29877         9.43744         1.03405 
        3.31446         9.40082         1.02185 
        3.33014         9.29306         1.00986 
        3.34585         9.27144        0.998046 
        3.36158         9.18337        0.986402 
        3.37727         9.10411         0.97498 
        3.39294          9.0444         0.96375 
        3.40867         8.91844        0.952656 
        3.42439         8.89849        0.941743 
        3.44008         8.82417        0.931022 
        3.45578         8.76179         0.92046 
        3.47153         8.72322        0.910039 
        3.48724         8.64861        0.899797 
        3.50292         8.57349        0.889736 
        3.51859         8.50922        0.879835 
        3.53431         8.43914        0.870053 
        3.55007         8.39323        0.860396 
        3.56577         8.33809        0.850923 
        3.58146           8.268        0.841597 
        3.59719         8.19646        0.832389 
        3.61292         8.14147        0.823323 
        3.62859         8.06575        0.814425 
        3.64429         8.01185        0.805642 
        3.66003         7.93881        0.796961 
        3.67578         7.88029        0.788412 
        3.69146          7.8389         0.78002 
        3.70712          7.8009        0.771765 
        3.72284         7.70015        0.763599 
        3.73853         7.67291        0.755566 
        3.75422         7.60376        0.747645 
        3.76993         7.55877        0.739831 
        3.78564          7.4918        0.732131 
        3.80137         7.44691        0.724529 
        3.81707         7.37534         0.71705 
        3.83279         7.37191        0.709671 
        3.84853         7.28812        0.702384 
        3.86424         7.20721        0.695213 
        3.87992         7.16605        0.688153 
        3.89561         7.12875        0.681191 
        3.91134         7.06276        0.674311 
        3.92704         7.02168        0.667534 
        3.94273         6.96606        0.660856 
        3.95845         6.92513        0.654258 
        3.97418         6.87123        0.647748 
        3.98988         6.82893        0.641336 
        4.00554         6.76498        0.635027 
        4.02125         6.71042        0.628786 
        4.03698          6.6785        0.622619 
        4.05268         6.63599        0.616548 
        4.06839         6.58091        0.610554 
         4.0841         6.53841        0.604641 
        4.09983         6.49794        0.598799 
        4.11555         6.45577        0.593036 
        4.13124         6.40902        0.587364 
        4.14693         6.33737        0.581762 
        4.16266         6.29656         0.57622 
        4.17839         6.24846        0.570753 
        4.19408         6.19774         0.56537 
        4.20977         6.15282        0.560054 
        4.22551         6.10847        0.554793 
        4.24123         6.06587        0.549605 
        4.25691         6.02637        0.544498 
        4.27259         5.98512        0.539454 
        4.28831         5.94019        0.534464 
        4.30404         5.88811        0.529532 
        4.31974         5.85935        0.524673 
        4.33543         5.81502        0.519878 
        4.35116         5.77737        0.515131 
        4.36688         5.72567        0.510445 
        4.38255         5.67531        0.505835 
        4.39825         5.64968        0.501271 
        4.41398         5.60959        0.496755 
         4.4297         5.59327          0.4923 
        4.44541          5.5326          0.4879 
        4.46111         5.51861        0.483556 
        4.47683         5.44432        0.479263 
        4.49251         5.42461         0.47503 
        4.50819         5.37997         0.47085 
         4.5239         5.34395        0.466714 
        4.53962         5.31857        0.462622 
        4.55535         5.26929        0.458578 
        4.57106         5.23943        0.454587 
        4.58678          5.2099        0.450644 
         4.6025         5.15805        0.446746 
        4.61821         5.13057        0.442894 
        4.63391         5.10315        0.439093 
         4.6496         5.05762        0.435339 
        4.66532         5.03928        0.431622 
        4.68103         4.98517         0.42795 
        4.69673         4.96385        0.424325 
        4.71241         4.93016        0.420745 
        4.72811         4.89722          0.4172 
        4.74384         4.86912        0.413692 
        4.75955         4.81988        0.410229 
        4.77525         4.79473        0.406808 
        4.79096         4.76034        0.403422 
        4.80669         4.72378        0.400073 
         4.8224         4.70649        0.396765 
        4.83809         4.66938        0.393498 
        4.85379         4.62876        0.390267 
         4.8695         4.60293        0.387068 
        4.88521         4.58042        0.383907 
        4.90093         4.54832        0.380781 
        4.91663          4.5098        0.377692 
        4.93234         4.49377        0.374634 
        4.94807         4.45681        0.371608 
        4.96377         4.42579        0.368622 
        4.97943          4.3959        0.365674 
        4.99514         4.36649        0.362751 
        5.01086         4.33615        0.359857 
        5.02654         4.31566        0.357003 
        5.04227         4.28683        0.354171 
          5.058         4.25387        0.351368 
        5.07371         4.22686        0.348601 
        5.08942         4.20235        0.345864 
        5.10513         4.18024        0.343155 
        5.12084         4.15322        0.340475 
        5.13656         4.13353        0.337823 
        5.15225         4.10475        0.335204 
        5.16796         4.07069        0.332609 
        5.18369         4.04146        0.330039 
         5.1994         4.02009          0.3275 
        5.21509         3.99913        0.324991 
        5.23079         3.97112        0.322505 
        5.24649           3.941        0.320047 
        5.26217         3.92591        0.317616 
        5.27788          3.8939        0.315207 
        5.29359          3.8649        0.312822 
        5.30933          3.8466        0.310459 
        5.32504         3.82531        0.308124 
        5.34073         3.79605        0.305816 
        5.35646         3.77339        0.303526 
        5.37218         3.74925         0.30126 
        5.38789         3.73355         0.29902 
        5.40357         3.70732        0.296806 
        5.41929         3.67641        0.294609 
        5.43502         3.66136        0.292434 
         5.4507         3.63563        0.290286 
        5.46639         3.61336         0.28816 
        5.48212         3.60281         0.28605 
        5.49786         3.57976        0.283958 
        5.51353         3.54543        0.281898 
        5.52921         3.52105        0.279856 
        5.54495         3.49817        0.277828 
        5.56066         3.48698        0.275823 
        5.57637         3.46272        0.273837 
        5.59207         3.44543        0.271873 
        5.60778         3.42402        0.269928 
        5.62346          3.3938        0.268004 
        5.63916         3.38092        0.266097 
        5.65487         3.36213        0.264207 
         5.6706         3.34533        0.262334 
        5.68633          3.3203        0.260478 
        5.70203         3.29864        0.258644 
        5.71773         3.28908        0.256828 
        5.73344         3.26909        0.255029 
        5.74916         3.24804        0.253245 
        5.76486         3.22579         0.25148 
        5.78054         3.20476        0.249735 
        5.79626         3.19137        0.248002 
          5.812         3.17699        0.246283 
         5.8277          3.1604        0.244586 
        5.84339         3.13311        0.242904 
        5.85911         3.11516        0.241235 
        5.87484         3.10695        0.239582 
        5.89053         3.07277        0.237948 
        5.90623         3.05829        0.236329 
        5.92195         3.04659        0.234721 
        5.93767         3.02996         0.23313 
        5.95336          3.0124        0.231556 
        5.96905         2.99599        0.229996 
        5.98476          2.9817         0.22845 
        6.00048         2.95962        0.226916 
        6.01617          2.9435        0.225399 
        6.03185         2.92483        0.223898 
        6.04756         2.91031        0.222406 
        6.06331         2.88756        0.220926 
        6.07903         2.87846        0.219461 
        6.09473         2.86287        0.218011 
        6.11044         2.84287        0.216573 
        6.12616         2.82999        0.215149 
        6.14186         2.81347        0.213738 
        6.15755         2.79986         0.21234 
        6.17326         2.78374        0.210954 
        6.18898         2.76642        0.209579 
        6.20467         2.75207        0.208219 
        6.22036         2.73434        0.206871 
         6.2361         2.72194        0.205532 
         6.2518         2.70658        0.204206 
        6.26748         2.69297        0.202895 
        6.28319          2.6755        0.201592 
        6.29893         2.66565          0.2003 
        6.31463         2.64759         0.19902 
        6.33033         2.63832        0.197753 
        6.34604          2.6203        0.196495 
        6.36177         2.60871        0.195248 
        6.37747         2.59468        0.194013 
