# k  (h/Mpc)    Pcb(k)  (Mpc/h)^3    Pcb_linear(k) (Mpc/h)^3   ShotnoiseSubtracted = true
      0.0200456         5580.05         5655.38 
      0.0350414         4197.37         4111.27 
      0.0492313          2981.2         2987.17 
      0.0637834         2424.72         2483.21 
      0.0800726         1915.31         1970.86 
       0.096163         1469.69         1430.03 
       0.111083          1188.6         1140.63 
       0.126058         1003.93         1010.83 
       0.142273         855.679         856.395 
       0.158546         697.639         676.373 
        0.17375         602.552         569.844 
       0.188953         548.434          515.98 
       0.204907         466.808         456.537 
       0.220756         415.057         386.258 
        0.23588         365.472         336.011 
         0.2514         328.483         305.263 
       0.267535         311.845          276.21 
       0.283568         272.114          243.58 
       0.299022         254.484         217.018 
       0.314451         246.201         198.339 
       0.330372         214.906         181.954 
       0.346141         198.267         165.151 
       0.361624         185.924           150.1 
       0.377134         170.133         138.115 
       0.392932          165.57         127.795 
       0.408854         155.188         117.803 
       0.424564         147.976          108.58 
       0.440253         134.196         100.667 
       0.455999         124.964         93.7853 
       0.471626         120.693         87.4614 
        0.48727         116.747         81.5458 
       0.502856         107.106         76.2315 
       0.518488         104.181         71.4897 
       0.534347         97.9987         67.0815 
       0.550082         95.1878          63.017 
       0.565732         92.5888         59.2985 
       0.581496         85.4747         55.8928 
       0.597222         82.9394         52.7694 
       0.612804         80.0972         49.8974 
       0.628434         78.1797         47.2204 
       0.644267          73.982         44.7177 
       0.660051           71.36          42.411 
       0.675724         69.3718         40.2811 
       0.691403         68.0662         38.2956 
       0.707174         65.6889         36.4328 
       0.722871         63.9784         34.7013 
        0.73838         61.4949         33.1008 
       0.754018         58.2215         31.5893 
       0.769845         57.6114         30.1556 
        0.78569          55.607         28.8098 
       0.801365         54.1138         27.5595 
       0.817031         52.1164         26.3845 
       0.832809         51.2323         25.2709 
       0.848511          49.819         24.2269 
       0.864097          48.805         23.2493 
       0.879701         47.7927          22.325 
       0.895507         46.0604         21.4403 
       0.911279         45.0918         20.6055 
        0.92691         43.9944         19.8224 
       0.942635         43.1049         19.0758 
       0.958396          42.666         18.3662 
       0.974128         41.5202         17.6942 
       0.989692          40.191         17.0626 
        1.00528         39.6404          16.461 
        1.02113         38.6977         15.8791 
        1.03692         38.2553         15.3276 
        1.05264         37.3482          14.805 
        1.06832         36.6185         14.3076 
        1.08405          35.724         13.8318 
        1.09979         35.5308         13.3775 
        1.11537         34.4219         12.9482 
        1.13105         33.7019         12.5352 
        1.14679         33.1164         12.1387 
        1.16256         32.6901         11.7587 
        1.17828          32.235         11.3962 
        1.19395         31.4986         11.0503 
         1.2097         31.1648         10.7171 
        1.22537         30.5186         10.3992 
          1.241         29.9712         10.0953 
        1.25666          29.545         9.80274 
        1.27241         29.2233         9.52047 
        1.28819         28.1839         9.24888 
        1.30392         28.3609         8.98871 
        1.31957         27.8215         8.73974 
        1.33529         27.2497         8.49931 
        1.35108         26.9202         8.26701 
        1.36674         26.6064         8.04508 
         1.3824         26.1071         7.83152 
        1.39811         25.5454         7.62502 
        1.41389         25.3035         7.42521 
        1.42964         25.0951         7.23291 
        1.44531         24.5979         7.04838 
        1.46101         24.3599         6.86991 
        1.47667         24.0458         6.69817 
        1.49229          23.544         6.53278 
        1.50793          23.376          6.3728 
        1.52367         23.0032         6.21716 
        1.53953         22.8127         6.06569 
        1.55526         22.3935         5.92049 
        1.57092         22.2657         5.78065 
        1.58662         21.9484           5.645 
        1.60235         21.6053         5.51346 
        1.61809         21.3977         5.38605 
        1.63369         21.1758         5.26381 
        1.64941         20.8988          5.1445 
        1.66519         20.5615         5.02846 
        1.68085         20.1954         4.91684 
        1.69652         20.2003         4.80857 
        1.71228         19.8919         4.70296 
        1.72806         19.5845         4.60045 
        1.74368         19.4152         4.50202 
        1.75933         19.2114         4.40628 
        1.77505         19.0108         4.31289 
        1.79081         18.8043         4.22204 
         1.8065         18.5843          4.1342 
        1.82218         18.4188         4.04895 
        1.83797         18.2887         3.96551 
        1.85367         18.1429          3.8849 
        1.86928         17.9452         3.80701 
        1.88497         17.7027         3.73084 
        1.90073         17.4896         3.65647 
        1.91647         17.1878          3.5842 
        1.93218         17.2682         3.51404 
        1.94787         16.9244         3.44586 
        1.96363         16.8478         3.37923 
        1.97935         16.5737          3.3145 
        1.99499         16.3999         3.25183 
        2.01064         16.2629         3.19069 
         2.0264         16.0769         3.13074 
        2.04216         16.0301         3.07237 
        2.05781         15.8276         3.01585 
        2.07353         15.6779         2.96056 
        2.08928         15.4736         2.90653 
        2.10499         15.3078           2.854 
        2.12065         15.1986         2.80292 
        2.13633         15.0774         2.75306 
        2.15211         14.8873         2.70408 
        2.16785          14.824         2.65644 
        2.18349         14.5986         2.61024 
        2.19916         14.4837         2.56505 
        2.21489         14.3168         2.52077 
        2.23063         14.2764         2.47752 
         2.2463         14.0495         2.43547 
        2.26194         13.9596         2.39451 
        2.27765         13.7478         2.35427 
        2.29341         13.6825         2.31486 
        2.30914         13.5346         2.27644 
        2.32486         13.4778          2.2389 
        2.34061         13.3377         2.20216 
        2.35635         13.2107         2.16627 
        2.37203         13.0721          2.1313 
        2.38768         12.9109         2.09718 
        2.40339         12.8931         2.06369 
        2.41914         12.7098         2.03085 
        2.43483         12.5936         1.99883 
         2.4505         12.4759         1.96757 
        2.46622          12.427         1.93686 
        2.48195         12.3165         1.90681 
        2.49759         12.1304         1.87756 
        2.51328         12.1408         1.84885 
        2.52906         11.9592         1.82055 
        2.54479         11.8526         1.79295 
        2.56049         11.7183         1.76598 
        2.57618         11.6998         1.73959 
        2.59189         11.6388          1.7137 
        2.60758         11.4518         1.68837 
        2.62325         11.3748         1.66359 
        2.63898         11.3323         1.63922 
        2.65468         11.1519         1.61539 
        2.67044         11.1325         1.59193 
        2.68618         11.0343         1.56899 
        2.70184         10.9175         1.54659 
        2.71755         10.8427         1.52458 
        2.73329         10.7235         1.50296 
        2.74897         10.6575         1.48183 
        2.76462         10.5874         1.46115 
        2.78034         10.4647         1.44079 
        2.79607          10.427         1.42079 
        2.81179         10.3037         1.40119 
        2.82749         10.2367         1.38198 
        2.84321         10.1645         1.36312 
        2.85893         10.0807         1.34461 
        2.87462         10.0194         1.32648 
        2.89033         9.90421         1.30866 
        2.90605         9.85994         1.29116 
        2.92176         9.75673         1.27398 
        2.93747         9.68027         1.25713 
        2.95318         9.60261         1.24058 
        2.96891         9.55235         1.22431 
        2.98456         9.44643         1.20842 
        3.00023         9.38585         1.19278 
        3.01596         9.28158         1.17737 
        3.03164         9.27836         1.16227 
        3.04738          9.1605          1.1474 
         3.0631         9.05499         1.13279 
        3.07883         9.01196         1.11844 
        3.09456         8.95397         1.10433 
        3.11026         8.89878         1.09049 
        3.12596         8.79858         1.07689 
        3.14163         8.77764         1.06356 
        3.15734         8.67236         1.05041 
        3.17308         8.63435         1.03746 
        3.18879          8.5536         1.02476 
        3.20447         8.46581          1.0123 
         3.2202         8.42282               1 
         3.2359         8.33383        0.987928 
        3.25157         8.32505        0.976084 
        3.26729         8.23224        0.964398 
        3.28304         8.15238        0.952881 
        3.29877         8.11794        0.941567 
        3.31446          8.0609        0.930461 
        3.33014          7.9931        0.919544 
        3.34585            7.96        0.908786 
        3.36158         7.88782        0.898184 
        3.37727         7.84259        0.887783 
        3.39294         7.76064        0.877558 
        3.40867         7.72638        0.867456 
        3.42439         7.63959        0.857519 
        3.44008         7.58786        0.847757 
        3.45578          7.5404        0.838139 
        3.47153         7.46773         0.82865 
        3.48724         7.41863        0.819324 
        3.50292         7.34259        0.810163 
        3.51859          7.3345        0.801147 
        3.53431         7.26804         0.79224 
        3.55007         7.20334        0.783446 
        3.56577         7.13796        0.774821 
        3.58146         7.12411        0.766329 
        3.59719         7.05455        0.757945 
        3.61292         7.00887        0.749689 
        3.62859         6.96763        0.741587 
        3.64429         6.90937        0.733589 
        3.66003         6.85563        0.725685 
        3.67578         6.80349          0.7179 
        3.69146         6.77691        0.710259 
        3.70712         6.72003        0.702742 
        3.72284         6.64956        0.695307 
        3.73853          6.6315        0.687992 
        3.75422         6.55768        0.680779 
        3.76993         6.53235        0.673664 
        3.78564         6.48159        0.666653 
        3.80137         6.45476        0.659731 
        3.81707         6.36729        0.652921 
        3.83279         6.34742        0.646202 
        3.84853         6.28557        0.639566 
        3.86424         6.24669        0.633037 
        3.87992         6.20539        0.626609 
        3.89561          6.1777        0.620269 
        3.91134          6.1073        0.614004 
        3.92704         6.07898        0.607833 
        3.94273         6.04395        0.601753 
        3.95845         6.01027        0.595744 
        3.97418         5.95195        0.589817 
        3.98988         5.91695        0.583978 
        4.00554         5.87568        0.578234 
        4.02125         5.82449        0.572551 
        4.03698         5.79499        0.566935 
        4.05268         5.73389        0.561407 
        4.06839         5.69298        0.555949 
         4.0841         5.66381        0.550566 
        4.09983         5.62188        0.545245 
        4.11555         5.57761        0.539998 
        4.13124          5.5317        0.534833 
        4.14693         5.50851        0.529732 
        4.16266          5.4726        0.524686 
        4.17839         5.44365        0.519708 
        4.19408         5.39358        0.514806 
        4.20977         5.36408        0.509966 
        4.22551         5.32851        0.505175 
        4.24123         5.27614        0.500452 
        4.25691         5.24552        0.495801 
        4.27259          5.2024        0.491208 
        4.28831         5.16102        0.486664 
        4.30404         5.12857        0.482173 
        4.31974         5.09627        0.477749 
        4.33543         5.05288        0.473383 
        4.35116         5.02674         0.46906 
        4.36688         4.99348        0.464793 
        4.38255         4.96716        0.460595 
        4.39825         4.92669         0.45644 
        4.41398         4.89598        0.452328 
         4.4297         4.88131        0.448271 
        4.44541         4.82668        0.444264 
        4.46111         4.79958         0.44031 
        4.47683         4.77142          0.4364 
        4.49251         4.74488        0.432546 
        4.50819         4.71096         0.42874 
         4.5239         4.68131        0.424973 
        4.53962         4.64183        0.421248 
        4.55535         4.61902        0.417565 
        4.57106          4.5932        0.413931 
        4.58678          4.5499         0.41034 
         4.6025         4.53134        0.406791 
        4.61821         4.48677        0.403284 
        4.63391         4.45556        0.399823 
         4.6496         4.42826        0.396404 
        4.66532         4.40328         0.39302 
        4.68103         4.37213        0.389677 
        4.69673         4.35335        0.386375 
        4.71241         4.32998        0.383116 
        4.72811         4.29468        0.379888 
        4.74384         4.27034        0.376694 
        4.75955         4.23458        0.373541 
        4.77525         4.20568        0.370426 
        4.79096         4.18893        0.367342 
        4.80669         4.16614        0.364292 
         4.8224         4.12534        0.361281 
        4.83809         4.10907        0.358306 
        4.85379         4.06846        0.355363 
         4.8695         4.05071        0.352451 
        4.88521         4.02922        0.349573 
        4.90093         4.00421        0.346726 
        4.91663         3.98498        0.343913 
        4.93234         3.94876        0.341129 
        4.94807          3.9301        0.338374 
        4.96377         3.90479        0.335654 
        4.97943         3.87943         0.33297 
        4.99514         3.86133        0.330308 
        5.01086         3.83513        0.327673 
        5.02654         3.80898        0.325074 
        5.04227         3.78487        0.322495 
          5.058         3.76254        0.319944 
        5.07371         3.73978        0.317424 
        5.08942         3.71034        0.314932 
        5.10513         3.68653        0.312465 
        5.12084          3.6715        0.310024 
        5.13656         3.64859         0.30761 
        5.15225         3.63236        0.305225 
        5.16796         3.60906        0.302862 
        5.18369         3.57431        0.300522 
         5.1994         3.55982        0.298211 
        5.21509         3.53221        0.295926 
        5.23079         3.51599        0.293662 
        5.24649         3.49158        0.291423 
        5.26217          3.4667         0.28921 
        5.27788         3.45164        0.287016 
        5.29359         3.43544        0.284845 
        5.30933         3.41468        0.282693 
        5.32504         3.38999        0.280567 
        5.34073         3.37594        0.278465 
        5.35646         3.34931         0.27638 
        5.37218         3.33745        0.274317 
        5.38789          3.3166        0.272277 
        5.40357         3.29411        0.270261 
        5.41929         3.26946        0.268261 
        5.43502         3.25354         0.26628 
         5.4507          3.2357        0.264325 
        5.46639         3.21055        0.262388 
        5.48212         3.19361        0.260467 
        5.49786         3.17573        0.258562 
        5.51353         3.15893        0.256686 
        5.52921         3.13554        0.254827 
        5.54495         3.12241        0.252981 
        5.56066         3.11033        0.251155 
        5.57637         3.08792        0.249347 
        5.59207          3.0688        0.247558 
        5.60778         3.05207        0.245787 
        5.62346         3.03661        0.244035 
        5.63916         3.00956        0.242299 
        5.65487         2.99833        0.240578 
         5.6706         2.97853        0.238872 
        5.68633         2.97042        0.237183 
        5.70203         2.95396        0.235513 
        5.71773         2.92373        0.233859 
        5.73344         2.91362         0.23222 
        5.74916         2.90102        0.230596 
        5.76486         2.88282        0.228989 
        5.78054         2.86715          0.2274 
        5.79626         2.85308        0.225822 
          5.812         2.83002        0.224257 
         5.8277         2.81967        0.222711 
        5.84339         2.80199         0.22118 
        5.85911         2.78619         0.21966 
        5.87484         2.76839        0.218155 
        5.89053         2.75442        0.216667 
        5.90623         2.74068        0.215193 
        5.92195         2.72915        0.213729 
        5.93767         2.71164         0.21228 
        5.95336          2.6959        0.210846 
        5.96905         2.68284        0.209427 
        5.98476         2.66406        0.208018 
        6.00048         2.65638        0.206622 
        6.01617         2.63391        0.205241 
        6.03185         2.62196        0.203874 
        6.04756         2.60611        0.202516 
        6.06331         2.59366        0.201167 
        6.07903         2.58328        0.199834 
        6.09473         2.56413        0.198514 
        6.11044         2.55244        0.197204 
        6.12616         2.54295        0.195907 
        6.14186          2.5262        0.194623 
        6.15755         2.51561         0.19335 
        6.17326         2.50121        0.192087 
        6.18898         2.48284        0.190836 
        6.20467         2.47725        0.189597 
        6.22036         2.46249         0.18837 
         6.2361           2.449         0.18715 
         6.2518         2.43404        0.185943 
        6.26748         2.42349         0.18475 
        6.28319         2.41013        0.183563 
        6.29893         2.39666        0.182386 
        6.31463         2.38757        0.181221 
        6.33033         2.37918        0.180067 
        6.34604         2.36182        0.178922 
        6.36177         2.35171        0.177786 
        6.37747         2.33931        0.176661 
