# k  (h/Mpc)    Pcb(k)  (Mpc/h)^3    Pcb_linear(k) (Mpc/h)^3   ShotnoiseSubtracted = true
      0.0200456         7281.94         7382.99 
      0.0350414         5489.77         5367.19 
      0.0492313         3883.77         3899.69 
      0.0637834         3153.14         3241.78 
      0.0800726         2488.71         2572.92 
       0.096163         1923.22         1866.88 
       0.111083         1558.06         1489.07 
       0.126058         1309.86         1319.62 
       0.142273         1120.22         1118.01 
       0.158546         916.058         882.992 
        0.17375           794.1          743.92 
       0.188953         726.551         673.603 
       0.204907         618.505         596.001 
       0.220756         551.682         504.253 
        0.23588         487.305         438.656 
         0.2514         437.026         398.515 
       0.267535         418.599         360.587 
       0.283568         364.826          317.99 
       0.299022         343.898         283.312 
       0.314451         337.231         258.928 
       0.330372         292.018         237.538 
       0.346141         270.129         215.602 
       0.361624         255.181         195.952 
       0.377134         234.516         180.307 
       0.392932         228.388         166.835 
       0.408854         215.514         153.789 
       0.424564         206.103          141.75 
       0.440253         186.253         131.418 
       0.455999         175.356         122.435 
       0.471626         171.312         114.179 
        0.48727         164.721         106.457 
       0.502856         150.412         99.5188 
       0.518488         148.533         93.3285 
       0.534347         138.893         87.5737 
       0.550082         135.552         82.2675 
       0.565732         132.812         77.4131 
       0.581496         122.504          72.967 
       0.597222         119.719         68.8895 
       0.612804         115.732         65.1401 
       0.628434         112.606         61.6453 
       0.644267         106.761         58.3781 
       0.660051         103.441         55.3668 
       0.675724         101.621         52.5862 
       0.691403         99.3047         49.9942 
       0.707174         95.8211         47.5623 
       0.722871         93.9034         45.3019 
        0.73838         91.2223         43.2125 
       0.754018         85.8847         41.2392 
       0.769845         85.3424         39.3676 
        0.78569         82.7705         37.6106 
       0.801365         80.2691         35.9784 
       0.817031         77.5887         34.4445 
       0.832809         76.2231         32.9907 
       0.848511         74.4487         31.6277 
       0.864097         73.0908         30.3515 
       0.879701         71.6584         29.1449 
       0.895507         68.9728         27.9899 
       0.911279         67.9625         26.9001 
        0.92691         66.0017         25.8777 
       0.942635         64.6152         24.9031 
       0.958396         64.4075         23.9767 
       0.974128         62.8146         23.0994 
       0.989692          61.247         22.2749 
        1.00528         60.1222         21.4895 
        1.02113         58.7865         20.7299 
        1.03692         58.5389         20.0099 
        1.05264         57.2683         19.3276 
        1.06832         55.6978         18.6783 
        1.08405         54.8515         18.0572 
        1.09979         54.5232         17.4641 
        1.11537          53.018         16.9036 
        1.13105          51.783         16.3645 
        1.14679         51.2481         15.8469 
        1.16256         50.4468         15.3508 
        1.17828         49.8818         14.8776 
        1.19395         48.5627          14.426 
         1.2097         48.6002         13.9909 
        1.22537         47.4199          13.576 
          1.241         46.8145         13.1792 
        1.25666         45.7057         12.7973 
        1.27241         45.5762         12.4288 
        1.28819         44.5385         12.0742 
        1.30392         44.0247         11.7346 
        1.31957         43.6809         11.4096 
        1.33529         42.9008         11.0957 
        1.35108         42.1361         10.7924 
        1.36674         41.6242         10.5027 
         1.3824         40.9906         10.2239 
        1.39811         40.2961         9.95433 
        1.41389          39.781         9.69347 
        1.42964         39.4996         9.44243 
        1.44531         38.6368         9.20153 
        1.46101         38.4371         8.96854 
        1.47667         37.9339         8.74434 
        1.49229         37.2929         8.52843 
        1.50793         36.9593         8.31957 
        1.52367         36.3502         8.11639 
        1.53953         36.1719         7.91865 
        1.55526          35.574         7.72909 
        1.57092         35.1506         7.54653 
        1.58662         34.6345         7.36945 
        1.60235         34.2159         7.19772 
        1.61809         33.8307         7.03139 
        1.63369         33.4656         6.87181 
        1.64941         33.0386         6.71604 
        1.66519         32.5363         6.56456 
        1.68085         32.1206         6.41884 
        1.69652         31.7774          6.2775 
        1.71228         31.6079         6.13963 
        1.72806         31.0761          6.0058 
        1.74368         30.6799          5.8773 
        1.75933         30.4873         5.75232 
        1.77505         30.2458         5.63039 
        1.79081         29.8233         5.51179 
         1.8065         29.3958         5.39712 
        1.82218         29.0457         5.28582 
        1.83797         28.8816          5.1769 
        1.85367         28.4463         5.07166 
        1.86928         28.4752         4.96998 
        1.88497         27.8499         4.87054 
        1.90073         27.6648         4.77345 
        1.91647         27.4093         4.67911 
        1.93218         27.3422         4.58751 
        1.94787         26.9531         4.49851 
        1.96363         26.5554         4.41152 
        1.97935         26.2939         4.32701 
        1.99499         26.1329          4.2452 
        2.01064         25.7207         4.16539 
         2.0264          25.518         4.08713 
        2.04216         25.3971         4.01092 
        2.05781         25.0882         3.93714 
        2.07353         24.8435         3.86495 
        2.08928         24.4638         3.79442 
        2.10499         24.3039         3.72584 
        2.12065         24.0411         3.65917 
        2.13633         23.8715         3.59406 
        2.15211         23.4772         3.53013 
        2.16785         23.4405         3.46793 
        2.18349         23.1473         3.40762 
        2.19916         22.9283         3.34862 
        2.21489         22.6621         3.29082 
        2.23063         22.5675         3.23435 
         2.2463         22.2943         3.17946 
        2.26194         22.0781         3.12598 
        2.27765         21.7998         3.07346 
        2.29341         21.5942         3.02201 
        2.30914         21.4007         2.97185 
        2.32486         21.2619         2.92285 
        2.34061         21.0727         2.87487 
        2.35635         20.7572         2.82802 
        2.37203         20.6545         2.78238 
        2.38768         20.4691         2.73783 
        2.40339         20.3687          2.6941 
        2.41914         20.1236         2.65123 
        2.43483         19.9773         2.60944 
         2.4505         19.6592         2.56862 
        2.46622         19.5564         2.52854 
        2.48195         19.3508         2.48931 
        2.49759         19.0864         2.45112 
        2.51328         19.0139         2.41363 
        2.52906         18.8829         2.37669 
        2.54479         18.6704         2.34067 
        2.56049         18.5482         2.30546 
        2.57618         18.4367           2.271 
        2.59189         18.1416          2.2372 
        2.60758         17.9644         2.20414 
        2.62325         17.8387         2.17178 
        2.63898         17.7349         2.13997 
        2.65468         17.5402         2.10886 
        2.67044         17.3411         2.07823 
        2.68618         17.2335         2.04828 
        2.70184         17.0551         2.01905 
        2.71755         16.8818         1.99031 
        2.73329         16.7737         1.96208 
        2.74897         16.6215          1.9345 
        2.76462         16.4945         1.90751 
        2.78034         16.2826         1.88092 
        2.79607         16.1994         1.85481 
        2.81179         16.0682         1.82923 
        2.82749         15.8823         1.80415 
        2.84321         15.7991         1.77952 
        2.85893         15.5721         1.75536 
        2.87462         15.5223         1.73169 
        2.89033         15.3684         1.70843 
        2.90605         15.2298         1.68558 
        2.92176         15.0849         1.66316 
        2.93747         14.9589         1.64116 
        2.95318         14.8549         1.61955 
        2.96891         14.7097         1.59832 
        2.98456         14.6113         1.57757 
        3.00023         14.4605         1.55715 
        3.01596          14.374         1.53703 
        3.03164         14.2304         1.51733 
        3.04738         14.1085         1.49791 
         3.0631         13.9887         1.47884 
        3.07883         13.8902          1.4601 
        3.09456         13.7595         1.44168 
        3.11026         13.6681         1.42362 
        3.12596          13.557         1.40586 
        3.14163         13.4074         1.38845 
        3.15734         13.3016          1.3713 
        3.17308         13.2415         1.35439 
        3.18879         13.0565         1.33781 
        3.20447         13.0329         1.32154 
         3.2202         12.8749         1.30548 
         3.2359         12.7678         1.28972 
        3.25157         12.7152         1.27426 
        3.26729         12.5443           1.259 
        3.28304         12.4503         1.24397 
        3.29877         12.4126          1.2292 
        3.31446         12.2707          1.2147 
        3.33014         12.1994         1.20045 
        3.34585         12.0392          1.1864 
        3.36158         11.9628         1.17256 
        3.37727          11.914         1.15898 
        3.39294         11.7966         1.14563 
        3.40867         11.6703         1.13245 
        3.42439         11.5791         1.11947 
        3.44008         11.5263         1.10673 
        3.45578          11.379         1.09417 
        3.47153         11.3241         1.08179 
        3.48724         11.2601         1.06961 
        3.50292         11.1631         1.05765 
        3.51859          11.062         1.04588 
        3.53431         10.9355         1.03425 
        3.55007         10.8883         1.02277 
        3.56577         10.7603         1.01151 
        3.58146         10.6606         1.00043 
        3.59719         10.5926        0.989483 
        3.61292         10.5536        0.978705 
        3.62859         10.4491        0.968128 
        3.64429         10.3642        0.957687 
        3.66003          10.274        0.947368 
        3.67578         10.1931        0.937205 
        3.69146         10.1372        0.927229 
        3.70712         10.0307        0.917417 
        3.72284         9.96343         0.90771 
        3.73853         9.89689        0.898161 
        3.75422         9.81315        0.888745 
        3.76993         9.71353        0.879456 
        3.78564         9.67231        0.870303 
        3.80137         9.58111        0.861266 
        3.81707         9.49422        0.852376 
        3.83279         9.41682        0.843604 
        3.84853         9.36561        0.834942 
        3.86424         9.27838        0.826418 
        3.87992         9.23557        0.818026 
        3.89561         9.15417        0.809749 
        3.91134         9.08144        0.801571 
        3.92704         9.00846        0.793514 
        3.94273         8.93601        0.785577 
        3.95845         8.86378        0.777733 
        3.97418         8.79938        0.769995 
        3.98988         8.76112        0.762372 
        4.00554         8.67713        0.754873 
        4.02125         8.62126        0.747454 
        4.03698         8.55545        0.740123 
        4.05268         8.47596        0.732907 
        4.06839         8.39185        0.725781 
         4.0841         8.32816        0.718753 
        4.09983          8.2792        0.711808 
        4.11555          8.1834        0.704957 
        4.13124         8.14229        0.698215 
        4.14693         8.07052        0.691555 
        4.16266         8.02821        0.684968 
        4.17839         7.95239        0.678469 
        4.19408         7.92416         0.67207 
        4.20977         7.80976         0.66575 
        4.22551          7.7851        0.659497 
        4.24123         7.74393         0.65333 
        4.25691         7.68247        0.647259 
        4.27259         7.59332        0.641263 
        4.28831         7.54774        0.635331 
        4.30404         7.51212        0.629468 
        4.31974          7.4394        0.623692 
        4.33543         7.38176        0.617992 
        4.35116         7.30217        0.612349 
        4.36688         7.27225        0.606779 
        4.38255         7.23127        0.601299 
        4.39825          7.1486        0.595874 
        4.41398         7.10291        0.590506 
         4.4297         7.05274        0.585209 
        4.44541         7.00414        0.579979 
        4.46111         6.97457        0.574816 
        4.47683          6.9108        0.569712 
        4.49251         6.86333        0.564681 
        4.50819         6.80823        0.559712 
         4.5239         6.73971        0.554795 
        4.53962         6.70404        0.549931 
        4.55535         6.64871        0.545123 
        4.57106         6.61806         0.54038 
        4.58678         6.55273        0.535692 
         4.6025         6.50594        0.531058 
        4.61821         6.47091         0.52648 
        4.63391         6.41437        0.521962 
         4.6496         6.37002        0.517498 
        4.66532         6.33039         0.51308 
        4.68103         6.28212        0.508716 
        4.69673         6.23977        0.504406 
        4.71241         6.18921         0.50015 
        4.72811         6.15546        0.495937 
        4.74384         6.12674        0.491766 
        4.75955         6.06836         0.48765 
        4.77525         6.02626        0.483584 
        4.79096         5.98741        0.479558 
        4.80669         5.92623        0.475577 
         4.8224         5.89147        0.471645 
        4.83809         5.85096        0.467762 
        4.85379         5.80585         0.46392 
         4.8695         5.77444        0.460118 
        4.88521          5.7366         0.45636 
        4.90093         5.69177        0.452644 
        4.91663         5.64356        0.448972 
        4.93234         5.61417        0.445338 
        4.94807         5.56984        0.441741 
        4.96377         5.53395         0.43819 
        4.97943         5.49307        0.434686 
        4.99514         5.45137        0.431211 
        5.01086          5.4228        0.427772 
        5.02654         5.38613        0.424378 
        5.04227         5.35033        0.421012 
          5.058         5.29747         0.41768 
        5.07371          5.2685        0.414391 
        5.08942         5.23709        0.411137 
        5.10513         5.20427        0.407918 
        5.12084         5.17207        0.404731 
        5.13656         5.12015        0.401579 
        5.15225         5.09438        0.398466 
        5.16796         5.06354        0.395381 
        5.18369         5.01731        0.392326 
         5.1994         4.98725        0.389308 
        5.21509         4.96269        0.386325 
        5.23079         4.92828         0.38337 
        5.24649         4.89479        0.380448 
        5.26217          4.8607        0.377558 
        5.27788         4.83434        0.374694 
        5.29359         4.79327         0.37186 
        5.30933         4.76761        0.369051 
        5.32504          4.7344        0.366275 
        5.34073         4.70629        0.363531 
        5.35646         4.68032        0.360809 
        5.37218         4.62964        0.358115 
        5.38789         4.61157        0.355453 
        5.40357         4.57503        0.352821 
        5.41929         4.54484        0.350209 
        5.43502          4.5145        0.347624 
         5.4507          4.4963        0.345071 
        5.46639         4.45813        0.342543 
        5.48212         4.43792        0.340035 
        5.49786         4.40244        0.337548 
        5.51353         4.37765        0.335099 
        5.52921         4.35774        0.332672 
        5.54495         4.31947        0.330262 
        5.56066         4.28941        0.327878 
        5.57637         4.25936        0.325518 
        5.59207         4.23708        0.323183 
        5.60778         4.20801         0.32087 
        5.62346         4.18869        0.318583 
        5.63916         4.15066        0.316316 
        5.65487         4.13245         0.31407 
         5.6706         4.11203        0.311843 
        5.68633         4.08296        0.309637 
        5.70203         4.05726        0.307457 
        5.71773         4.03463        0.305298 
        5.73344          4.0039        0.303159 
        5.74916         3.98221        0.301038 
        5.76486         3.95143        0.298941 
        5.78054         3.93349        0.296866 
        5.79626         3.90587        0.294806 
          5.812         3.88209        0.292763 
         5.8277         3.84977        0.290745 
        5.84339         3.83742        0.288746 
        5.85911          3.8088        0.286763 
        5.87484         3.78859        0.284798 
        5.89053         3.76329        0.282855 
        5.90623         3.74469         0.28093 
        5.92195         3.71976        0.279019 
        5.93767         3.68988        0.277127 
        5.95336         3.67633        0.275256 
        5.96905         3.64429        0.273403 
        5.98476         3.63761        0.271564 
        6.00048         3.60193        0.269741 
        6.01617         3.58603        0.267938 
        6.03185         3.56368        0.266153 
        6.04756         3.53491         0.26438 
        6.06331         3.52034         0.26262 
        6.07903         3.49427        0.260879 
        6.09473         3.47818        0.259156 
        6.11044         3.45536        0.257446 
        6.12616         3.43546        0.255753 
        6.14186         3.41503        0.254076 
        6.15755         3.39139        0.252414 
        6.17326         3.37405        0.250766 
        6.18898         3.35111        0.249132 
        6.20467         3.33582        0.247516 
        6.22036         3.31436        0.245913 
         6.2361         3.29765        0.244321 
         6.2518            3.28        0.242745 
        6.26748         3.26333        0.241187 
        6.28319          3.2369        0.239638 
        6.29893         3.22063        0.238101 
        6.31463         3.20264        0.236581 
        6.33033         3.18866        0.235074 
        6.34604         3.16882        0.233579 
        6.36177         3.15126        0.232096 
        6.37747         3.12723        0.230628 
