# k  (h/Mpc)    Pcb(k)  (Mpc/h)^3    Pcb_linear(k) (Mpc/h)^3   ShotnoiseSubtracted = true
      0.0200456         17976.1         18274.9 
      0.0350414         13681.9         13285.3 
      0.0492313          9487.3         9652.82 
      0.0637834         7655.55          8024.3 
      0.0800726            6016         6368.69 
       0.096163         4794.87         4621.04 
       0.111083          3903.6         3685.86 
       0.126058         3232.72         3266.42 
       0.142273         2816.99         2767.38 
       0.158546         2313.65         2185.65 
        0.17375         2050.88         1841.41 
       0.188953         1928.42         1667.35 
       0.204907         1655.19         1475.27 
       0.220756         1491.37         1248.17 
        0.23588         1330.04          1085.8 
         0.2514         1197.61         986.434 
       0.267535         1160.29         892.554 
       0.283568         1025.34         787.113 
       0.299022         979.082         701.277 
       0.314451         1012.06         640.919 
       0.330372         880.873         587.971 
       0.346141         811.326         533.674 
       0.361624         778.208         485.036 
       0.377134          741.06          446.31 
       0.392932         711.529         412.962 
       0.408854         679.263         380.671 
       0.424564         662.049          350.87 
       0.440253         607.801         325.297 
       0.455999          581.71         303.061 
       0.471626         592.045         282.625 
        0.48727         558.819         263.509 
       0.502856             526         246.336 
       0.518488         518.789         231.014 
       0.534347         490.313         216.769 
       0.550082         469.508         203.635 
       0.565732          465.11         191.619 
       0.581496         453.413         180.614 
       0.597222         441.108         170.521 
       0.612804         430.986          161.24 
       0.628434         413.534         152.589 
       0.644267           399.2         144.502 
       0.660051         393.947         137.048 
       0.675724         386.629         130.165 
       0.691403         377.705         123.749 
       0.707174         363.765          117.73 
       0.722871         357.979         112.135 
        0.73838         352.924         106.963 
       0.754018          340.63         102.078 
       0.769845         338.418         97.4457 
        0.78569         330.995         93.0967 
       0.801365          320.61         89.0564 
       0.817031          317.47         85.2596 
       0.832809         311.909         81.6611 
       0.848511         304.843         78.2874 
       0.864097         297.299         75.1284 
       0.879701         295.476         72.1416 
       0.895507         286.562         69.2826 
       0.911279          280.13         66.5853 
        0.92691         277.685         64.0545 
       0.942635         275.253          61.642 
       0.958396         266.937         59.3491 
       0.974128         264.066         57.1775 
       0.989692          254.31         55.1365 
        1.00528         254.075         53.1925 
        1.02113         250.265         51.3122 
        1.03692         244.681         49.5301 
        1.05264         240.561         47.8412 
        1.06832         239.564          46.234 
        1.08405         233.541         44.6966 
        1.09979         231.256         43.2285 
        1.11537         226.207         41.8412 
        1.13105         222.482         40.5067 
        1.14679         220.474         39.2255 
        1.16256         217.724         37.9974 
        1.17828         214.867         36.8261 
        1.19395         209.141         35.7083 
         1.2097         208.757         34.6314 
        1.22537         206.385         33.6043 
          1.241          200.74         32.6221 
        1.25666         199.156         31.6768 
        1.27241         195.379         30.7647 
        1.28819         193.056         29.8871 
        1.30392         190.615         29.0464 
        1.31957         185.827         28.2418 
        1.33529         183.361         27.4649 
        1.35108         182.243         26.7142 
        1.36674         178.206         25.9971 
         1.3824         176.908          25.307 
        1.39811         174.608         24.6397 
        1.41389         170.694          23.994 
        1.42964         168.729         23.3726 
        1.44531          167.11         22.7763 
        1.46101         163.782         22.1996 
        1.47667          162.69         21.6447 
        1.49229         160.156         21.1102 
        1.50793         157.322         20.5932 
        1.52367         155.868         20.0903 
        1.53953         152.371         19.6008 
        1.55526         151.936         19.1316 
        1.57092         150.378         18.6797 
        1.58662         146.446         18.2414 
        1.60235         145.266         17.8163 
        1.61809         143.009         17.4046 
        1.63369         140.891         17.0096 
        1.64941         139.798         16.6241 
        1.66519         137.889         16.2491 
        1.68085         135.338         15.8884 
        1.69652         133.933         15.5385 
        1.71228          132.49         15.1973 
        1.72806         131.208          14.866 
        1.74368         129.276          14.548 
        1.75933         128.156         14.2386 
        1.77505         125.955         13.9368 
        1.79081         123.868         13.6432 
         1.8065         122.057         13.3594 
        1.82218         120.497         13.0839 
        1.83797         119.963         12.8143 
        1.85367         118.206         12.5538 
        1.86928         117.071         12.3021 
        1.88497         115.109         12.0559 
        1.90073         114.274         11.8156 
        1.91647         112.357         11.5821 
        1.93218         111.215         11.3554 
        1.94787         109.317         11.1351 
        1.96363          108.57         10.9197 
        1.97935         107.243         10.7106 
        1.99499         106.465          10.508 
        2.01064          103.96         10.3105 
         2.0264         103.402         10.1168 
        2.04216         101.304         9.92814 
        2.05781          100.74         9.74551 
        2.07353         99.3394         9.56683 
        2.08928          97.984         9.39224 
        2.10499         96.9617         9.22249 
        2.12065         96.1998         9.05745 
        2.13633         95.1222          8.8963 
        2.15211         93.5778         8.73804 
        2.16785         92.2791         8.58408 
        2.18349         91.0303          8.4348 
        2.19916         89.9106         8.28876 
        2.21489          89.317         8.14569 
        2.23063         87.7385         8.00591 
         2.2463         87.1305         7.87004 
        2.26194         86.0577         7.73767 
        2.27765         84.8855         7.60767 
        2.29341         84.0096         7.48031 
        2.30914         82.9344         7.35614 
        2.32486         81.4683         7.23486 
        2.34061         81.0094         7.11611 
        2.35635         79.8181         7.00014 
        2.37203         78.7175         6.88715 
        2.38768         77.9371         6.77689 
        2.40339         77.4206         6.66865 
        2.41914         75.9615         6.56253 
        2.43483         75.3624         6.45909 
         2.4505         74.3954         6.35805 
        2.46622         73.7557         6.25883 
        2.48195         72.7335         6.16173 
        2.49759         71.8657          6.0672 
        2.51328         70.9779         5.97441 
        2.52906         69.8139         5.88297 
        2.54479         69.3405          5.7938 
        2.56049         68.5018         5.70664 
        2.57618         67.5634         5.62135 
        2.59189         67.1389         5.53768 
        2.60758         66.0163         5.45584 
        2.62325         65.4602         5.37576 
        2.63898         64.7694         5.29701 
        2.65468         64.1185            5.22 
        2.67044         63.3568         5.14419 
        2.68618          62.726         5.07007 
        2.70184         61.8873          4.9977 
        2.71755         61.1173         4.92656 
        2.73329         60.4305          4.8567 
        2.74897         59.8709         4.78842 
        2.76462         59.4671         4.72161 
        2.78034         58.7679          4.6558 
        2.79607         58.0562         4.59117 
        2.81179         57.3543         4.52784 
        2.82749         56.7942         4.46578 
        2.84321         56.3024         4.40481 
        2.85893         55.6884         4.34501 
        2.87462         54.9912         4.28641 
        2.89033         54.2797         4.22884 
        2.90605         53.7603         4.17228 
        2.92176         53.2833         4.11678 
        2.93747         52.6062         4.06232 
        2.95318          52.146         4.00883 
        2.96891         51.4827         3.95628 
        2.98456         50.9634         3.90491 
        3.00023         50.2736         3.85437 
        3.01596         49.8345         3.80458 
        3.03164         49.4008          3.7558 
        3.04738         48.8913         3.70774 
         3.0631         48.1405         3.66053 
        3.07883         47.7511         3.61414 
        3.09456         47.1776         3.56857 
        3.11026         46.7759         3.52385 
        3.12596         46.3691          3.4799 
        3.14163         45.7279          3.4368 
        3.15734         45.3047         3.39434 
        3.17308         44.8241         3.35248 
        3.18879         44.4652         3.31145 
        3.20447         44.1205         3.27117 
         3.2202          43.466         3.23143 
         3.2359         43.1107         3.19242 
        3.25157         42.7586         3.15414 
        3.26729         42.2113         3.11638 
        3.28304         41.8632         3.07917 
        3.29877         41.2628          3.0426 
        3.31446         41.0059         3.00672 
        3.33014         40.5913         2.97144 
        3.34585         40.0832         2.93668 
        3.36158          39.696         2.90241 
        3.37727         39.3514         2.86881 
        3.39294         38.9828         2.83576 
        3.40867         38.5879         2.80312 
        3.42439         38.1503         2.77101 
        3.44008         37.8061         2.73946 
        3.45578         37.3964         2.70839 
        3.47153         37.0626         2.67772 
        3.48724         36.6614         2.64758 
        3.50292         36.2879         2.61798 
        3.51859         36.0546         2.58885 
        3.53431         35.7207         2.56006 
        3.55007         35.1765         2.53165 
        3.56577         35.1489         2.50378 
        3.58146         34.6072         2.47634 
        3.59719         34.3164         2.44924 
        3.61292         34.0448         2.42257 
        3.62859         33.6655         2.39638 
        3.64429         33.3659         2.37054 
        3.66003         33.0332           2.345 
        3.67578         32.7653         2.31984 
        3.69146         32.4247         2.29515 
        3.70712         32.0725         2.27086 
        3.72284          31.759         2.24683 
        3.73853         31.5712          2.2232 
        3.75422         31.2303         2.19989 
        3.76993         30.9452          2.1769 
        3.78564         30.7099         2.15424 
        3.80137         30.3926         2.13187 
        3.81707         30.1344         2.10987 
        3.83279         29.8258         2.08815 
        3.84853         29.5476         2.06671 
        3.86424         29.2444         2.04561 
        3.87992         28.9778         2.02484 
        3.89561          28.791         2.00435 
        3.91134         28.4717         1.98411 
        3.92704         28.1723         1.96417 
        3.94273         27.9426         1.94452 
        3.95845         27.7551          1.9251 
        3.97418         27.4021         1.90595 
        3.98988         27.1681         1.88708 
        4.00554         26.8915         1.86852 
        4.02125         26.7325         1.85016 
        4.03698         26.4639         1.83201 
        4.05268         26.2307         1.81415 
        4.06839         25.9811         1.79651 
         4.0841         25.7826         1.77911 
        4.09983         25.4936         1.76192 
        4.11555          25.234         1.74496 
        4.13124         25.1522         1.72828 
        4.14693          24.822         1.71179 
        4.16266         24.6281         1.69548 
        4.17839         24.4887          1.6794 
        4.19408         24.1693         1.66356 
        4.20977         24.0413         1.64792 
        4.22551         23.8358         1.63244 
        4.24123         23.6095         1.61717 
        4.25691          23.365         1.60215 
        4.27259          23.226          1.5873 
        4.28831         23.0104         1.57262 
        4.30404         22.8554         1.55811 
        4.31974         22.5776         1.54381 
        4.33543         22.4161          1.5297 
        4.35116         22.2214         1.51573 
        4.36688          22.011         1.50195 
        4.38255         21.8367         1.48838 
        4.39825         21.6525         1.47495 
        4.41398         21.4605         1.46167 
         4.4297         21.2498         1.44856 
        4.44541         21.0774         1.43561 
        4.46111          20.879         1.42283 
        4.47683         20.7268          1.4102 
        4.49251         20.5952         1.39774 
        4.50819          20.399         1.38544 
         4.5239         20.2454         1.37327 
        4.53962         20.0865         1.36123 
        4.55535         19.8847         1.34933 
        4.57106         19.7666         1.33759 
        4.58678         19.5906         1.32598 
         4.6025         19.3478         1.31452 
        4.61821         19.2229         1.30318 
        4.63391         19.0715           1.292 
         4.6496         18.9567         1.28095 
        4.66532         18.7697         1.27002 
        4.68103         18.5997         1.25921 
        4.69673         18.5172         1.24854 
        4.71241         18.3988         1.23801 
        4.72811         18.1864         1.22758 
        4.74384         18.0352         1.21726 
        4.75955         17.9385         1.20707 
        4.77525         17.7778           1.197 
        4.79096         17.5901         1.18704 
        4.80669         17.4562         1.17718 
         4.8224         17.3031         1.16745 
        4.83809         17.1813         1.15784 
        4.85379          17.061         1.14833 
         4.8695         16.9138         1.13892 
        4.88521          16.804         1.12962 
        4.90093         16.6718         1.12042 
        4.91663         16.5021         1.11133 
        4.93234         16.3814         1.10233 
        4.94807         16.2817         1.09343 
        4.96377         16.1504         1.08464 
        4.97943         16.0228         1.07597 
        4.99514         15.8909         1.06737 
        5.01086          15.771         1.05885 
        5.02654          15.671         1.05045 
        5.04227         15.5256         1.04212 
          5.058         15.3743         1.03387 
        5.07371         15.2878         1.02573 
        5.08942         15.2104         1.01768 
        5.10513         15.0685         1.00971 
        5.12084          14.946         1.00182 
        5.13656         14.8284         0.99402 
        5.15225         14.7084        0.986314 
        5.16796         14.5724        0.978677 
        5.18369          14.472        0.971115 
         5.1994         14.4131        0.963646 
        5.21509         14.2649        0.956262 
        5.23079         14.1769        0.948947 
        5.24649         14.0683        0.941714 
        5.26217         13.9577        0.934561 
        5.27788         13.8681        0.927472 
        5.29359         13.7204        0.920456 
        5.30933         13.6661        0.913502 
        5.32504         13.5479        0.906632 
        5.34073         13.4603        0.899839 
        5.35646         13.3605        0.893103 
        5.37218         13.2222        0.886434 
        5.38789         13.1326        0.879844 
        5.40357         13.0425        0.873329 
        5.41929         12.9722        0.866865 
        5.43502         12.8591        0.860465 
         5.4507         12.7745        0.854146 
        5.46639         12.6641        0.847889 
        5.48212         12.5673         0.84168 
        5.49786         12.4862        0.835525 
        5.51353         12.4048        0.829463 
        5.52921         12.3173        0.823455 
        5.54495         12.2463        0.817489 
        5.56066         12.1386        0.811588 
        5.57637         12.0298        0.805746 
        5.59207         11.9695        0.799967 
        5.60778         11.8646        0.794242 
        5.62346         11.7733        0.788581 
        5.63916         11.7085         0.78297 
        5.65487         11.6367        0.777411 
         5.6706         11.5339        0.771899 
        5.68633         11.4666        0.766438 
        5.70203         11.3731        0.761042 
        5.71773         11.2916        0.755698 
        5.73344         11.1987        0.750403 
        5.74916         11.1432        0.745153 
        5.76486         11.0581        0.739961 
        5.78054         10.9789        0.734826 
        5.79626         10.9151        0.729726 
          5.812         10.8267        0.724669 
         5.8277         10.7461        0.719675 
        5.84339         10.6692        0.714727 
        5.85911         10.6047        0.709817 
        5.87484         10.5093        0.704953 
        5.89053         10.4464        0.700145 
        5.90623         10.3699        0.695379 
        5.92195          10.295         0.69065 
        5.93767         10.2525        0.685967 
        5.95336         10.1694        0.681335 
        5.96905          10.088        0.676747 
        5.98476          10.047        0.672196 
        6.00048         9.97276        0.667684 
        6.01617         9.89747         0.66322 
        6.03185         9.81927        0.658802 
        6.04756         9.73779        0.654414 
        6.06331         9.68868        0.650057 
        6.07903         9.63892        0.645748 
        6.09473         9.57337        0.641482 
        6.11044         9.49174        0.637251 
        6.12616         9.43509        0.633059 
        6.14186         9.35998        0.628909 
        6.15755         9.30545        0.624796 
        6.17326         9.25268        0.620716 
        6.18898         9.18543        0.616671 
        6.20467         9.11184         0.61267 
        6.22036         9.05319        0.608704 
         6.2361         9.00544        0.604762 
         6.2518         8.94664        0.600862 
        6.26748         8.87409        0.597005 
        6.28319         8.83083        0.593171 
        6.29893         8.77074        0.589367 
        6.31463         8.69949        0.585603 
        6.33033         8.66141        0.581873 
        6.34604         8.60207        0.578173 
        6.36177         8.52906        0.574501 
        6.37747         8.47706        0.570869 
