# k  (h/Mpc)    Pcb(k)  (Mpc/h)^3    Pcb_linear(k) (Mpc/h)^3   ShotnoiseSubtracted = true
      0.0200456         9752.15         9932.98 
      0.0350414         7024.05         7220.94 
      0.0492313         5209.77          5246.6 
      0.0637834         4444.64         4361.45 
      0.0800726         3518.45         3461.58 
       0.096163         2463.84         2511.67 
       0.111083          1958.2         2003.38 
       0.126058         1801.78          1775.4 
       0.142273         1555.23         1504.15 
       0.158546         1291.79         1187.97 
        0.17375         1038.86         1000.86 
       0.188953         998.314         906.257 
       0.204907          936.45         801.852 
       0.220756         793.001         678.416 
        0.23588         696.745         590.163 
         0.2514         610.015         536.157 
       0.267535         590.212          485.13 
       0.283568         534.852         427.819 
       0.299022             497         381.165 
       0.314451         463.885         348.359 
       0.330372           428.3          319.58 
       0.346141         387.231         290.068 
       0.361624         371.738         263.632 
       0.377134         346.624         242.583 
       0.392932          325.61         224.457 
       0.408854         312.172         206.906 
       0.424564         297.798         190.708 
       0.440253         285.537         176.809 
       0.455999         268.619         164.723 
       0.471626         249.555         153.615 
        0.48727         242.401         143.225 
       0.502856         233.793         133.891 
       0.518488         230.273         125.563 
       0.534347         217.527         117.821 
       0.550082         203.447         110.682 
       0.565732         199.182         104.151 
       0.581496         189.534         98.1689 
       0.597222         184.399         92.6831 
       0.612804         177.171         87.6387 
       0.628434         171.879         82.9369 
       0.644267         166.092         78.5411 
       0.660051          163.95         74.4897 
       0.675724          159.81         70.7488 
       0.691403         155.039         67.2616 
       0.707174         148.458         63.9897 
       0.722871         147.106         60.9486 
        0.73838         143.913         58.1376 
       0.754018          138.79         55.4827 
       0.769845         135.428         52.9647 
        0.78569         132.844         50.6009 
       0.801365         129.139         48.4048 
       0.817031         124.664         46.3411 
       0.832809         122.965         44.3852 
       0.848511          119.62         42.5516 
       0.864097         116.973         40.8346 
       0.879701         114.909         39.2111 
       0.895507         112.133         37.6572 
       0.911279         110.349         36.1911 
        0.92691          108.54         34.8156 
       0.942635         105.779         33.5043 
       0.958396         105.421          32.258 
       0.974128          102.49         31.0777 
       0.989692         99.9653         29.9684 
        1.00528         97.9569         28.9118 
        1.02113         97.0942         27.8897 
        1.03692         93.5518         26.9211 
        1.05264         93.4358         26.0031 
        1.06832         90.9761         25.1296 
        1.08405         89.7895          24.294 
        1.09979         89.2634          23.496 
        1.11537         86.1751         22.7419 
        1.13105         86.2673         22.0166 
        1.14679          84.932         21.3202 
        1.16256         83.6951         20.6527 
        1.17828         81.4599         20.0161 
        1.19395          80.698         19.4086 
         1.2097         78.6303         18.8232 
        1.22537         78.8734          18.265 
          1.241         76.9125         17.7311 
        1.25666         75.3902         17.2173 
        1.27241         74.5484         16.7215 
        1.28819         73.3015         16.2445 
        1.30392         72.3775         15.7876 
        1.31957         71.4601         15.3503 
        1.33529         70.2007          14.928 
        1.35108         69.7821           14.52 
        1.36674         68.8626         14.1302 
         1.3824         67.4854         13.7551 
        1.39811         66.8835         13.3924 
        1.41389         65.8469         13.0415 
        1.42964         65.1433         12.7037 
        1.44531         63.8702         12.3796 
        1.46101         62.9677         12.0662 
        1.47667          62.865         11.7645 
        1.49229         61.7431          11.474 
        1.50793         61.1879         11.1931 
        1.52367         60.1424         10.9197 
        1.53953          59.464         10.6536 
        1.55526         58.8086         10.3986 
        1.57092          58.539          10.153 
        1.58662          57.457         9.91476 
        1.60235         56.9381         9.68372 
        1.61809         56.1422         9.45995 
        1.63369         55.2144         9.24524 
        1.64941          54.678         9.03568 
        1.66519         53.7844         8.83188 
        1.68085         53.3749         8.63582 
        1.69652         52.5575         8.44567 
        1.71228         52.2066         8.26018 
        1.72806         51.7428         8.08012 
        1.74368         50.9527         7.90725 
        1.75933         50.4592          7.7391 
        1.77505         49.8944         7.57506 
        1.79081         49.2967          7.4155 
         1.8065         48.8499         7.26122 
        1.82218         48.1738         7.11148 
        1.83797         47.5724         6.96494 
        1.85367         46.9729         6.82335 
        1.86928         46.5196         6.68655 
        1.88497         46.1548         6.55276 
        1.90073         45.6146         6.42214 
        1.91647         45.1252         6.29521 
        1.93218         44.6032         6.17198 
        1.94787         44.1899         6.05224 
        1.96363         43.6427         5.93521 
        1.97935         43.1366         5.82151 
        1.99499         42.6408         5.71144 
        2.01064           42.38         5.60406 
         2.0264         41.5643         5.49877 
        2.04216         41.2471         5.39624 
        2.05781         40.7042         5.29698 
        2.07353         40.3258         5.19986 
        2.08928         40.0362         5.10497 
        2.10499         39.5263          5.0127 
        2.12065         39.0927         4.92299 
        2.13633         38.9482         4.83541 
        2.15211         38.3754         4.74939 
        2.16785         37.6876         4.66571 
        2.18349         37.5193         4.58457 
        2.19916         37.2145         4.50519 
        2.21489         36.6844         4.42743 
        2.23063         36.2978         4.35146 
         2.2463         35.8438         4.27761 
        2.26194         35.4841         4.20566 
        2.27765         35.1312           4.135 
        2.29341           34.79         4.06577 
        2.30914         34.4473         3.99828 
        2.32486         33.9916         3.93236 
        2.34061         33.7556         3.86782 
        2.35635         33.4518         3.80478 
        2.37203         33.1409         3.74337 
        2.38768         32.7131         3.68345 
        2.40339         32.5649         3.62461 
        2.41914          32.246         3.56693 
        2.43483         31.6825         3.51071 
         2.4505         31.4792         3.45579 
        2.46622         31.2263         3.40186 
        2.48195         30.9464         3.34908 
        2.49759          30.558         3.29771 
        2.51328         30.1753         3.24727 
        2.52906         30.0634         3.19757 
        2.54479         29.6051          3.1491 
        2.56049         29.3399         3.10173 
        2.57618         29.0144         3.05537 
        2.59189         28.8834          3.0099 
        2.60758         28.6171         2.96542 
        2.62325         28.1724         2.92189 
        2.63898         28.0708         2.87908 
        2.65468         27.6473         2.83723 
        2.67044         27.4709         2.79602 
        2.68618         27.1495         2.75573 
        2.70184         26.8676          2.7164 
        2.71755         26.7422         2.67774 
        2.73329         26.4144         2.63976 
        2.74897         26.1075         2.60265 
        2.76462         25.8798         2.56634 
        2.78034         25.7604         2.53057 
        2.79607         25.4514         2.49544 
        2.81179         25.2213         2.46102 
        2.82749         24.9996         2.42729 
        2.84321         24.6309         2.39415 
        2.85893         24.4194         2.36164 
        2.87462         24.2235         2.32979 
        2.89033         24.0327          2.2985 
        2.90605          23.842         2.26776 
        2.92176         23.6731         2.23759 
        2.93747         23.4189         2.20799 
        2.95318         23.0774         2.17892 
        2.96891         22.9763         2.15036 
        2.98456         22.6698         2.12244 
        3.00023         22.4796         2.09497 
        3.01596         22.2655          2.0679 
        3.03164          22.041         2.04139 
        3.04738         21.8925         2.01527 
         3.0631         21.6952         1.98961 
        3.07883         21.5137          1.9644 
        3.09456         21.2571         1.93962 
        3.11026         21.0796         1.91532 
        3.12596         20.9049         1.89143 
        3.14163         20.7681         1.86801 
        3.15734         20.5551         1.84492 
        3.17308         20.3853         1.82218 
        3.18879         20.1632         1.79987 
        3.20447         19.9827         1.77798 
         3.2202         19.8171         1.75638 
         3.2359          19.558         1.73517 
        3.25157         19.5512         1.71437 
        3.26729         19.3566         1.69385 
        3.28304         19.1407         1.67362 
        3.29877         18.8227         1.65375 
        3.31446         18.7806         1.63424 
        3.33014         18.5735         1.61507 
        3.34585         18.3695         1.59617 
        3.36158         18.2697         1.57755 
        3.37727         18.0678         1.55928 
        3.39294         17.8852         1.54132 
        3.40867         17.7486         1.52358 
        3.42439         17.6017         1.50613 
        3.44008         17.4161         1.48898 
        3.45578         17.2608         1.47209 
        3.47153         17.1354         1.45542 
        3.48724         16.9524         1.43904 
        3.50292         16.8465         1.42295 
        3.51859          16.678         1.40712 
        3.53431         16.5254         1.39147 
        3.55007         16.3986         1.37603 
        3.56577         16.2443         1.36088 
        3.58146         16.1207         1.34596 
        3.59719         15.9617         1.33124 
        3.61292         15.8199         1.31674 
        3.62859         15.6801         1.30251 
        3.64429         15.5401         1.28846 
        3.66003         15.4063         1.27458 
        3.67578         15.2964          1.2609 
        3.69146         15.1865         1.24748 
        3.70712         14.9934         1.23428 
        3.72284         14.9525         1.22122 
        3.73853         14.7984         1.20837 
        3.75422         14.5914         1.19571 
        3.76993         14.5131         1.18321 
        3.78564         14.3622          1.1709 
        3.80137         14.2497         1.15874 
        3.81707         14.1473         1.14678 
        3.83279         13.9821         1.13497 
        3.84853         13.9009         1.12332 
        3.86424         13.7662         1.11185 
        3.87992         13.6379         1.10056 
        3.89561         13.5411         1.08943 
        3.91134         13.4193         1.07842 
        3.92704         13.3003         1.06758 
        3.94273          13.196          1.0569 
        3.95845         13.0754         1.04635 
        3.97418         13.0208         1.03594 
        3.98988         12.8725         1.02569 
        4.00554          12.773          1.0156 
        4.02125         12.6435         1.00562 
        4.03698         12.5725        0.995752 
        4.05268          12.455        0.986044 
        4.06839          12.332        0.976457 
         4.0841          12.227        0.967001 
        4.09983         12.1185        0.957657 
        4.11555          12.035         0.94844 
        4.13124         11.9366         0.93937 
        4.14693         11.8586         0.93041 
        4.16266         11.7416        0.921547 
        4.17839         11.6519        0.912804 
        4.19408          11.556        0.904194 
        4.20977         11.4513        0.895692 
        4.22551         11.3642        0.887279 
        4.24123         11.2785        0.878982 
        4.25691         11.1746        0.870814 
        4.27259         11.0974        0.862747 
        4.28831          10.993        0.854766 
        4.30404         10.8998        0.846879 
        4.31974         10.8275        0.839108 
        4.33543         10.7305        0.831439 
        4.35116         10.6494        0.823847 
        4.36688         10.5465        0.816353 
        4.38255         10.4783         0.80898 
        4.39825          10.428        0.801682 
        4.41398         10.3016        0.794459 
         4.4297         10.2208        0.787333 
        4.44541         10.1228        0.780296 
        4.46111         10.0742         0.77335 
        4.47683         10.0029        0.766484 
        4.49251         9.93045        0.759715 
        4.50819         9.83224        0.753029 
         4.5239         9.75951        0.746414 
        4.53962         9.71967         0.73987 
        4.55535         9.61003        0.733402 
        4.57106         9.53185         0.72702 
        4.58678         9.44335        0.720713 
         4.6025         9.38405        0.714479 
        4.61821         9.29686        0.708319 
        4.63391         9.21515        0.702241 
         4.6496         9.18549        0.696236 
        4.66532         9.09062        0.690292 
        4.68103         9.02569         0.68442 
        4.69673         8.94621        0.678621 
        4.71241         8.87752        0.672896 
        4.72811         8.79618        0.667227 
        4.74384          8.7722        0.661616 
        4.75955         8.69455        0.656079 
        4.77525         8.62576        0.650607 
        4.79096         8.57498        0.645192 
        4.80669         8.49067        0.639835 
         4.8224         8.43317        0.634545 
        4.83809         8.38445        0.629321 
        4.85379         8.29326        0.624152 
         4.8695          8.2457        0.619037 
        4.88521         8.18828        0.613982 
        4.90093         8.11465        0.608982 
        4.91663         8.04834        0.604042 
        4.93234         8.01468        0.599152 
        4.94807         7.91877        0.594312 
        4.96377         7.88112        0.589535 
        4.97943         7.84446        0.584821 
        4.99514          7.7735        0.580146 
        5.01086         7.69145        0.575518 
        5.02654          7.6435        0.570953 
        5.04227         7.61224        0.566424 
          5.058         7.53996        0.561942 
        5.07371         7.48817        0.557517 
        5.08942         7.42776        0.553139 
        5.10513          7.3741        0.548807 
        5.12084         7.31834         0.54452 
        5.13656         7.26908         0.54028 
        5.15225          7.2055        0.536091 
        5.16796         7.17302        0.531941 
        5.18369         7.09898         0.52783 
         5.1994         7.03497         0.52377 
        5.21509         6.99835        0.519757 
        5.23079         6.95176        0.515781 
        5.24649          6.8997         0.51185 
        5.26217         6.85376        0.507962 
        5.27788         6.78984        0.504109 
        5.29359         6.76985        0.500296 
        5.30933         6.71237        0.496516 
        5.32504         6.66334        0.492782 
        5.34073         6.61789         0.48909 
        5.35646         6.56488        0.485428 
        5.37218         6.53754        0.481804 
        5.38789         6.48245        0.478222 
        5.40357         6.43368         0.47468 
        5.41929          6.3807        0.471167 
        5.43502         6.34252        0.467689 
         5.4507         6.30543        0.464254 
        5.46639         6.25345        0.460853 
        5.48212         6.22042        0.457478 
        5.49786         6.17975        0.454133 
        5.51353         6.11974        0.450838 
        5.52921         6.08886        0.447573 
        5.54495         6.04227         0.44433 
        5.56066         6.00296        0.441122 
        5.57637           5.948        0.437947 
        5.59207         5.92503        0.434806 
        5.60778         5.87473        0.431694 
        5.62346         5.83591        0.428618 
        5.63916         5.80526        0.425568 
        5.65487         5.76327        0.422546 
         5.6706         5.72826         0.41955 
        5.68633         5.68429        0.416582 
        5.70203         5.65202        0.413649 
        5.71773         5.61534        0.410745 
        5.73344         5.56902        0.407867 
        5.74916         5.52949        0.405013 
        5.76486         5.50488        0.402191 
        5.78054         5.46612          0.3994 
        5.79626         5.42821        0.396628 
          5.812         5.38789        0.393879 
         5.8277         5.34988        0.391165 
        5.84339          5.3275        0.388476 
        5.85911         5.27777        0.385807 
        5.87484         5.26533        0.383163 
        5.89053         5.21637         0.38055 
        5.90623         5.17953         0.37796 
        5.92195         5.15015        0.375389 
        5.93767         5.10202        0.372844 
        5.95336         5.07751        0.370326 
        5.96905         5.06065        0.367833 
        5.98476         5.02561        0.365359 
        6.00048          4.9894        0.362906 
        6.01617         4.95513         0.36048 
        6.03185          4.9245        0.358079 
        6.04756         4.89398        0.355694 
        6.06331         4.85938        0.353325 
        6.07903         4.82747        0.350984 
        6.09473         4.80157        0.348665 
        6.11044          4.7626        0.346365 
        6.12616         4.73389        0.344087 
        6.14186         4.70427        0.341831 
        6.15755          4.6748        0.339595 
        6.17326         4.65133        0.337378 
        6.18898         4.61846        0.335179 
        6.20467         4.58916        0.333004 
        6.22036         4.55628        0.330849 
         6.2361         4.52956        0.328706 
         6.2518         4.49789        0.326587 
        6.26748         4.47503         0.32449 
        6.28319         4.44798        0.322406 
        6.29893         4.42613        0.320339 
        6.31463          4.3941        0.318293 
        6.33033          4.3617        0.316266 
        6.34604         4.34648        0.314254 
        6.36177         4.31064        0.312259 
        6.37747         4.28736        0.310284 
