# k  (h/Mpc)    Pcb(k)  (Mpc/h)^3    Pcb_linear(k) (Mpc/h)^3   ShotnoiseSubtracted = true
      0.0200456         24858.5         25315.8 
      0.0350414         19002.3         18403.7 
      0.0492313         13037.8         13371.8 
      0.0637834         10505.5         11115.9 
      0.0800726         8236.43         8822.39 
       0.096163         6660.28         6401.41 
       0.111083         5424.77         5105.93 
       0.126058         4480.79         4524.89 
       0.142273         3939.55         3833.58 
       0.158546         3231.05         3027.72 
        0.17375         2906.82         2550.85 
       0.188953         2772.73         2309.74 
       0.204907         2387.47         2043.65 
       0.220756          2165.5         1729.05 
        0.23588          1934.6         1504.12 
         0.2514         1759.77         1366.48 
       0.267535            1693         1236.43 
       0.283568         1517.95         1090.37 
       0.299022          1445.6          971.46 
       0.314451         1509.16         887.849 
       0.330372         1349.71         814.502 
       0.346141         1239.83         739.284 
       0.361624          1189.1         671.908 
       0.377134            1145         618.262 
       0.392932         1086.51         572.065 
       0.408854         1046.49         527.334 
       0.424564         1025.33         486.051 
       0.440253         957.694         450.626 
       0.455999         915.688         419.822 
       0.471626         928.175         391.514 
        0.48727         878.359         365.033 
       0.502856         852.268         341.244 
       0.518488         820.675         320.017 
       0.534347          794.25         300.285 
       0.550082          758.57          282.09 
       0.565732         744.825         265.445 
       0.581496         728.769         250.199 
       0.597222         717.373         236.218 
       0.612804         698.635         223.361 
       0.628434         670.908         211.378 
       0.644267          653.74         200.175 
       0.660051         646.896         189.849 
       0.675724         635.276         180.315 
       0.691403         612.769         171.427 
       0.707174         597.622         163.088 
       0.722871         594.063         155.337 
        0.73838         577.427         148.173 
       0.754018         566.925         141.407 
       0.769845         558.228         134.989 
        0.78569         545.807         128.964 
       0.801365         529.317         123.368 
       0.817031         523.605         118.108 
       0.832809         514.727         113.123 
       0.848511         506.378          108.45 
       0.864097         497.105         104.073 
       0.879701         498.245         99.9359 
       0.895507         478.694         95.9754 
       0.911279         473.572         92.2389 
        0.92691         466.157         88.7331 
       0.942635         459.773          85.391 
       0.958396         447.952         82.2148 
       0.974128         440.564         79.2065 
       0.989692         430.344         76.3792 
        1.00528         424.481         73.6863 
        1.02113          417.27         71.0815 
        1.03692         411.411         68.6128 
        1.05264          406.35         66.2732 
        1.06832         396.697         64.0467 
        1.08405         395.519         61.9171 
        1.09979         386.063         59.8834 
        1.11537         377.359         57.9615 
        1.13105         372.807         56.1129 
        1.14679         366.224          54.338 
        1.16256         364.115         52.6368 
        1.17828         358.514         51.0143 
        1.19395         349.931         49.4658 
         1.2097         345.565         47.9741 
        1.22537         340.958         46.5512 
          1.241         333.993         45.1906 
        1.25666         330.712         43.8811 
        1.27241          327.28         42.6176 
        1.28819         318.555         41.4018 
        1.30392         317.841         40.2372 
        1.31957         310.543         39.1227 
        1.33529         305.939         38.0464 
        1.35108          305.11         37.0066 
        1.36674         297.101         36.0131 
         1.3824         292.304         35.0571 
        1.39811         288.641         34.1328 
        1.41389         283.813         33.2383 
        1.42964         279.595         32.3775 
        1.44531         275.505         31.5515 
        1.46101         270.265         30.7526 
        1.47667         268.419         29.9838 
        1.49229         264.788         29.2434 
        1.50793         259.849         28.5273 
        1.52367         255.729         27.8306 
        1.53953         252.675         27.1525 
        1.55526         248.547         26.5025 
        1.57092         246.494         25.8766 
        1.58662         241.352         25.2694 
        1.60235         238.001         24.6805 
        1.61809         236.212         24.1102 
        1.63369         231.694          23.563 
        1.64941         228.723         23.0289 
        1.66519         225.388         22.5095 
        1.68085         221.417         22.0098 
        1.69652         218.821         21.5252 
        1.71228         215.503         21.0524 
        1.72806         212.994         20.5935 
        1.74368           210.2         20.1529 
        1.75933           208.4         19.7243 
        1.77505         205.144         19.3063 
        1.79081         202.298         18.8996 
         1.8065         201.205         18.5064 
        1.82218           195.8         18.1248 
        1.83797         194.285         17.7513 
        1.85367         191.586         17.3904 
        1.86928           188.3         17.0417 
        1.88497         186.434         16.7008 
        1.90073         184.876         16.3679 
        1.91647         181.771         16.0444 
        1.93218         178.639         15.7303 
        1.94787         176.186         15.4251 
        1.96363         175.208         15.1268 
        1.97935         172.874         14.8371 
        1.99499         170.522         14.5565 
        2.01064         166.967         14.2829 
         2.0264         166.282         14.0145 
        2.04216         163.162         13.7532 
        2.05781         161.213         13.5002 
        2.07353         160.166         13.2527 
        2.08928         158.221         13.0108 
        2.10499         155.573         12.7757 
        2.12065         154.022          12.547 
        2.13633         151.798         12.3238 
        2.15211         149.782         12.1046 
        2.16785          148.39         11.8913 
        2.18349         146.543         11.6845 
        2.19916         144.753         11.4822 
        2.21489         142.372          11.284 
        2.23063         140.765         11.0904 
         2.2463         139.005         10.9022 
        2.26194         137.806         10.7188 
        2.27765         135.629         10.5387 
        2.29341         134.461         10.3623 
        2.30914         132.501         10.1903 
        2.32486         131.136         10.0223 
        2.34061         128.886         9.85776 
        2.35635         127.823         9.69711 
        2.37203         126.326         9.54059 
        2.38768         125.154         9.38786 
        2.40339         123.155         9.23791 
        2.41914         121.386          9.0909 
        2.43483          120.21         8.94761 
         2.4505          119.42         8.80765 
        2.46622         117.123          8.6702 
        2.48195         116.056         8.53568 
        2.49759         114.157         8.40473 
        2.51328         113.115          8.2762 
        2.52906          112.13         8.14953 
        2.54479         110.531           8.026 
        2.56049          109.21         7.90526 
        2.57618         107.962         7.78711 
        2.59189         107.273         7.67121 
        2.60758         105.623         7.55784 
        2.62325         104.338         7.44691 
        2.63898         102.968         7.33781 
        2.65468         102.091         7.23113 
        2.67044         101.196         7.12612 
        2.68618         99.6441         7.02343 
        2.70184          98.742         6.92318 
        2.71755         97.5344         6.82464 
        2.73329         96.0939         6.72786 
        2.74897         95.2614         6.63328 
        2.76462         94.7542         6.54073 
        2.78034         93.5886         6.44956 
        2.79607         92.1115         6.36003 
        2.81179         91.2739          6.2723 
        2.82749         90.6012         6.18633 
        2.84321         89.1278         6.10188 
        2.85893         88.0034         6.01902 
        2.87462         87.3409         5.93785 
        2.89033         86.3084          5.8581 
        2.90605         85.3156         5.77975 
        2.92176         84.6768         5.70287 
        2.93747         83.6816         5.62742 
        2.95318         82.4986         5.55333 
        2.96891         82.1465         5.48054 
        2.98456         80.6471         5.40937 
        3.00023         80.0027         5.33937 
        3.01596         79.5355         5.27038 
        3.03164         78.3034         5.20281 
        3.04738         77.9478         5.13623 
         3.0631         76.8658         5.07084 
        3.07883         76.0799         5.00658 
        3.09456         75.1139         4.94345 
        3.11026         74.7204          4.8815 
        3.12596         73.6432         4.82062 
        3.14163          73.057         4.76092 
        3.15734         72.0456         4.70209 
        3.17308         71.5938         4.64411 
        3.18879          70.796         4.58727 
        3.20447          70.225         4.53146 
         3.2202         69.0966         4.47641 
         3.2359         68.6553         4.42237 
        3.25157         67.9498         4.36935 
        3.26729         67.0635         4.31704 
        3.28304          66.383         4.26549 
        3.29877         65.8697         4.21484 
        3.31446         65.0101         4.16513 
        3.33014          64.497         4.11626 
        3.34585         63.7389          4.0681 
        3.36158         63.2616         4.02064 
        3.37727         62.6251         3.97408 
        3.39294         61.9075         3.92831 
        3.40867         61.5091         3.88309 
        3.42439         60.6034         3.83861 
        3.44008         60.0551         3.79491 
        3.45578         59.5804         3.75186 
        3.47153         59.0165         3.70938 
        3.48724         58.3626         3.66763 
        3.50292         57.9312         3.62662 
        3.51859         57.3152         3.58626 
        3.53431         56.7091         3.54639 
        3.55007         55.9904         3.50703 
        3.56577         55.4741         3.46842 
        3.58146          55.024          3.4304 
        3.59719         54.5841         3.39287 
        3.61292         53.9715         3.35592 
        3.62859         53.5818         3.31965 
        3.64429         53.0504         3.28385 
        3.66003         52.4576         3.24847 
        3.67578         51.9255         3.21362 
        3.69146         51.5344         3.17941 
        3.70712         50.9943         3.14577 
        3.72284         50.4553         3.11248 
        3.73853         50.1351         3.07974 
        3.75422         49.7032         3.04745 
        3.76993         49.2114          3.0156 
        3.78564         48.7303         2.98422 
        3.80137         48.1733         2.95323 
        3.81707         47.7503         2.92274 
        3.83279         47.3343         2.89267 
        3.84853         46.9476         2.86296 
        3.86424         46.4966         2.83374 
        3.87992          46.003         2.80496 
        3.89561         45.7524         2.77658 
        3.91134         45.1677         2.74854 
        3.92704         44.9016         2.72091 
        3.94273         44.4645         2.69369 
        3.95845         43.9374          2.6668 
        3.97418          43.578         2.64026 
        3.98988         43.2408         2.61413 
        4.00554         42.7979         2.58841 
        4.02125         42.3741         2.56297 
        4.03698         42.0813         2.53783 
        4.05268         41.7023         2.51309 
        4.06839         41.3313         2.48866 
         4.0841         40.9948         2.46456 
        4.09983         40.7054         2.44074 
        4.11555         40.3567         2.41725 
        4.13124         39.7635         2.39414 
        4.14693         39.5429          2.3713 
        4.16266         39.2316         2.34871 
        4.17839         38.7483         2.32643 
        4.19408         38.5435         2.30449 
        4.20977         38.1195         2.28282 
        4.22551         37.8157         2.26137 
        4.24123         37.4773         2.24023 
        4.25691          37.123         2.21941 
        4.27259         36.8129         2.19885 
        4.28831         36.5777         2.17851 
        4.30404         36.2901         2.15841 
        4.31974         35.8681          2.1386 
        4.33543         35.5089         2.11906 
        4.35116         35.2964         2.09971 
        4.36688         34.9267         2.08061 
        4.38255         34.6944         2.06182 
        4.39825         34.4822         2.04322 
        4.41398         34.2213         2.02481 
         4.4297         33.8064         2.00665 
        4.44541         33.6251         1.98871 
        4.46111          33.319         1.97101 
        4.47683         33.0837         1.95351 
        4.49251         32.7632         1.93626 
        4.50819         32.4726         1.91922 
         4.5239         32.1452         1.90236 
        4.53962         31.9014         1.88568 
        4.55535         31.6497         1.86919 
        4.57106         31.3364         1.85293 
        4.58678         31.1684         1.83685 
         4.6025          30.878         1.82096 
        4.61821         30.6611         1.80527 
        4.63391         30.3773         1.78977 
         4.6496         30.1764         1.77447 
        4.66532         29.9039         1.75932 
        4.68103         29.5544         1.74435 
        4.69673          29.433         1.72958 
        4.71241         29.1235         1.71498 
        4.72811         28.9053         1.70054 
        4.74384          28.729         1.68624 
        4.75955         28.5545         1.67212 
        4.77525         28.2777         1.65818 
        4.79096         28.0564         1.64437 
        4.80669         27.8173         1.63072 
         4.8224          27.613         1.61724 
        4.83809         27.3526         1.60393 
        4.85379         27.2026         1.59075 
         4.8695         26.9265         1.57772 
        4.88521         26.7343         1.56483 
        4.90093         26.5247         1.55209 
        4.91663         26.3474          1.5395 
        4.93234         26.1302         1.52703 
        4.94807         25.8794          1.5147 
        4.96377          25.697         1.50253 
        4.97943         25.5313         1.49051 
        4.99514         25.3622          1.4786 
        5.01086         25.1667          1.4668 
        5.02654         24.9377         1.45517 
        5.04227         24.6949         1.44362 
          5.058           24.51          1.4322 
        5.07371         24.3678         1.42092 
        5.08942         24.1804         1.40976 
        5.10513         23.9531         1.39872 
        5.12084         23.7553          1.3878 
        5.13656          23.583         1.37699 
        5.15225         23.4585         1.36631 
        5.16796         23.2166         1.35574 
        5.18369          23.056         1.34526 
         5.1994          22.859         1.33491 
        5.21509         22.6914         1.32468 
        5.23079         22.5516         1.31455 
        5.24649         22.3764         1.30453 
        5.26217         22.1951         1.29462 
        5.27788         22.0403          1.2848 
        5.29359         21.8563         1.27508 
        5.30933         21.6516         1.26545 
        5.32504         21.5553         1.25593 
        5.34073         21.3761         1.24652 
        5.35646         21.1822         1.23719 
        5.37218         21.0438         1.22795 
        5.38789         20.9235         1.21883 
        5.40357         20.7422          1.2098 
        5.41929         20.5975         1.20085 
        5.43502          20.419         1.19198 
         5.4507         20.3257         1.18323 
        5.46639         20.1526         1.17456 
        5.48212         20.0346         1.16596 
        5.49786         19.8661         1.15743 
        5.51353         19.6945         1.14903 
        5.52921         19.5536         1.14071 
        5.54495         19.4446         1.13245 
        5.56066         19.2379         1.12427 
        5.57637           19.11         1.11618 
        5.59207         18.9982         1.10817 
        5.60778         18.8883         1.10024 
        5.62346         18.6899          1.0924 
        5.63916         18.5755         1.08463 
        5.65487         18.4459         1.07693 
         5.6706         18.3201         1.06929 
        5.68633         18.1986         1.06173 
        5.70203         18.0555         1.05425 
        5.71773         17.9612         1.04685 
        5.73344           17.83         1.03951 
        5.74916         17.6769         1.03224 
        5.76486         17.5731         1.02505 
        5.78054         17.4051         1.01794 
        5.79626         17.3634         1.01087 
          5.812         17.1732         1.00387 
         5.8277         17.0401        0.996947 
        5.84339         16.9621        0.990093 
        5.85911         16.8276        0.983291 
        5.87484         16.6953        0.976554 
        5.89053         16.5871        0.969893 
        5.90623         16.4914        0.963291 
        5.92195         16.3295        0.956739 
        5.93767         16.2448        0.950252 
        5.95336         16.1435        0.943835 
        5.96905         16.0325        0.937481 
        5.98476         15.9308        0.931175 
        6.00048         15.8117        0.924926 
        6.01617         15.6819        0.918742 
        6.03185         15.5886        0.912622 
        6.04756         15.4903        0.906543 
        6.06331         15.3978        0.900507 
        6.07903         15.2495        0.894538 
        6.09473         15.1649        0.888629 
        6.11044         15.0824        0.882768 
        6.12616         14.9745         0.87696 
        6.14186         14.8617        0.871211 
        6.15755          14.757        0.865513 
        6.17326         14.7006        0.859862 
        6.18898         14.5742        0.854259 
        6.20467          14.455        0.848715 
        6.22036         14.3527        0.843221 
         6.2361         14.2568        0.837761 
         6.2518         14.1641        0.832359 
        6.26748         14.0875        0.827015 
        6.28319         13.9922        0.821704 
        6.29893         13.8869        0.816435 
        6.31463         13.8038        0.811221 
        6.33033         13.7162        0.806054 
        6.34604         13.6188        0.800928 
        6.36177         13.5463        0.795842 
        6.37747         13.4324         0.79081 
