# k  (h/Mpc)    Pcb(k)  (Mpc/h)^3    Pcb_linear(k) (Mpc/h)^3   ShotnoiseSubtracted = true
      0.0200456         14480.1         14779.4 
      0.0350414         10363.5         10744.1 
      0.0492313         7706.11         7806.48 
      0.0637834         6618.33         6489.46 
      0.0800726         5231.97         5150.52 
       0.096163         3643.84         3737.15 
       0.111083         2907.02         2980.85 
       0.126058         2680.72         2641.64 
       0.142273          2318.2         2238.05 
       0.158546         1970.01         1767.59 
        0.17375         1576.24         1489.19 
       0.188953         1530.05         1348.43 
       0.204907         1438.05         1193.09 
       0.220756         1231.68         1009.42 
        0.23588         1089.48          878.11 
         0.2514         948.422         797.754 
       0.267535         934.669         721.831 
       0.283568         847.494         636.558 
       0.299022         794.778          567.14 
       0.314451         753.107         518.327 
       0.330372         693.657         475.507 
       0.346141         638.916         431.595 
       0.361624         614.398         392.261 
       0.377134         570.287         360.942 
       0.392932         546.821         333.973 
       0.408854         527.321         307.858 
       0.424564         496.269         283.757 
       0.440253          485.14         263.076 
       0.455999         457.755         245.093 
       0.471626           432.4         228.566 
        0.48727         417.929         213.107 
       0.502856         405.507         199.218 
       0.518488         401.543         186.827 
       0.534347         375.478         175.307 
       0.550082         357.694         164.685 
       0.565732         355.861         154.967 
       0.581496         335.294         146.067 
       0.597222         329.744         137.904 
       0.612804         319.703         130.399 
       0.628434         307.479         123.403 
       0.644267         298.673         116.862 
       0.660051          292.57         110.834 
       0.675724         287.969         105.268 
       0.691403         279.351         100.079 
       0.707174         269.134         95.2111 
       0.722871         265.879         90.6861 
        0.73838         261.502         86.5036 
       0.754018         254.514         82.5533 
       0.769845         245.872         78.8068 
        0.78569         245.607         75.2896 
       0.801365         236.976         72.0221 
       0.817031         229.822         68.9516 
       0.832809         227.705         66.0413 
       0.848511          221.54          63.313 
       0.864097         218.643         60.7582 
       0.879701         214.728         58.3427 
       0.895507         209.397         56.0306 
       0.911279         202.964         53.8492 
        0.92691         203.037         51.8025 
       0.942635          197.83         49.8514 
       0.958396         196.298         47.9971 
       0.974128         191.894         46.2409 
       0.989692         187.426         44.5903 
        1.00528         185.101         43.0181 
        1.02113          183.63         41.4975 
        1.03692         178.464         40.0562 
        1.05264         174.942         38.6904 
        1.06832         171.948         37.3906 
        1.08405         169.192         36.1473 
        1.09979           167.9           34.96 
        1.11537          163.36          33.838 
        1.13105         161.114         32.7588 
        1.14679         160.962         31.7226 
        1.16256         158.052         30.7294 
        1.17828         154.765         29.7822 
        1.19395          152.47         28.8782 
         1.2097         151.479         28.0073 
        1.22537         148.502         27.1767 
          1.241         146.556         26.3823 
        1.25666         144.083         25.6178 
        1.27241         141.583         24.8802 
        1.28819         140.056         24.1704 
        1.30392         137.889         23.4905 
        1.31957         136.944         22.8399 
        1.33529         133.243         22.2116 
        1.35108         132.458         21.6045 
        1.36674         131.135         21.0245 
         1.3824         128.576         20.4664 
        1.39811         128.065         19.9268 
        1.41389         125.638         19.4046 
        1.42964         122.989          18.902 
        1.44531         120.919         18.4198 
        1.46101         119.732         17.9534 
        1.47667         118.248         17.5046 
        1.49229         116.651         17.0724 
        1.50793          115.69         16.6543 
        1.52367          114.24         16.2475 
        1.53953         111.943         15.8517 
        1.55526         110.927         15.4722 
        1.57092         109.612         15.1068 
        1.58662         107.691         14.7523 
        1.60235         107.135         14.4085 
        1.61809         105.012         14.0756 
        1.63369          104.17         13.7561 
        1.64941         103.256         13.4443 
        1.66519         101.099         13.1411 
        1.68085         100.555         12.8493 
        1.69652         98.0007         12.5664 
        1.71228         98.1818         12.2904 
        1.72806         96.7773         12.0225 
        1.74368         95.5133         11.7653 
        1.75933         94.1326         11.5151 
        1.77505          93.096          11.271 
        1.79081         91.7387         11.0336 
         1.8065         90.6785         10.8041 
        1.82218         89.0058         10.5813 
        1.83797         87.9617         10.3632 
        1.85367         87.1312         10.1525 
        1.86928         86.5417           9.949 
        1.88497         84.7979         9.74993 
        1.90073         84.3315         9.55559 
        1.91647         83.1405         9.36672 
        1.93218         82.0045         9.18337 
        1.94787          81.325          9.0052 
        1.96363         79.9182         8.83106 
        1.97935          79.134         8.66189 
        1.99499         78.2487         8.49812 
        2.01064         77.4299         8.33835 
         2.0264         75.9705         8.18169 
        2.04216         75.2184         8.02913 
        2.05781         74.3478         7.88144 
        2.07353         73.0204         7.73693 
        2.08928         72.1012         7.59574 
        2.10499         71.4953         7.45846 
        2.12065         71.0789         7.32498 
        2.13633         70.1236         7.19466 
        2.15211         69.2749         7.06668 
        2.16785          68.447         6.94216 
        2.18349         67.6587         6.82144 
        2.19916         66.8084         6.70333 
        2.21489         66.0685         6.58763 
        2.23063         65.5295         6.47458 
         2.2463         64.5635          6.3647 
        2.26194         64.0792         6.25765 
        2.27765         63.3463         6.15251 
        2.29341         62.4977         6.04952 
        2.30914          61.563         5.94909 
        2.32486         60.8073         5.85101 
        2.34061         60.2162         5.75498 
        2.35635         59.6657         5.66119 
        2.37203         58.7005         5.56981 
        2.38768         58.1172         5.48064 
        2.40339         57.4138         5.39311 
        2.41914         56.9831         5.30728 
        2.43483         56.6581         5.22363 
         2.4505         55.9024         5.14192 
        2.46622         55.2449         5.06168 
        2.48195         54.5647         4.98314 
        2.49759         53.7058          4.9067 
        2.51328         53.2478         4.83165 
        2.52906         52.8484         4.75771 
        2.54479         52.1706         4.68559 
        2.56049         51.4844          4.6151 
        2.57618         51.0687         4.54613 
        2.59189         50.4645         4.47846 
        2.60758          50.132         4.41228 
        2.62325         49.4344         4.34751 
        2.63898          48.991         4.28382 
        2.65468         48.4612         4.22154 
        2.67044         47.6839         4.16024 
        2.68618         47.4091         4.10029 
        2.70184         46.6892         4.04176 
        2.71755         46.5686         3.98423 
        2.73329         45.7151         3.92774 
        2.74897         45.3239         3.87252 
        2.76462         44.8252         3.81849 
        2.78034         44.5246         3.76526 
        2.79607         43.8714         3.71299 
        2.81179         43.4635         3.66178 
        2.82749         42.8245         3.61159 
        2.84321         42.5361         3.56228 
        2.85893         42.0477         3.51391 
        2.87462          41.531         3.46653 
        2.89033         41.1366         3.41997 
        2.90605         40.7442         3.37422 
        2.92176         40.3498         3.32934 
        2.93747         39.9306          3.2853 
        2.95318         39.4909         3.24204 
        2.96891          38.908         3.19955 
        2.98456         38.7442           3.158 
        3.00023         38.2787         3.11713 
        3.01596         37.9232         3.07686 
        3.03164         37.4241         3.03741 
        3.04738         37.2267         2.99854 
         3.0631         36.6929         2.96036 
        3.07883         36.3744         2.92285 
        3.09456         35.9934         2.88599 
        3.11026         35.5652         2.84983 
        3.12596         35.3343         2.81428 
        3.14163         34.9095         2.77943 
        3.15734         34.4017         2.74509 
        3.17308         34.2877         2.71124 
        3.18879         34.0252         2.67805 
        3.20447         33.5101         2.64547 
         3.2202         33.1007         2.61334 
         3.2359         32.8698         2.58179 
        3.25157         32.5258         2.55084 
        3.26729         32.2681          2.5203 
        3.28304         31.8778          2.4902 
        3.29877         31.6141         2.46063 
        3.31446         31.3561         2.43161 
        3.33014         30.9894         2.40308 
        3.34585         30.7402         2.37496 
        3.36158         30.4217         2.34726 
        3.37727         30.0831         2.32008 
        3.39294         29.7908         2.29335 
        3.40867         29.5216         2.26695 
        3.42439         29.2554         2.24098 
        3.44008         29.0872         2.21547 
        3.45578         28.5663         2.19034 
        3.47153          28.355         2.16554 
        3.48724         28.1166         2.14117 
        3.50292         27.8113         2.11723 
        3.51859         27.5903         2.09367 
        3.53431         27.3943         2.07039 
        3.55007         27.0905         2.04741 
        3.56577         26.8253         2.02487 
        3.58146         26.6139         2.00268 
        3.59719         26.2881         1.98076 
        3.61292         26.0736         1.95919 
        3.62859         25.8342         1.93802 
        3.64429         25.5192         1.91712 
        3.66003         25.2979         1.89646 
        3.67578          25.161         1.87611 
        3.69146         24.9013         1.85614 
        3.70712         24.6455          1.8365 
        3.72284         24.5066         1.81707 
        3.73853         24.2632         1.79795 
        3.75422         23.9814         1.77911 
        3.76993         23.8244         1.76051 
        3.78564         23.5097         1.74219 
        3.80137         23.3728          1.7241 
        3.81707          23.168          1.7063 
        3.83279         22.8741         1.68874 
        3.84853         22.5968          1.6714 
        3.86424         22.4413         1.65434 
        3.87992         22.2575         1.63754 
        3.89561         22.0813         1.62097 
        3.91134         21.8932          1.6046 
        3.92704         21.6884         1.58847 
        3.94273         21.4476         1.57258 
        3.95845         21.2722         1.55688 
        3.97418         21.1289         1.54139 
        3.98988         20.9161         1.52613 
        4.00554         20.7575         1.51112 
        4.02125         20.5947         1.49627 
        4.03698         20.3206         1.48159 
        4.05268         20.1723         1.46715 
        4.06839         19.9742         1.45288 
         4.0841         19.8781         1.43881 
        4.09983         19.6902         1.42491 
        4.11555         19.5193          1.4112 
        4.13124         19.2531          1.3977 
        4.14693         19.0805         1.38437 
        4.16266         18.9526         1.37118 
        4.17839         18.7682         1.35817 
        4.19408          18.572         1.34536 
        4.20977         18.5091         1.33271 
        4.22551         18.3232         1.32019 
        4.24123         18.1414         1.30785 
        4.25691         18.0211          1.2957 
        4.27259         17.8393         1.28369 
        4.28831         17.6764         1.27182 
        4.30404         17.5209         1.26008 
        4.31974         17.3498         1.24852 
        4.33543         17.2549         1.23711 
        4.35116         17.1121         1.22581 
        4.36688         16.9272         1.21466 
        4.38255         16.8051         1.20369 
        4.39825         16.6991         1.19283 
        4.41398         16.5124         1.18209 
         4.4297         16.3845         1.17148 
        4.44541         16.2829         1.16101 
        4.46111         16.1214         1.15068 
        4.47683         15.9766         1.14046 
        4.49251         15.8873         1.13039 
        4.50819         15.7118         1.12044 
         4.5239         15.6174          1.1106 
        4.53962         15.4553         1.10086 
        4.55535         15.3506         1.09124 
        4.57106         15.1945         1.08174 
        4.58678         15.1354         1.07236 
         4.6025         14.9678         1.06308 
        4.61821         14.8401         1.05392 
        4.63391         14.7384         1.04487 
         4.6496         14.5935         1.03594 
        4.66532         14.4496         1.02709 
        4.68103         14.3511         1.01836 
        4.69673         14.2924         1.00973 
        4.71241         14.1517         1.00121 
        4.72811         14.0175        0.992775 
        4.74384         13.9204        0.984427 
        4.75955         13.8053        0.976187 
        4.77525          13.712        0.968046 
        4.79096         13.5951        0.959988 
        4.80669         13.4822        0.952018 
         4.8224         13.3583        0.944148 
        4.83809         13.2708        0.936374 
        4.85379         13.1413        0.928683 
         4.8695         13.0991        0.921073 
        4.88521           12.95        0.913551 
        4.90093         12.8532        0.906111 
        4.91663         12.7909        0.898761 
        4.93234         12.6294        0.891485 
        4.94807         12.5682        0.884284 
        4.96377         12.4471        0.877177 
        4.97943         12.3799        0.870162 
        4.99514         12.2508        0.863206 
        5.01086         12.2001        0.856321 
        5.02654         12.0655        0.849528 
        5.04227         11.9997        0.842789 
          5.058         11.9141         0.83612 
        5.07371         11.8196        0.829536 
        5.08942         11.7189        0.823022 
        5.10513          11.634        0.816577 
        5.12084         11.5388        0.810198 
        5.13656         11.4592        0.803889 
        5.15225         11.3549        0.797657 
        5.16796          11.307        0.791481 
        5.18369         11.1898        0.785365 
         5.1994         11.1264        0.779324 
        5.21509         11.0298        0.773353 
        5.23079         10.9728        0.767437 
        5.24649         10.8871        0.761587 
        5.26217         10.7804        0.755803 
        5.27788         10.7035         0.75007 
        5.29359         10.6593        0.744396 
        5.30933         10.5689        0.738772 
        5.32504         10.5015        0.733216 
        5.34073         10.4049        0.727723 
        5.35646         10.3329        0.722275 
        5.37218         10.2612        0.716882 
        5.38789         10.1828        0.711552 
        5.40357         10.1133        0.706283 
        5.41929         10.0221        0.701055 
        5.43502         9.99252         0.69588 
         5.4507          9.8885        0.690769 
        5.46639         9.83014        0.685709 
        5.48212         9.76933        0.680688 
        5.49786         9.67615         0.67571 
        5.51353          9.6131        0.670808 
        5.52921         9.53369        0.665949 
        5.54495         9.46305        0.661124 
        5.56066         9.39944        0.656351 
        5.57637         9.32227        0.651627 
        5.59207          9.2788        0.646953 
        5.60778         9.19546        0.642323 
        5.62346         9.14289        0.637745 
        5.63916         9.07009        0.633208 
        5.65487         9.01075        0.628712 
         5.6706         8.95265        0.624254 
        5.68633         8.87769        0.619838 
        5.70203         8.83748        0.615473 
        5.71773         8.76766        0.611152 
        5.73344         8.70115         0.60687 
        5.74916         8.62954        0.602624 
        5.76486         8.59597        0.598425 
        5.78054         8.52099        0.594273 
        5.79626         8.44783        0.590148 
          5.812         8.40716        0.586058 
         5.8277         8.34075        0.582019 
        5.84339          8.2903        0.578018 
        5.85911         8.22887        0.574047 
        5.87484         8.17084        0.570113 
        5.89053          8.1167        0.566225 
        5.90623         8.05281        0.562371 
        5.92195         8.01523        0.558546 
        5.93767         7.96189        0.554758 
        5.95336         7.90193        0.551012 
        5.96905         7.83175        0.547302 
        5.98476         7.80487        0.543621 
        6.00048         7.74651        0.539973 
        6.01617         7.70253        0.536363 
        6.03185         7.64402         0.53279 
        6.04756         7.57851        0.529241 
        6.06331         7.54474        0.525717 
        6.07903         7.49818        0.522233 
        6.09473         7.42712        0.518783 
        6.11044         7.39571        0.515361 
        6.12616         7.33842        0.511971 
        6.14186         7.28496        0.508614 
        6.15755          7.2301        0.505288 
        6.17326         7.19558        0.501989 
        6.18898         7.15177        0.498717 
        6.20467         7.10072        0.495481 
        6.22036         7.05236        0.492274 
         6.2361         7.00995        0.489086 
         6.2518         6.96391        0.485932 
        6.26748         6.90517        0.482813 
        6.28319         6.86534        0.479712 
        6.29893         6.83269        0.476636 
        6.31463         6.78971        0.473592 
        6.33033         6.74686        0.470575 
        6.34604         6.69668        0.467583 
        6.36177         6.64388        0.464614 
        6.37747          6.6192        0.461676 
