# k  (h/Mpc)    Pcb(k)  (Mpc/h)^3    Pcb_linear(k) (Mpc/h)^3   ShotnoiseSubtracted = true
      0.0200456         13168.6         13370.9 
      0.0350414         9986.35         9720.18 
      0.0492313          6982.4         7062.49 
      0.0637834         5645.41         5870.99 
      0.0800726         4444.58         4659.66 
       0.096163         3500.29         3380.99 
       0.111083         2845.89         2696.76 
       0.126058         2367.78         2389.88 
       0.142273         2047.22         2024.75 
       0.158546         1681.42         1599.13 
        0.17375         1475.46         1347.27 
       0.188953         1371.88         1219.92 
       0.204907         1173.13         1079.38 
       0.220756         1052.79         913.221 
        0.23588         936.481         794.423 
         0.2514          839.13         721.725 
       0.267535         814.108         653.038 
       0.283568         712.996         575.891 
       0.299022         680.338         513.089 
       0.314451         691.428         468.929 
       0.330372         594.887          430.19 
       0.346141         550.613         390.463 
       0.361624         526.598         354.877 
       0.377134         494.904         326.543 
       0.392932         478.908         302.144 
       0.408854         455.787         278.518 
       0.424564         441.262         256.714 
       0.440253         400.279         238.004 
       0.455999         383.382         221.734 
       0.471626         386.326         206.783 
        0.48727          365.87         192.797 
       0.502856          337.23         180.232 
       0.518488          337.96         169.021 
       0.534347         314.599         158.599 
       0.550082         304.497          148.99 
       0.565732         302.854         140.198 
       0.581496         289.215         132.146 
       0.597222         281.117         124.762 
       0.612804         273.754         117.971 
       0.628434         263.386         111.642 
       0.644267         252.182         105.725 
       0.660051         248.247         100.271 
       0.675724         245.177         95.2355 
       0.691403         238.642         90.5414 
       0.707174         230.111         86.1372 
       0.722871         226.617         82.0434 
        0.73838         224.497         78.2595 
       0.754018          213.39         74.6857 
       0.769845         213.128         71.2962 
        0.78569         207.707         68.1143 
       0.801365         202.002         65.1582 
       0.817031         197.759         62.3802 
       0.832809         194.506         59.7474 
       0.848511         189.641          57.279 
       0.864097         185.358         54.9678 
       0.879701         184.254         52.7824 
       0.895507         179.828         50.6907 
       0.911279         174.551         48.7172 
        0.92691         172.205         46.8655 
       0.942635         170.244         45.1004 
       0.958396         166.705         43.4228 
       0.974128         163.502          41.834 
       0.989692         158.748         40.3407 
        1.00528         157.816         38.9184 
        1.02113         154.331         37.5426 
        1.03692         152.097         36.2387 
        1.05264         149.958          35.003 
        1.06832         147.987         33.8271 
        1.08405         144.784         32.7023 
        1.09979         143.926         31.6282 
        1.11537         140.722         30.6131 
        1.13105         139.043         29.6367 
        1.14679         136.908         28.6993 
        1.16256         134.606         27.8008 
        1.17828          133.09         26.9438 
        1.19395         129.892          26.126 
         1.2097         129.043         25.3381 
        1.22537         127.021         24.5866 
          1.241         125.209          23.868 
        1.25666         122.465         23.1764 
        1.27241         119.959          22.509 
        1.28819         119.341         21.8669 
        1.30392          117.25         21.2518 
        1.31957          115.24         20.6632 
        1.33529         114.034         20.0947 
        1.35108         112.828         19.5455 
        1.36674         110.702         19.0208 
         1.3824          110.37         18.5159 
        1.39811         107.529         18.0277 
        1.41389         106.667         17.5552 
        1.42964         104.444         17.1006 
        1.44531         103.617         16.6643 
        1.46101         101.878         16.2424 
        1.47667         101.474         15.8363 
        1.49229         100.294         15.4453 
        1.50793         98.3093         15.0671 
        1.52367         97.2953         14.6991 
        1.53953         96.1103          14.341 
        1.55526         94.7677         13.9977 
        1.57092         94.1329          13.667 
        1.58662         92.7412         13.3463 
        1.60235         91.1837         13.0353 
        1.61809         90.5096         12.7341 
        1.63369         88.8542         12.4451 
        1.64941         88.8488          12.163 
        1.66519         86.9981         11.8887 
        1.68085         85.8395         11.6248 
        1.69652         84.4631         11.3688 
        1.71228          83.617         11.1191 
        1.72806         82.9722         10.8767 
        1.74368         81.5159          10.644 
        1.75933         80.8679         10.4177 
        1.77505         80.0811         10.1969 
        1.79081         78.6609         9.98207 
         1.8065         78.2037         9.77439 
        1.82218         76.7884         9.57282 
        1.83797         76.4103         9.37557 
        1.85367         74.9577         9.18497 
        1.86928         74.3215         9.00082 
        1.88497         73.6234         8.82073 
        1.90073         72.7185          8.6449 
        1.91647         71.5624         8.47404 
        1.93218         70.8307         8.30816 
        1.94787         69.9483         8.14697 
        1.96363         69.0995         7.98943 
        1.97935         68.4741         7.83639 
        1.99499          67.672         7.68822 
        2.01064         66.8446         7.54367 
         2.0264         65.8995         7.40194 
        2.04216          65.178         7.26393 
        2.05781         64.4645         7.13031 
        2.07353         63.7392         6.99958 
        2.08928         62.9324         6.87184 
        2.10499         62.2353         6.74764 
        2.12065         61.7106         6.62689 
        2.13633         61.1378         6.50899 
        2.15211         60.1948          6.3932 
        2.16785         59.2353         6.28055 
        2.18349         58.7753         6.17133 
        2.19916         58.0349         6.06448 
        2.21489         57.4556          5.9598 
        2.23063         56.7049         5.85753 
         2.2463         56.2073         5.75812 
        2.26194         55.8281         5.66127 
        2.27765         54.9316         5.56615 
        2.29341         54.2777         5.47298 
        2.30914          53.598         5.38212 
        2.32486         52.9599         5.29339 
        2.34061         52.6331         5.20651 
        2.35635         51.7696         5.12165 
        2.37203         51.3503         5.03899 
        2.38768         50.8711         4.95832 
        2.40339         50.3009         4.87912 
        2.41914         49.6947         4.80148 
        2.43483         49.0615          4.7258 
         2.4505         48.7217         4.65187 
        2.46622         48.1693         4.57928 
        2.48195         47.5467         4.50823 
        2.49759         46.9853         4.43907 
        2.51328         46.6838         4.37118 
        2.52906         46.0107         4.30428 
        2.54479         45.6558         4.23903 
        2.56049         44.8287         4.17527 
        2.57618         44.5509         4.11287 
        2.59189         44.1454         4.05165 
        2.60758         43.4313         3.99177 
        2.62325         43.1806         3.93318 
        2.63898         42.7304         3.87556 
        2.65468         42.3229         3.81922 
        2.67044         41.9179         3.76375 
        2.68618         41.5289         3.70952 
        2.70184         40.8164         3.65657 
        2.71755         40.6021         3.60452 
        2.73329         39.9934         3.55341 
        2.74897         39.8089         3.50345 
        2.76462         39.2133         3.45457 
        2.78034         38.8919         3.40642 
        2.79607         38.4067         3.35913 
        2.81179         38.0766          3.3128 
        2.82749         37.6143         3.26739 
        2.84321         37.2222         3.22279 
        2.85893         36.7904         3.17903 
        2.87462         36.3932         3.13615 
        2.89033         36.1474         3.09403 
        2.90605         35.6639         3.05265 
        2.92176         35.4779         3.01204 
        2.93747         35.1462          2.9722 
        2.95318         34.7205         2.93306 
        2.96891         34.2864         2.89462 
        2.98456         34.0747         2.85703 
        3.00023         33.6627         2.82006 
        3.01596         33.3408         2.78362 
        3.03164         32.9807         2.74793 
        3.04738         32.6955         2.71277 
         3.0631         32.4699         2.67823 
        3.07883         32.0133         2.64429 
        3.09456         31.5803         2.61095 
        3.11026         31.3158         2.57823 
        3.12596         31.0472         2.54607 
        3.14163         30.7427         2.51454 
        3.15734         30.4309         2.48347 
        3.17308          30.124         2.45285 
        3.18879         29.8034         2.42283 
        3.20447         29.5409         2.39335 
         3.2202         29.2488         2.36428 
         3.2359         28.9429         2.33573 
        3.25157         28.7538         2.30773 
        3.26729         28.3997          2.2801 
        3.28304         28.0655         2.25287 
        3.29877         27.7313         2.22612 
        3.31446         27.5158         2.19987 
        3.33014         27.3008         2.17406 
        3.34585         27.0105         2.14862 
        3.36158         26.8047         2.12355 
        3.37727         26.4946         2.09896 
        3.39294         26.2227         2.07479 
        3.40867         25.9739          2.0509 
        3.42439         25.7956         2.02741 
        3.44008         25.5197         2.00433 
        3.45578          25.382         1.98159 
        3.47153         25.0185         1.95916 
        3.48724         24.7861         1.93711 
        3.50292         24.5728         1.91545 
        3.51859         24.2955         1.89413 
        3.53431         24.0919         1.87307 
        3.55007         23.8446         1.85228 
        3.56577         23.6289         1.83189 
        3.58146         23.4589         1.81181 
        3.59719         23.2106         1.79199 
        3.61292         23.0015         1.77247 
        3.62859          22.803         1.75332 
        3.64429         22.5314         1.73441 
        3.66003         22.4136         1.71572 
        3.67578         22.1832         1.69731 
        3.69146         21.9661         1.67925 
        3.70712         21.8051         1.66148 
        3.72284         21.6086          1.6439 
        3.73853         21.4288          1.6266 
        3.75422         21.1142         1.60955 
        3.76993         20.9698         1.59273 
        3.78564         20.7775         1.57615 
        3.80137         20.6009         1.55979 
        3.81707         20.4514         1.54369 
        3.83279         20.2573          1.5278 
        3.84853         20.0517         1.51211 
        3.86424         19.8697         1.49667 
        3.87992         19.6843         1.48148 
        3.89561         19.5691         1.46649 
        3.91134         19.2843         1.45167 
        3.92704          19.203         1.43708 
        3.94273         18.9665         1.42271 
        3.95845         18.8357          1.4085 
        3.97418         18.6233         1.39449 
        3.98988         18.4959         1.38068 
        4.00554         18.3959          1.3671 
        4.02125         18.1308         1.35367 
        4.03698         17.9734         1.34039 
        4.05268         17.8496         1.32732 
        4.06839         17.7248         1.31442 
         4.0841         17.5143         1.30169 
        4.09983         17.3584         1.28911 
        4.11555         17.2003          1.2767 
        4.13124         17.1116         1.26449 
        4.14693         16.9426         1.25243 
        4.16266         16.8467          1.2405 
        4.17839         16.6665         1.22873 
        4.19408         16.4981         1.21714 
        4.20977         16.3898          1.2057 
        4.22551         16.2347         1.19437 
        4.24123         16.0961         1.18321 
        4.25691         15.8976         1.17221 
        4.27259         15.8353         1.16135 
        4.28831         15.7328         1.15061 
        4.30404         15.5581         1.13999 
        4.31974         15.4697         1.12953 
        4.33543         15.3211         1.11921 
        4.35116         15.1549         1.10899 
        4.36688         15.0676          1.0989 
        4.38255         14.9453         1.08897 
        4.39825         14.7555         1.07915 
        4.41398         14.7005         1.06943 
         4.4297         14.5504         1.05984 
        4.44541         14.4058         1.05036 
        4.46111         14.3247         1.04101 
        4.47683         14.1687         1.03177 
        4.49251         14.0713         1.02266 
        4.50819         13.9547         1.01366 
         4.5239         13.8303         1.00475 
        4.53962         13.7479        0.995946 
        4.55535         13.6195        0.987239 
        4.57106         13.5236        0.978648 
        4.58678            13.4        0.970158 
         4.6025         13.3036        0.961766 
        4.61821         13.1894        0.953475 
        4.63391         13.0789        0.945292 
         4.6496          12.958        0.937209 
        4.66532         12.8559        0.929208 
        4.68103         12.7539        0.921303 
        4.69673          12.649        0.913498 
        4.71241         12.5716        0.905791 
        4.72811         12.4655         0.89816 
        4.74384         12.3754        0.890607 
        4.75955         12.2697        0.883153 
        4.77525         12.1646        0.875788 
        4.79096         12.0789        0.868498 
        4.80669         12.0093        0.861288 
         4.8224         11.9067        0.854167 
        4.83809         11.8288        0.847134 
        4.85379         11.7097        0.840176 
         4.8695         11.6156        0.833291 
        4.88521         11.5502        0.826486 
        4.90093         11.4812        0.819756 
        4.91663         11.3832        0.813106 
        4.93234         11.2756        0.806523 
        4.94807         11.2003        0.800009 
        4.96377         11.1037        0.793579 
        4.97943         11.0366        0.787233 
        4.99514         10.9057         0.78094 
        5.01086         10.8451         0.77471 
        5.02654         10.7628        0.768565 
        5.04227         10.6422        0.762468 
          5.058         10.6014        0.756435 
        5.07371         10.5255        0.750478 
        5.08942         10.4657        0.744585 
        5.10513         10.3589        0.738754 
        5.12084            10.3        0.732983 
        5.13656          10.218        0.727275 
        5.15225         10.1267        0.721637 
        5.16796         10.0651         0.71605 
        5.18369         9.99623        0.710517 
         5.1994          9.8878        0.705052 
        5.21509         9.83033         0.69965 
        5.23079         9.73493        0.694297 
        5.24649          9.6827        0.689005 
        5.26217         9.60104        0.683772 
        5.27788         9.54878        0.678586 
        5.29359         9.45717        0.673452 
        5.30933         9.41898        0.668364 
        5.32504         9.33118        0.663338 
        5.34073         9.28323        0.658368 
        5.35646         9.18832        0.653439 
        5.37218         9.13444         0.64856 
        5.38789         9.06247        0.643738 
        5.40357         8.98269        0.638971 
        5.41929         8.94561        0.634242 
        5.43502         8.87769         0.62956 
         5.4507         8.79527        0.624936 
        5.46639         8.75386        0.620358 
        5.48212         8.66888        0.615816 
        5.49786         8.60941        0.611313 
        5.51353          8.5614        0.606877 
        5.52921         8.50622        0.602481 
        5.54495         8.44359        0.598116 
        5.56066          8.3666        0.593799 
        5.57637         8.31922        0.589525 
        5.59207         8.26131        0.585296 
        5.60778         8.19649        0.581108 
        5.62346         8.14414        0.576966 
        5.63916         8.09499        0.572861 
        5.65487         8.03604        0.568793 
         5.6706         7.97804         0.56476 
        5.68633         7.91561        0.560765 
        5.70203         7.84853        0.556817 
        5.71773         7.81127        0.552907 
        5.73344         7.76141        0.549033 
        5.74916         7.70768        0.545192 
        5.76486         7.65515        0.541393 
        5.78054          7.5979        0.537636 
        5.79626         7.53462        0.533905 
          5.812         7.50915        0.530205 
         5.8277         7.44942         0.52655 
        5.84339         7.39328        0.522931 
        5.85911         7.33001        0.519338 
        5.87484           7.295         0.51578 
        5.89053         7.23879        0.512262 
        5.90623         7.18085        0.508775 
        5.92195         7.14635        0.505314 
        5.93767         7.09185        0.501888 
        5.95336         7.05735        0.498499 
        5.96905         6.99151        0.495143 
        5.98476         6.94888        0.491812 
        6.00048         6.90791        0.488512 
        6.01617         6.85489        0.485245 
        6.03185         6.81661        0.482013 
        6.04756         6.77037        0.478803 
        6.06331         6.72427        0.475614 
        6.07903         6.67825        0.472462 
        6.09473         6.63445        0.469341 
        6.11044         6.60824        0.466245 
        6.12616         6.54248        0.463178 
        6.14186         6.51128        0.460141 
        6.15755         6.46127        0.457132 
        6.17326         6.43193        0.454147 
        6.18898         6.37903        0.451188 
        6.20467         6.33385         0.44826 
        6.22036         6.30198        0.445358 
         6.2361         6.25095        0.442475 
         6.2518         6.21201        0.439621 
        6.26748         6.17154        0.436799 
        6.28319         6.13104        0.433994 
        6.29893         6.10301        0.431211 
        6.31463         6.05241        0.428457 
        6.33033         6.02224        0.425728 
        6.34604         5.97851        0.423021 
        6.36177         5.93252        0.420334 
        6.37747         5.91013        0.417676 
