# k  (h/Mpc)    Pcb(k)  (Mpc/h)^3    Pcb_linear(k) (Mpc/h)^3   ShotnoiseSubtracted = true
      0.0200456         14823.3         15131.9 
      0.0350414         10604.6         11000.4 
      0.0492313         7886.58         7992.68 
      0.0637834         6776.25         6644.25 
      0.0800726         5356.29         5273.37 
       0.096163         3729.27         3826.29 
       0.111083         2976.13         3051.95 
       0.126058         2744.53         2704.65 
       0.142273         2373.61         2291.43 
       0.158546         2020.25         1809.75 
        0.17375         1616.13         1524.71 
       0.188953         1569.59         1380.59 
       0.204907         1475.28         1221.54 
       0.220756         1264.48          1033.5 
        0.23588         1119.04         899.055 
         0.2514         973.948         816.783 
       0.267535         960.806         739.048 
       0.283568         871.176         651.741 
       0.299022         817.442         580.668 
       0.314451         775.084         530.691 
       0.330372         713.799         486.849 
       0.346141         658.573          441.89 
       0.361624         633.287         401.617 
       0.377134         587.798         369.551 
       0.392932         563.988         341.939 
       0.408854         544.251         315.201 
       0.424564         511.664         290.526 
       0.440253          500.61         269.351 
       0.455999         472.598         250.939 
       0.471626         447.027         234.018 
        0.48727          431.82          218.19 
       0.502856         419.133          203.97 
       0.518488         414.995         191.283 
       0.534347         387.913         179.488 
       0.550082         370.018         168.613 
       0.565732         368.437         158.663 
       0.581496         346.937         149.551 
       0.597222         341.355         141.194 
       0.612804         331.111         133.509 
       0.628434         318.523         126.346 
       0.644267         309.496          119.65 
       0.660051          302.82         113.478 
       0.675724         298.259         107.779 
       0.691403          289.25         102.466 
       0.707174         278.786         97.4821 
       0.722871         275.352         92.8492 
        0.73838         270.983          88.567 
       0.754018         263.648         84.5225 
       0.769845         254.802         80.6866 
        0.78569         254.562         77.0855 
       0.801365         245.604         73.7401 
       0.817031         238.149         70.5962 
       0.832809         236.077         67.6166 
       0.848511         229.631         64.8232 
       0.864097         226.559         62.2075 
       0.879701          222.68         59.7343 
       0.895507         217.239         57.3671 
       0.911279         210.432         55.1336 
        0.92691         210.498         53.0381 
       0.942635         205.094         51.0405 
       0.958396         203.298         49.1419 
       0.974128         198.888         47.3439 
       0.989692         194.327         45.6539 
        1.00528          191.95         44.0442 
        1.02113         190.325         42.4873 
        1.03692         185.169         41.0117 
        1.05264         181.492         39.6132 
        1.06832         178.384         38.2824 
        1.08405         175.442         37.0095 
        1.09979         173.941         35.7939 
        1.11537         169.511         34.6451 
        1.13105         166.896         33.5401 
        1.14679         166.873         32.4793 
        1.16256         163.779         31.4624 
        1.17828         160.405         30.4926 
        1.19395         158.012          29.567 
         1.2097         157.153         28.6754 
        1.22537         153.847         27.8249 
          1.241         152.025         27.0116 
        1.25666         149.355         26.2289 
        1.27241         146.766         25.4736 
        1.28819         145.191          24.747 
        1.30392         142.837         24.0508 
        1.31957         142.007         23.3847 
        1.33529         138.107         22.7414 
        1.35108         137.289         22.1198 
        1.36674         135.922          21.526 
         1.3824         133.331         20.9546 
        1.39811         132.871         20.4021 
        1.41389          130.24         19.8674 
        1.42964         127.528         19.3529 
        1.44531         125.471         18.8591 
        1.46101         124.179         18.3816 
        1.47667         122.513         17.9221 
        1.49229         120.903         17.4796 
        1.50793         119.932         17.0515 
        1.52367         118.461         16.6351 
        1.53953         116.008         16.2298 
        1.55526         114.919         15.8413 
        1.57092         113.531         15.4671 
        1.58662         111.629         15.1042 
        1.60235         110.952         14.7522 
        1.61809         108.812         14.4113 
        1.63369         107.852         14.0842 
        1.64941         106.883          13.765 
        1.66519         104.755         13.4545 
        1.68085         104.166         13.1558 
        1.69652         101.532         12.8662 
        1.71228         101.664         12.5836 
        1.72806         100.256         12.3093 
        1.74368         98.9727         12.0459 
        1.75933         97.5471         11.7898 
        1.77505          96.427         11.5399 
        1.79081         95.1074         11.2968 
         1.8065         93.9509         11.0618 
        1.82218         92.2456         10.8336 
        1.83797         91.0764         10.6104 
        1.85367         90.2463         10.3947 
        1.86928         89.5236         10.1863 
        1.88497         87.7626         9.98249 
        1.90073         87.3464         9.78351 
        1.91647         86.0475         9.59014 
        1.93218          84.922         9.40242 
        1.94787         84.1999            9.22 
        1.96363         82.7773         9.04171 
        1.97935         81.8481          8.8685 
        1.99499         81.0466         8.70082 
        2.01064         80.1552         8.53724 
         2.0264         78.6729         8.37684 
        2.04216         77.9237         8.22065 
        2.05781         76.9811         8.06943 
        2.07353         75.5965         7.92148 
        2.08928         74.6799         7.77692 
        2.10499         73.9374         7.63636 
        2.12065         73.5631          7.4997 
        2.13633         72.5737         7.36627 
        2.15211         71.6845         7.23523 
        2.16785         70.7466         7.10775 
        2.18349         69.8991         6.98414 
        2.19916         69.1033         6.86322 
        2.21489         68.2799         6.74476 
        2.23063         67.6466         6.62902 
         2.2463         66.7206         6.51652 
        2.26194         66.3283         6.40691 
        2.27765         65.4395         6.29926 
        2.29341         64.5467         6.19381 
        2.30914         63.6147         6.09099 
        2.32486         62.8708         5.99057 
        2.34061         62.2254         5.89225 
        2.35635         61.6149         5.79622 
        2.37203         60.6317         5.70266 
        2.38768         60.0198         5.61137 
        2.40339         59.3272         5.52175 
        2.41914         58.8221         5.43387 
        2.43483         58.5041         5.34822 
         2.4505         57.6805         5.26456 
        2.46622         57.0053         5.18241 
        2.48195         56.2943           5.102 
        2.49759         55.4399         5.02373 
        2.51328         54.9531          4.9469 
        2.52906         54.5412         4.87119 
        2.54479         53.8356         4.79735 
        2.56049         53.1031         4.72518 
        2.57618         52.6827         4.65456 
        2.59189         52.0163         4.58528 
        2.60758         51.6912         4.51752 
        2.62325          50.984         4.45121 
        2.63898         50.5073           4.386 
        2.65468         50.0042         4.32224 
        2.67044         49.2097         4.25947 
        2.68618         48.8979         4.19809 
        2.70184         48.1742         4.13817 
        2.71755         48.0292         4.07927 
        2.73329         47.1378         4.02142 
        2.74897         46.7335         3.96489 
        2.76462         46.2163         3.90957 
        2.78034         45.8876         3.85507 
        2.79607         45.1939         3.80156 
        2.81179         44.7664         3.74912 
        2.82749         44.1544         3.69774 
        2.84321         43.8286         3.64725 
        2.85893         43.3053         3.59773 
        2.87462         42.7898         3.54921 
        2.89033         42.3543         3.50154 
        2.90605         41.9505         3.45471 
        2.92176         41.5442         3.40875 
        2.93747         41.1142         3.36366 
        2.95318         40.6344         3.31937 
        2.96891         40.0663         3.27586 
        2.98456         39.9003         3.23332 
        3.00023         39.3918         3.19148 
        3.01596         39.0649         3.15025 
        3.03164         38.5162         3.10986 
        3.04738         38.3084         3.07006 
         3.0631         37.7903         3.03097 
        3.07883         37.4445         2.99257 
        3.09456         37.0291         2.95483 
        3.11026         36.5714          2.9178 
        3.12596         36.3747         2.88141 
        3.14163         35.9159         2.84573 
        3.15734         35.3558         2.81056 
        3.17308         35.2878         2.77591 
        3.18879          35.028         2.74193 
        3.20447          34.484         2.70858 
         3.2202         34.0508         2.67567 
         3.2359         33.7843         2.64337 
        3.25157         33.4361         2.61168 
        3.26729         33.1495         2.58041 
        3.28304         32.7411          2.5496 
        3.29877         32.5126         2.51932 
        3.31446         32.2408         2.48961 
        3.33014         31.8478          2.4604 
        3.34585         31.5929         2.43161 
        3.36158         31.2723         2.40324 
        3.37727         30.9256         2.37542 
        3.39294         30.6248         2.34806 
        3.40867         30.3444         2.32103 
        3.42439         30.0647         2.29444 
        3.44008         29.9256         2.26832 
        3.45578         29.3716         2.24258 
        3.47153         29.1422         2.21719 
        3.48724         28.9138         2.19224 
        3.50292         28.6034         2.16773 
        3.51859         28.3665          2.1436 
        3.53431         28.1449         2.11977 
        3.55007         27.8572         2.09624 
        3.56577         27.5855         2.07317 
        3.58146         27.3512         2.05044 
        3.59719         27.0221         2.02801 
        3.61292         26.8122         2.00592 
        3.62859         26.5394         1.98424 
        3.64429         26.2095         1.96284 
        3.66003          25.984         1.94169 
        3.67578          25.829         1.92086 
        3.69146          25.597         1.90042 
        3.70712         25.3295         1.88031 
        3.72284         25.1917         1.86041 
        3.73853         24.9223         1.84084 
        3.75422         24.6427         1.82154 
        3.76993          24.494          1.8025 
        3.78564         24.1812         1.78374 
        3.80137         24.0261         1.76522 
        3.81707         23.8141           1.747 
        3.83279         23.5492         1.72902 
        3.84853         23.2341         1.71127 
        3.86424         23.0578          1.6938 
        3.87992         22.8739          1.6766 
        3.89561          22.682         1.65964 
        3.91134         22.4958         1.64287 
        3.92704         22.2902         1.62636 
        3.94273         22.0491         1.61009 
        3.95845         21.8367         1.59402 
        3.97418         21.7073         1.57816 
        3.98988         21.4788         1.56253 
        4.00554          21.302         1.54716 
        4.02125         21.1671         1.53196 
        4.03698         20.8933         1.51693 
        4.05268         20.7335         1.50214 
        4.06839         20.5234         1.48754 
         4.0841          20.417         1.47313 
        4.09983         20.2378          1.4589 
        4.11555         20.0625         1.44486 
        4.13124         19.7741         1.43104 
        4.14693         19.6142         1.41739 
        4.16266         19.4722         1.40389 
        4.17839         19.2901         1.39057 
        4.19408         19.0886         1.37745 
        4.20977          19.022          1.3645 
        4.22551         18.8195         1.35168 
        4.24123         18.6473         1.33904 
        4.25691         18.5077          1.3266 
        4.27259         18.3379         1.31431 
        4.28831         18.1614         1.30215 
        4.30404         17.9932         1.29014 
        4.31974         17.8416          1.2783 
        4.33543         17.7335         1.26662 
        4.35116         17.5895         1.25505 
        4.36688         17.3993         1.24363 
        4.38255         17.2722          1.2324 
        4.39825         17.1662         1.22128 
        4.41398          16.961         1.21028 
         4.4297         16.8341         1.19943 
        4.44541          16.731         1.18871 
        4.46111         16.5648         1.17812 
        4.47683         16.4232         1.16766 
        4.49251         16.3204         1.15735 
        4.50819         16.1522         1.14717 
         4.5239         16.0548         1.13709 
        4.53962         15.8827         1.12712 
        4.55535         15.7695         1.11727 
        4.57106         15.6121         1.10754 
        4.58678         15.5442         1.09794 
         4.6025         15.3838         1.08844 
        4.61821         15.2565         1.07906 
        4.63391         15.1397          1.0698 
         4.6496         15.0028         1.06065 
        4.66532         14.8564         1.05159 
        4.68103         14.7457         1.04265 
        4.69673          14.685         1.03381 
        4.71241         14.5475         1.02509 
        4.72811         14.4019         1.01646 
        4.74384         14.3094         1.00791 
        4.75955         14.1926        0.999472 
        4.77525          14.097        0.991137 
        4.79096         13.9631        0.982887 
        4.80669         13.8542        0.974726 
         4.8224         13.7249        0.966668 
        4.83809         13.6301        0.958709 
        4.85379         13.4989        0.950835 
         4.8695          13.459        0.943043 
        4.88521         13.3156        0.935341 
        4.90093         13.2116        0.927724 
        4.91663         13.1405        0.920199 
        4.93234         12.9862        0.912749 
        4.94807         12.9103        0.905377 
        4.96377         12.7816          0.8981 
        4.97943         12.7177        0.890918 
        4.99514         12.5857        0.883796 
        5.01086         12.5336        0.876746 
        5.02654         12.3903        0.869792 
        5.04227         12.3288        0.862892 
          5.058          12.231        0.856064 
        5.07371         12.1381        0.849323 
        5.08942         12.0325        0.842653 
        5.10513         11.9597        0.836055 
        5.12084         11.8479        0.829523 
        5.13656          11.771        0.823063 
        5.15225         11.6571        0.816683 
        5.16796         11.6138         0.81036 
        5.18369         11.4905        0.804098 
         5.1994         11.4259        0.797913 
        5.21509         11.3269        0.791799 
        5.23079         11.2609        0.785742 
        5.24649         11.1712        0.779753 
        5.26217         11.0706        0.773831 
        5.27788         10.9888        0.767961 
        5.29359         10.9454        0.762152 
        5.30933         10.8471        0.756394 
        5.32504         10.7868        0.750705 
        5.34073         10.6882        0.745081 
        5.35646         10.6105        0.739503 
        5.37218         10.5295        0.733981 
        5.38789         10.4563        0.728524 
        5.40357         10.3819        0.723129 
        5.41929         10.3001        0.717777 
        5.43502         10.2587        0.712478 
         5.4507         10.1532        0.707246 
        5.46639         10.0979        0.702065 
        5.48212         10.0433        0.696924 
        5.49786         9.93701        0.691828 
        5.51353         9.88122        0.686808 
        5.52921         9.79429        0.681833 
        5.54495         9.71922        0.676893 
        5.56066         9.65388        0.672007 
        5.57637         9.57362         0.66717 
        5.59207         9.53321        0.662385 
        5.60778         9.44941        0.657644 
        5.62346         9.40081        0.652957 
        5.63916         9.31713        0.648311 
        5.65487          9.2581        0.643708 
         5.6706          9.1968        0.639144 
        5.68633         9.12344        0.634623 
        5.70203         9.07964        0.630154 
        5.71773         9.01172        0.625729 
        5.73344           8.938        0.621345 
        5.74916           8.877        0.616998 
        5.76486         8.81736        0.612699 
        5.78054          8.7568        0.608448 
        5.79626         8.68978        0.604224 
          5.812         8.63507        0.600037 
         5.8277         8.56692        0.595902 
        5.84339         8.51814        0.591805 
        5.85911         8.45687        0.587739 
        5.87484         8.38815        0.583712 
        5.89053         8.33772        0.579731 
        5.90623         8.27078        0.575785 
        5.92195         8.23017        0.571868 
        5.93767          8.1744        0.567991 
        5.95336         8.11556        0.564156 
        5.96905         8.05267        0.560357 
        5.98476         8.01714        0.556588 
        6.00048         7.95503        0.552853 
        6.01617          7.9141        0.549156 
        6.03185         7.85024        0.545498 
        6.04756         7.78711        0.541865 
        6.06331         7.74873        0.538257 
        6.07903         7.69526        0.534689 
        6.09473          7.6349        0.531157 
        6.11044         7.59806        0.527654 
        6.12616         7.53464        0.524182 
        6.14186         7.47647        0.520746 
        6.15755         7.42375         0.51734 
        6.17326         7.39292        0.513962 
        6.18898         7.33981        0.510613 
        6.20467         7.29107          0.5073 
        6.22036         7.24076        0.504016 
         6.2361         7.19081        0.500752 
         6.2518         7.15325        0.497523 
        6.26748         7.09174        0.494329 
        6.28319         7.05078        0.491154 
        6.29893          7.0118        0.488005 
        6.31463         6.96757        0.484888 
        6.33033         6.92723          0.4818 
        6.34604         6.87792        0.478736 
        6.36177         6.82247        0.475696 
        6.37747         6.79233        0.472688 
