# k  (h/Mpc)    Pcb(k)  (Mpc/h)^3    Pcb_linear(k) (Mpc/h)^3   ShotnoiseSubtracted = true
      0.0200456         2774.61         2816.64 
      0.0350414         2024.22          2047.6 
      0.0492313          1489.9         1487.75 
      0.0637834         1252.59         1236.75 
      0.0800726         993.023         981.579 
       0.096163         706.904         712.221 
       0.111083         560.784         568.086 
       0.126058          507.96          503.44 
       0.142273         434.773         426.524 
       0.158546         348.231         336.865 
        0.17375         285.755         283.808 
       0.188953         265.783         256.982 
       0.204907         245.105         227.377 
       0.220756         204.373         192.374 
        0.23588          178.14         167.349 
         0.2514         158.861         152.035 
       0.267535         147.026         137.565 
       0.283568         131.738         121.314 
       0.299022         119.738         108.085 
       0.314451         107.449         98.7821 
       0.330372         99.9332         90.6215 
       0.346141         90.4996         82.2528 
       0.361624         84.1762         74.7566 
       0.377134         79.1254         68.7878 
       0.392932         70.3974          63.648 
       0.408854         67.7663         58.6712 
       0.424564         63.9535         54.0781 
       0.440253         58.9661         50.1366 
       0.455999         55.5599         46.7094 
       0.471626         51.9107         43.5598 
        0.48727         49.5477         40.6136 
       0.502856         46.5404         37.9668 
       0.518488         44.4965         35.6052 
       0.534347         42.7108         33.4097 
       0.550082         39.0715         31.3854 
       0.565732         36.5471         29.5334 
       0.581496         35.6968         27.8372 
       0.597222         34.4899         26.2816 
       0.612804         32.2001         24.8512 
       0.628434         31.0794         23.5179 
       0.644267         30.2378         22.2715 
       0.660051         28.6939         21.1226 
       0.675724         27.2205         20.0618 
       0.691403         26.3507          19.073 
       0.707174         25.4471         18.1452 
       0.722871         24.4256         17.2828 
        0.73838          23.547         16.4857 
       0.754018          22.617         15.7329 
       0.769845         21.8844         15.0189 
        0.78569         21.1779         14.3486 
       0.801365         20.3766         13.7259 
       0.817031         19.8402         13.1407 
       0.832809         19.4159         12.5861 
       0.848511         18.2307         12.0661 
       0.864097         17.8894         11.5792 
       0.879701         17.4087         11.1189 
       0.895507         16.8188         10.6782 
       0.911279         16.3988         10.2625 
        0.92691         15.9456         9.87245 
       0.942635         15.2862         9.50061 
       0.958396         14.9417         9.14722 
       0.974128         14.5174         8.81253 
       0.989692         14.3727         8.49795 
        1.00528         13.9524         8.19834 
        1.02113         13.3697         7.90853 
        1.03692         13.0777         7.63386 
        1.05264         12.8084         7.37356 
        1.06832         12.5002         7.12584 
        1.08405         12.1038          6.8889 
        1.09979         11.8465         6.66263 
        1.11537         11.6464          6.4488 
        1.13105         11.3629         6.24312 
        1.14679         11.1773         6.04565 
        1.16256         10.7807         5.85637 
        1.17828         10.7361         5.67585 
        1.19395         10.3256         5.50357 
         1.2097          10.166          5.3376 
        1.22537         9.89858         5.17929 
          1.241         9.75635          5.0279 
        1.25666         9.57298         4.88221 
        1.27241         9.31604         4.74163 
        1.28819          9.1227         4.60637 
        1.30392         9.02966         4.47679 
        1.31957         8.84457         4.35279 
        1.33529         8.68163         4.23305 
        1.35108          8.4518         4.11735 
        1.36674         8.41339         4.00682 
         1.3824         8.14047         3.90046 
        1.39811         8.02912         3.79761 
        1.41389         7.89927          3.6981 
        1.42964          7.7902         3.60232 
        1.44531         7.65571         3.51042 
        1.46101         7.48049         3.42153 
        1.47667         7.37477           3.336 
        1.49229         7.28831         3.25363 
        1.50793         7.11683         3.17395 
        1.52367         7.02415         3.09643 
        1.53953         6.89838         3.02099 
        1.55526         6.79551         2.94868 
        1.57092         6.72444         2.87903 
        1.58662         6.58946         2.81147 
        1.60235         6.49913         2.74596 
        1.61809         6.38983          2.6825 
        1.63369          6.2876         2.62162 
        1.64941         6.20101          2.5622 
        1.66519         6.13901          2.5044 
        1.68085         6.02057         2.44881 
        1.69652         5.91898         2.39489 
        1.71228         5.84638         2.34229 
        1.72806          5.7777         2.29123 
        1.74368          5.6699         2.24221 
        1.75933         5.62261         2.19453 
        1.77505         5.54146         2.14802 
        1.79081         5.42723         2.10277 
         1.8065         5.39582         2.05902 
        1.82218         5.31567         2.01656 
        1.83797         5.27052         1.97501 
        1.85367         5.16706         1.93486 
        1.86928         5.14051         1.89607 
        1.88497         5.04205         1.85813 
        1.90073         4.96277         1.82109 
        1.91647         4.92343          1.7851 
        1.93218         4.86617         1.75015 
        1.94787         4.81416          1.7162 
        1.96363         4.75199         1.68301 
        1.97935         4.68044         1.65077 
        1.99499         4.61457         1.61956 
        2.01064         4.57218         1.58911 
         2.0264         4.51167         1.55925 
        2.04216         4.47658         1.53018 
        2.05781         4.41458         1.50203 
        2.07353         4.36817         1.47449 
        2.08928         4.33114         1.44759 
        2.10499         4.27711         1.42142 
        2.12065         4.23385         1.39599 
        2.13633         4.18057         1.37115 
        2.15211         4.12718         1.34676 
        2.16785         4.08773         1.32303 
        2.18349         4.04145         1.30002 
        2.19916         3.97985         1.27751 
        2.21489         3.96319         1.25546 
        2.23063         3.90476         1.23392 
         2.2463         3.87435         1.21298 
        2.26194         3.82209         1.19257 
        2.27765         3.80639         1.17254 
        2.29341           3.751         1.15291 
        2.30914         3.71611         1.13377 
        2.32486         3.68024         1.11508 
        2.34061         3.65429         1.09678 
        2.35635         3.60431          1.0789 
        2.37203         3.58882         1.06149 
        2.38768         3.54244         1.04449 
        2.40339          3.5055         1.02781 
        2.41914         3.46317         1.01145 
        2.43483         3.45449        0.995512 
         2.4505         3.39859        0.979939 
        2.46622         3.38612        0.964647 
        2.48195         3.33504         0.94968 
        2.49759         3.31753        0.935111 
        2.51328         3.28152         0.92081 
        2.52906         3.27279        0.906718 
        2.54479         3.22082        0.892973 
        2.56049         3.20281         0.87954 
        2.57618         3.16254        0.866395 
        2.59189         3.15664        0.853499 
        2.60758         3.12183        0.840886 
        2.62325         3.09003        0.828543 
        2.63898         3.05041        0.816405 
        2.65468         3.03184        0.804536 
        2.67044          3.0088        0.792852 
        2.68618         2.98284        0.781428 
        2.70184         2.95417        0.770274 
        2.71755         2.93644         0.75931 
        2.73329         2.90838        0.748543 
        2.74897         2.89693        0.738019 
        2.76462         2.86567        0.727722 
        2.78034         2.83408        0.717578 
        2.79607         2.81009        0.707617 
        2.81179         2.79843        0.697857 
        2.82749         2.76089        0.688292 
        2.84321         2.75083        0.678895 
        2.85893         2.73082        0.669677 
        2.87462         2.70652        0.660646 
        2.89033         2.68632        0.651773 
        2.90605         2.66434        0.643055 
        2.92176         2.63642        0.634501 
        2.93747         2.61707        0.626108 
        2.95318          2.5992        0.617864 
        2.96891         2.58799        0.609765 
        2.98456         2.56495        0.601847 
        3.00023         2.54292        0.594058 
        3.01596         2.52486        0.586383 
        3.03164         2.50698        0.578865 
        3.04738         2.48698        0.571457 
         3.0631         2.46673        0.564182 
        3.07883         2.45481        0.557032 
        3.09456         2.43385        0.550008 
        3.11026         2.41875        0.543116 
        3.12596         2.39659        0.536342 
        3.14163         2.38022          0.5297 
        3.15734         2.36639        0.523155 
        3.17308         2.34719        0.516704 
        3.18879         2.33741         0.51038 
        3.20447         2.32614        0.504171 
         3.2202         2.29825        0.498046 
         3.2359         2.28862        0.492033 
        3.25157         2.27543        0.486135 
        3.26729         2.24722        0.480315 
        3.28304         2.24822        0.474579 
        3.29877         2.22259        0.468944 
        3.31446         2.20686        0.463412 
        3.33014         2.19947        0.457975 
        3.34585         2.18462        0.452617 
        3.36158         2.17063        0.447337 
        3.37727         2.14646        0.442157 
        3.39294         2.14025        0.437064 
        3.40867         2.11719        0.432033 
        3.42439         2.11386        0.427084 
        3.44008         2.09962        0.422222 
        3.45578          2.0891        0.417432 
        3.47153         2.07001        0.412706 
        3.48724         2.05983        0.408061 
        3.50292         2.05026        0.403498 
        3.51859         2.03251        0.399008 
        3.53431         2.01937        0.394572 
        3.55007         2.00749        0.390192 
        3.56577         1.99261        0.385896 
        3.58146         1.98596        0.381667 
        3.59719         1.97526        0.377491 
        3.61292         1.96268         0.37338 
        3.62859         1.94612        0.369344 
        3.64429         1.93275        0.365361 
        3.66003         1.92562        0.361425 
        3.67578         1.91306        0.357547 
        3.69146         1.90149        0.353742 
        3.70712         1.88484        0.349998 
        3.72284          1.8773        0.346295 
        3.73853         1.86575        0.342652 
        3.75422         1.85683        0.339059 
        3.76993          1.8407        0.335516 
        3.78564           1.834        0.332024 
        3.80137         1.82274        0.328576 
        3.81707         1.80763        0.325185 
        3.83279         1.79592        0.321838 
        3.84853         1.79363        0.318534 
        3.86424         1.77784        0.315282 
        3.87992         1.77259         0.31208 
        3.89561         1.75821        0.308922 
        3.91134         1.75246        0.305802 
        3.92704         1.73857        0.302729 
        3.94273         1.73172          0.2997 
        3.95845         1.71946        0.296708 
        3.97418         1.70996        0.293756 
        3.98988          1.6963        0.290848 
        4.00554         1.68299        0.287987 
        4.02125         1.68266        0.285157 
        4.03698         1.66792         0.28236 
        4.05268          1.6589        0.279607 
        4.06839         1.64675        0.276888 
         4.0841         1.63768        0.274207 
        4.09983         1.62614        0.271557 
        4.11555          1.6164        0.268944 
        4.13124         1.60763        0.266372 
        4.14693         1.59368        0.263831 
        4.16266         1.58421        0.261318 
        4.17839         1.57247        0.258839 
        4.19408         1.56639        0.256397 
        4.20977         1.55384        0.253986 
        4.22551         1.54779        0.251601 
        4.24123         1.53754        0.249248 
        4.25691         1.52487        0.246932 
        4.27259         1.52124        0.244644 
        4.28831         1.50911        0.242381 
        4.30404         1.50243        0.240145 
        4.31974         1.49341        0.237941 
        4.33543         1.48566        0.235766 
        4.35116         1.47975        0.233614 
        4.36688         1.46534        0.231488 
        4.38255         1.45634        0.229398 
        4.39825         1.44817        0.227328 
        4.41398         1.44405         0.22528 
         4.4297         1.43779         0.22326 
        4.44541         1.42892        0.221264 
        4.46111         1.42221        0.219294 
        4.47683         1.41574        0.217347 
        4.49251         1.40734        0.215428 
        4.50819         1.40223        0.213532 
         4.5239         1.39602        0.211656 
        4.53962          1.3882        0.209801 
        4.55535         1.38054        0.207967 
        4.57106          1.3733        0.206157 
        4.58678         1.36694        0.204368 
         4.6025         1.36182        0.202601 
        4.61821         1.35307        0.200854 
        4.63391         1.34666         0.19913 
         4.6496         1.34044        0.197428 
        4.66532         1.33704        0.195742 
        4.68103         1.33057        0.194077 
        4.69673         1.32444        0.192433 
        4.71241         1.31962        0.190809 
        4.72811         1.31171        0.189202 
        4.74384         1.30582        0.187611 
        4.75955          1.3009         0.18604 
        4.77525         1.29451        0.184489 
        4.79096          1.2909        0.182953 
        4.80669         1.28111        0.181434 
         4.8224         1.28079        0.179934 
        4.83809         1.27441        0.178453 
        4.85379         1.26715        0.176987 
         4.8695         1.26377        0.175537 
        4.88521         1.25698        0.174103 
        4.90093         1.25372        0.172685 
        4.91663         1.25024        0.171285 
        4.93234         1.24293        0.169898 
        4.94807         1.23548        0.168526 
        4.96377         1.23109        0.167171 
        4.97943         1.22853        0.165834 
        4.99514         1.22305        0.164509 
        5.01086         1.22021        0.163196 
        5.02654         1.21468        0.161902 
        5.04227         1.20932        0.160618 
          5.058         1.20389        0.159347 
        5.07371         1.20177        0.158092 
        5.08942         1.19414         0.15685 
        5.10513          1.1897        0.155622 
        5.12084         1.18744        0.154406 
        5.13656         1.18435        0.153204 
        5.15225         1.18009        0.152016 
        5.16796         1.17556        0.150839 
        5.18369         1.17066        0.149674 
         5.1994         1.16749        0.148523 
        5.21509         1.16233        0.147385 
        5.23079         1.16176        0.146257 
        5.24649          1.1589        0.145142 
        5.26217         1.15029         0.14404 
        5.27788         1.14746        0.142947 
        5.29359         1.14388        0.141866 
        5.30933         1.13959        0.140794 
        5.32504         1.13735        0.139735 
        5.34073         1.13471        0.138688 
        5.35646         1.13109         0.13765 
        5.37218         1.12742        0.136622 
        5.38789         1.12415        0.135607 
        5.40357         1.11723        0.134602 
        5.41929         1.11484        0.133606 
        5.43502         1.11076         0.13262 
         5.4507         1.10787        0.131646 
        5.46639         1.10432        0.130681 
        5.48212         1.10165        0.129724 
        5.49786         1.09829        0.128776 
        5.51353         1.09403        0.127842 
        5.52921         1.08964        0.126916 
        5.54495         1.08757        0.125996 
        5.56066         1.08809        0.125087 
        5.57637         1.08395        0.124186 
        5.59207         1.07999        0.123295 
        5.60778         1.07493        0.122413 
        5.62346         1.07408        0.121541 
        5.63916         1.07161        0.120676 
        5.65487         1.06884        0.119819 
         5.6706         1.06662        0.118969 
        5.68633         1.06388        0.118128 
        5.70203         1.06007        0.117296 
        5.71773         1.05731        0.116472 
        5.73344         1.05601        0.115656 
        5.74916         1.05229        0.114847 
        5.76486          1.0479        0.114047 
        5.78054         1.04693        0.113256 
        5.79626          1.0444         0.11247 
          5.812         1.03913         0.11169 
         5.8277         1.03852         0.11092 
        5.84339         1.03664        0.110158 
        5.85911         1.03323        0.109401 
        5.87484          1.0326        0.108651 
        5.89053         1.02694         0.10791 
        5.90623         1.02482        0.107176 
        5.92195         1.02361        0.106447 
        5.93767         1.02108        0.105725 
        5.95336         1.01654        0.105011 
        5.96905         1.01506        0.104304 
        5.98476         1.01196        0.103603 
        6.00048         1.00824        0.102907 
        6.01617         1.00726        0.102219 
        6.03185         1.00359        0.101538 
        6.04756         1.00426        0.100862 
        6.06331         1.00113         0.10019 
        6.07903         1.00019       0.0995264 
        6.09473        0.994375       0.0988689 
        6.11044         0.99574       0.0982168 
        6.12616        0.990773       0.0975707 
        6.14186        0.988067        0.096931 
        6.15755        0.988247       0.0962971 
        6.17326         0.98463       0.0956683 
        6.18898        0.983482       0.0950449 
        6.20467        0.980531       0.0944281 
        6.22036        0.976265       0.0938169 
         6.2361        0.977459       0.0932094 
         6.2518        0.972157       0.0926083 
        6.26748        0.970688       0.0920138 
        6.28319        0.967986       0.0914228 
        6.29893        0.965779       0.0908366 
        6.31463        0.963647       0.0902565 
        6.33033        0.960927       0.0896816 
        6.34604        0.959837       0.0891113 
        6.36177        0.958105       0.0885454 
        6.37747        0.956863       0.0879855 
