# k  (h/Mpc)    Pcb(k)  (Mpc/h)^3    Pcb_linear(k) (Mpc/h)^3   ShotnoiseSubtracted = true
      0.0200456         23697.4         24126.4 
      0.0350414         18102.5         17539.1 
      0.0492313         12441.5         12743.6 
      0.0637834         10026.5         10593.6 
      0.0800726         7863.67          8407.9 
       0.096163         6344.41         6100.66 
       0.111083         5167.56         4866.05 
       0.126058         4268.92         4312.31 
       0.142273         3748.42         3653.47 
       0.158546          3075.1         2885.48 
        0.17375         2759.65         2431.01 
       0.188953         2626.16         2201.23 
       0.204907         2260.56         1947.64 
       0.220756          2047.9         1647.82 
        0.23588         1829.03         1433.46 
         0.2514         1660.95         1302.28 
       0.267535         1599.83         1178.34 
       0.283568            1431         1039.14 
       0.299022          1363.5          925.82 
       0.314451         1422.48         846.137 
       0.330372         1266.11         776.235 
       0.346141         1162.69         704.552 
       0.361624         1115.55         640.341 
       0.377134         1072.43         589.215 
       0.392932         1019.75         545.189 
       0.408854         980.311         502.559 
       0.424564         960.167         463.216 
       0.440253         894.034         429.455 
       0.455999         854.895         400.098 
       0.471626         868.317          373.12 
        0.48727          820.61         347.883 
       0.502856         792.757         325.212 
       0.518488         765.706         304.983 
       0.534347         738.851         286.177 
       0.550082         704.918         268.837 
       0.565732         693.391         252.974 
       0.581496         678.698         238.445 
       0.597222         666.447          225.12 
       0.612804         649.722         212.868 
       0.628434         623.404         201.447 
       0.644267         606.998          190.77 
       0.660051         600.639          180.93 
       0.675724         588.995         171.843 
       0.691403          569.92         163.373 
       0.707174         554.424         155.426 
       0.722871         549.989         148.039 
        0.73838         536.174         141.212 
       0.754018          524.78         134.763 
       0.769845         517.537         128.647 
        0.78569         506.241         122.906 
       0.801365         490.032         117.572 
       0.817031          485.44         112.559 
       0.832809         477.629         107.808 
       0.848511         469.999         103.354 
       0.864097         460.245          99.184 
       0.879701         460.337         95.2408 
       0.895507         442.082         91.4664 
       0.911279         436.764         87.9054 
        0.92691         430.916         84.5643 
       0.942635         425.408         81.3793 
       0.958396         412.883         78.3522 
       0.974128         406.789         75.4853 
       0.989692         396.275         72.7908 
        1.00528         391.789         70.2244 
        1.02113         385.143          67.742 
        1.03692         379.573         65.3893 
        1.05264         374.457         63.1596 
        1.06832         365.816         61.0377 
        1.08405         364.687         59.0081 
        1.09979         356.351           57.07 
        1.11537          347.51         55.2384 
        1.13105         343.606         53.4766 
        1.14679          337.56         51.7852 
        1.16256         335.723         50.1639 
        1.17828         330.338         48.6176 
        1.19395         322.085         47.1419 
         1.2097         319.333         45.7202 
        1.22537         314.528         44.3642 
          1.241         307.847         43.0675 
        1.25666         304.852         41.8195 
        1.27241         301.091         40.6153 
        1.28819         293.447         39.4567 
        1.30392         293.368         38.3468 
        1.31957         285.667         37.2846 
        1.33529          281.71          36.259 
        1.35108         280.462         35.2679 
        1.36674         273.018         34.3211 
         1.3824         269.661         33.4101 
        1.39811         266.362         32.5292 
        1.41389         260.891         31.6767 
        1.42964         257.341         30.8564 
        1.44531         254.216         30.0691 
        1.46101         249.585         29.3078 
        1.47667         247.138         28.5751 
        1.49229         243.758         27.8695 
        1.50793         239.815         27.1871 
        1.52367         236.034         26.5231 
        1.53953         232.536         25.8769 
        1.55526          229.58         25.2574 
        1.57092         227.679         24.6609 
        1.58662         222.654         24.0822 
        1.60235         219.892          23.521 
        1.61809         217.982         22.9775 
        1.63369         213.819          22.456 
        1.64941         210.808          21.947 
        1.66519         207.985         21.4519 
        1.68085         204.284         20.9757 
        1.69652         202.169         20.5139 
        1.71228         199.135         20.0633 
        1.72806         196.901          19.626 
        1.74368         194.447         19.2061 
        1.75933         192.981         18.7977 
        1.77505         189.949         18.3992 
        1.79081         186.741         18.0117 
         1.8065         185.731         17.6369 
        1.82218         180.889         17.2732 
        1.83797          179.56         16.9173 
        1.85367         177.004         16.5734 
        1.86928         174.242         16.2411 
        1.88497         172.512         15.9161 
        1.90073         170.974         15.5989 
        1.91647         167.862         15.2906 
        1.93218         165.132         14.9913 
        1.94787         163.124         14.7004 
        1.96363         162.256         14.4162 
        1.97935         160.282           14.14 
        1.99499         157.767         13.8726 
        2.01064         154.556         13.6118 
         2.0264         154.062         13.3561 
        2.04216         151.178         13.1071 
        2.05781         148.904         12.8659 
        2.07353         148.108         12.6301 
        2.08928         146.203         12.3996 
        2.10499         144.355         12.1755 
        2.12065         142.785         11.9576 
        2.13633         140.684         11.7448 
        2.15211         138.603         11.5359 
        2.16785         137.288         11.3326 
        2.18349         135.758         11.1356 
        2.19916         133.777         10.9428 
        2.21489         131.955         10.7539 
        2.23063         130.483         10.5693 
         2.2463         128.658           10.39 
        2.26194          127.63         10.2152 
        2.27765         125.511         10.0436 
        2.29341         124.542         9.87545 
        2.30914         122.974         9.71152 
        2.32486         121.187          9.5514 
        2.34061         119.445         9.39463 
        2.35635         118.623         9.24153 
        2.37203           116.8         9.09236 
        2.38768         115.897          8.9468 
        2.40339         113.733         8.80391 
        2.41914          112.56          8.6638 
        2.43483         111.565         8.52724 
         2.4505         110.459         8.39385 
        2.46622         108.496         8.26286 
        2.48195         107.546         8.13466 
        2.49759         105.828         8.00987 
        2.51328         104.834         7.88737 
        2.52906         103.902         7.76666 
        2.54479          102.47         7.64893 
        2.56049         101.089         7.53386 
        2.57618          100.01         7.42127 
        2.59189         99.3949          7.3108 
        2.60758         97.7268         7.20277 
        2.62325         96.9852         7.09704 
        2.63898         95.7318         6.99307 
        2.65468         94.8607         6.89141 
        2.67044         93.9311         6.79133 
        2.68618         92.4028         6.69346 
        2.70184         91.4818         6.59792 
        2.71755         90.7429         6.50401 
        2.73329         89.2145         6.41178 
        2.74897         88.3987         6.32164 
        2.76462         88.0662         6.23344 
        2.78034         86.6426         6.14655 
        2.79607         85.4069         6.06123 
        2.81179         84.6895         5.97762 
        2.82749         84.0246         5.89569 
        2.84321          82.701          5.8152 
        2.85893         81.4658         5.73624 
        2.87462         81.0546         5.65888 
        2.89033         80.0211         5.58288 
        2.90605         79.1467         5.50821 
        2.92176         78.5839         5.43494 
        2.93747         77.5963         5.36304 
        2.95318         76.4331         5.29243 
        2.96891         76.0223         5.22306 
        2.98456         74.8227         5.15523 
        3.00023         74.1846         5.08852 
        3.01596         73.5614         5.02277 
        3.03164          72.637         4.95838 
        3.04738          72.263         4.89493 
         3.0631         71.0651          4.8326 
        3.07883         70.4922         4.77137 
        3.09456         69.5383          4.7112 
        3.11026         69.1872         4.65216 
        3.12596         68.2162         4.59414 
        3.14163         67.6088         4.53724 
        3.15734         66.6219         4.48118 
        3.17308         66.2317         4.42592 
        3.18879         65.5025         4.37175 
        3.20447         64.8992         4.31857 
         3.2202          63.885          4.2661 
         3.2359         63.3539          4.2146 
        3.25157         62.8958         4.16408 
        3.26729         62.0605         4.11422 
        3.28304         61.3409         4.06509 
        3.29877         60.9344         4.01682 
        3.31446         60.0189         3.96945 
        3.33014         59.6011         3.92287 
        3.34585         58.9609         3.87698 
        3.36158         58.5342         3.83175 
        3.37727         57.9998         3.78738 
        3.39294         57.2621         3.74375 
        3.40867         56.8244         3.70066 
        3.42439         56.1523         3.65827 
        3.44008         55.6027         3.61662 
        3.45578         55.0424         3.57559 
        3.47153         54.5287         3.53511 
        3.48724         54.0899         3.49532 
        3.50292          53.561         3.45624 
        3.51859         53.0332         3.41778 
        3.53431         52.4285         3.37978 
        3.55007         51.7905         3.34227 
        3.56577         51.3027         3.30547 
        3.58146          50.829         3.26924 
        3.59719         50.4552         3.23347 
        3.61292          49.791         3.19825 
        3.62859         49.4439         3.16369 
        3.64429         48.9824         3.12957 
        3.66003         48.5832         3.09585 
        3.67578         47.9804         3.06264 
        3.69146         47.6245         3.03004 
        3.70712         47.2181         2.99797 
        3.72284         46.7198         2.96625 
        3.73853          46.306         2.93505 
        3.75422         45.8615         2.90428 
        3.76993         45.4725         2.87392 
        3.78564         45.0433         2.84401 
        3.80137         44.6302         2.81448 
        3.81707          44.124         2.78543 
        3.83279         43.7684         2.75677 
        3.84853         43.3793         2.72846 
        3.86424         42.9489          2.7006 
        3.87992         42.4933         2.67318 
        3.89561         42.2358         2.64613 
        3.91134         41.7639         2.61941 
        3.92704         41.4144         2.59308 
        3.94273         41.0762         2.56714 
        3.95845         40.5845         2.54151 
        3.97418         40.2922         2.51622 
        3.98988         39.9613         2.49131 
        4.00554         39.4711         2.46681 
        4.02125         39.2307         2.44256 
        4.03698         38.8167          2.4186 
        4.05268         38.5444         2.39502 
        4.06839          38.206         2.37174 
         4.0841          37.888         2.34877 
        4.09983         37.5029         2.32607 
        4.11555           37.24         2.30369 
        4.13124         36.7243         2.28166 
        4.14693         36.5328         2.25989 
        4.16266         36.2222         2.23837 
        4.17839         35.8054         2.21713 
        4.19408         35.5496         2.19622 
        4.20977         35.2418         2.17557 
        4.22551         34.9483         2.15513 
        4.24123         34.6595         2.13498 
        4.25691         34.3046         2.11514 
        4.27259         34.0385         2.09555 
        4.28831         33.8197         2.07616 
        4.30404         33.5269           2.057 
        4.31974         33.2007         2.03813 
        4.33543         32.8611          2.0195 
        4.35116         32.6258         2.00106 
        4.36688         32.2973         1.98286 
        4.38255         32.1212         1.96495 
        4.39825         31.8735         1.94722 
        4.41398         31.5769         1.92968 
         4.4297         31.2493         1.91237 
        4.44541         31.0838         1.89528 
        4.46111         30.6853         1.87841 
        4.47683         30.5905         1.86173 
        4.49251         30.3162         1.84529 
        4.50819         30.0044         1.82905 
         4.5239         29.6935         1.81298 
        4.53962          29.476         1.79709 
        4.55535          29.283         1.78138 
        4.57106          28.928         1.76588 
        4.58678         28.7882         1.75056 
         4.6025         28.5568         1.73541 
        4.61821         28.2896         1.72045 
        4.63391         28.1097         1.70569 
         4.6496         27.8233          1.6911 
        4.66532         27.6146         1.67666 
        4.68103         27.3522          1.6624 
        4.69673         27.2099         1.64832 
        4.71241         26.9436         1.63441 
        4.72811          26.762         1.62064 
        4.74384         26.6234         1.60701 
        4.75955         26.4156         1.59356 
        4.77525         26.1176         1.58027 
        4.79096         25.8961         1.56712 
        4.80669          25.697         1.55411 
         4.8224         25.5443         1.54126 
        4.83809         25.2649         1.52857 
        4.85379         25.1224         1.51602 
         4.8695         24.9002         1.50359 
        4.88521         24.7018         1.49131 
        4.90093         24.5244         1.47917 
        4.91663         24.3585         1.46717 
        4.93234         24.1045         1.45529 
        4.94807         23.8859         1.44354 
        4.96377         23.7366         1.43194 
        4.97943         23.6116         1.42048 
        4.99514         23.4348         1.40913 
        5.01086         23.2262         1.39789 
        5.02654         23.0323          1.3868 
        5.04227         22.8259          1.3758 
          5.058         22.6035         1.36491 
        5.07371         22.4999         1.35417 
        5.08942         22.2882         1.34353 
        5.10513          22.175         1.33301 
        5.12084         21.9706          1.3226 
        5.13656         21.8359          1.3123 
        5.15225         21.7083         1.30212 
        5.16796         21.5113         1.29204 
        5.18369         21.3262         1.28206 
         5.1994         21.1322          1.2722 
        5.21509         21.0186         1.26245 
        5.23079         20.8662         1.25279 
        5.24649         20.7217         1.24324 
        5.26217         20.5236          1.2338 
        5.27788         20.4141         1.22444 
        5.29359         20.2267         1.21518 
        5.30933         20.0545           1.206 
        5.32504         19.9296         1.19693 
        5.34073         19.7719         1.18796 
        5.35646         19.5916         1.17907 
        5.37218         19.5027         1.17026 
        5.38789         19.3609         1.16156 
        5.40357         19.1896         1.15296 
        5.41929         19.0767         1.14443 
        5.43502         18.9373         1.13598 
         5.4507         18.7816         1.12764 
        5.46639         18.6455         1.11938 
        5.48212         18.5117         1.11118 
        5.49786         18.3593         1.10305 
        5.51353         18.2379         1.09505 
        5.52921         18.0932         1.08712 
        5.54495         17.9765         1.07924 
        5.56066         17.8272         1.07145 
        5.57637         17.6891         1.06374 
        5.59207         17.5585         1.05611 
        5.60778         17.5236         1.04855 
        5.62346         17.3112         1.04108 
        5.63916         17.2038         1.03367 
        5.65487         17.0498         1.02633 
         5.6706         16.9763         1.01906 
        5.68633         16.8637         1.01185 
        5.70203         16.7394         1.00472 
        5.71773         16.6235        0.997667 
        5.73344         16.5109        0.990676 
        5.74916         16.3764        0.983746 
        5.76486           16.26        0.976891 
        5.78054         16.1224        0.970112 
        5.79626         16.0779        0.963379 
          5.812         15.9349        0.956703 
         5.8277         15.7814        0.950109 
        5.84339         15.6847        0.943578 
        5.85911         15.5908        0.937095 
        5.87484         15.4661        0.930674 
        5.89053         15.3555        0.924326 
        5.90623         15.2615        0.918035 
        5.92195         15.1248        0.911791 
        5.93767         15.0408        0.905608 
        5.95336         14.9399        0.899493 
        5.96905         14.8373        0.893437 
        5.98476         14.7445        0.887428 
        6.00048         14.6223        0.881472 
        6.01617         14.5475        0.875578 
        6.03185         14.4392        0.869746 
        6.04756         14.3435        0.863953 
        6.06331         14.2501          0.8582 
        6.07903         14.1035        0.852512 
        6.09473         14.0238         0.84688 
        6.11044         13.9548        0.841294 
        6.12616          13.868         0.83576 
        6.14186          13.776         0.83028 
        6.15755         13.6577         0.82485 
        6.17326         13.5696        0.819465 
        6.18898         13.4663        0.814125 
        6.20467         13.3662        0.808842 
        6.22036          13.289        0.803606 
         6.2361         13.1827        0.798402 
         6.2518         13.1031        0.793253 
        6.26748         13.0438        0.788161 
        6.28319         12.9372        0.783099 
        6.29893         12.8595        0.778078 
        6.31463         12.7821        0.773109 
        6.33033         12.6849        0.768184 
        6.34604         12.5921          0.7633 
        6.36177         12.5262        0.758453 
        6.37747          12.438        0.753657 
