# k  (h/Mpc)    Pcb(k)  (Mpc/h)^3    Pcb_linear(k) (Mpc/h)^3   ShotnoiseSubtracted = true
      0.0200456         8536.07         8720.15 
      0.0350414         6926.51         7149.48 
      0.0492313         5553.75         5628.85 
      0.0637834         4905.41         4862.96 
      0.0800726         3983.24         3971.73 
       0.096163         2914.33         3018.41 
       0.111083         2389.49         2506.45 
       0.126058         2229.39         2249.37 
       0.142273         1925.36         1914.02 
       0.158546         1636.71         1554.44 
        0.17375         1350.06         1350.92 
       0.188953         1304.67         1232.29 
       0.204907         1230.53         1089.15 
       0.220756         1055.45         936.057 
        0.23588         938.077         833.268 
         0.2514         829.372         764.318 
       0.267535         808.157         691.065 
       0.283568         738.604         614.704 
       0.299022         690.009         556.659 
       0.314451         650.412         513.634 
       0.330372         603.398          472.03 
       0.346141         553.073         430.586 
       0.361624         530.062         395.529 
       0.377134         498.598         367.097 
       0.392932         473.683         340.951 
       0.408854         456.416         315.549 
       0.424564         436.986         292.909 
       0.440253         421.004         273.487 
       0.455999         398.592         255.965 
       0.471626         369.956         239.592 
        0.48727         364.093         224.515 
       0.502856         352.055         211.061 
       0.518488         347.793         198.818 
       0.534347         328.236          187.28 
       0.550082         309.586         176.653 
       0.565732         306.568          166.98 
       0.581496         291.895         158.034 
       0.597222         285.153          149.75 
       0.612804         274.426         142.106 
       0.628434          266.66         134.986 
       0.644267          258.14         128.306 
       0.660051         254.951         122.108 
       0.675724         250.897         116.362 
       0.691403         243.876         110.987 
       0.707174         233.315         105.927 
       0.722871         231.458         101.207 
        0.73838         227.134         96.8306 
       0.754018         219.939         92.6836 
       0.769845         214.657         88.7379 
        0.78569         211.874         85.0221 
       0.801365         206.861         81.5593 
       0.817031         200.287         78.2954 
       0.832809         196.702         75.1929 
       0.848511         192.816         72.2757 
       0.864097         189.106         69.5364 
       0.879701         185.696         66.9393 
       0.895507         180.824         64.4466 
       0.911279          178.58         62.0886 
        0.92691         175.505         59.8704 
       0.942635         172.991         57.7504 
       0.958396         172.118         55.7305 
       0.974128         166.979         53.8128 
       0.989692         162.856          52.006 
        1.00528         160.154         50.2811 
        1.02113         158.897         48.6088 
        1.03692         153.418         47.0202 
        1.05264           152.4         45.5112 
        1.06832          149.36         44.0721 
        1.08405         147.304         42.6924 
        1.09979         146.426         41.3722 
        1.11537         141.827         40.1218 
        1.13105         141.735         38.9167 
        1.14679           140.2         37.7572 
        1.16256         137.863         36.6436 
        1.17828          134.38         35.5794 
        1.19395         133.728         34.5618 
         1.2097         130.528         33.5796 
        1.22537         130.028         32.6409 
          1.241         127.205         31.7416 
        1.25666         124.885         30.8746 
        1.27241         123.767         30.0364 
        1.28819         121.919         29.2285 
        1.30392         120.263         28.4531 
        1.31957         118.292         27.7099 
        1.33529         116.518         26.9909 
        1.35108         115.223          26.295 
        1.36674         113.822         25.6291 
         1.3824         111.999         24.9873 
        1.39811         110.761         24.3656 
        1.41389         109.172         23.7631 
        1.42964         108.037         23.1824 
        1.44531         105.402         22.6242 
        1.46101          104.54         22.0835 
        1.47667         103.504         21.5624 
        1.49229          101.66         21.0598 
        1.50793         100.735         20.5729 
        1.52367         99.8189         20.0986 
        1.53953          98.286         19.6362 
        1.55526         97.2082         19.1923 
        1.57092         96.4736         18.7643 
        1.58662         94.7852         18.3484 
        1.60235         93.8847         17.9446 
        1.61809         92.6119         17.5529 
        1.63369         90.8918         17.1766 
        1.64941         90.1452         16.8088 
        1.66519         88.9437         16.4506 
        1.68085          87.703         16.1056 
        1.69652          86.401         15.7705 
        1.71228         85.6003         15.4432 
        1.72806         84.8997         15.1251 
        1.74368         83.7855         14.8193 
        1.75933          83.059         14.5215 
        1.77505         82.0073         14.2306 
        1.79081          80.728         13.9472 
         1.8065         80.1665          13.673 
        1.82218         78.7591         13.4064 
        1.83797         78.3041         13.1452 
        1.85367         76.9658         12.8926 
        1.86928         76.4619         12.6482 
        1.88497         75.2545         12.4089 
        1.90073         74.5378          12.175 
        1.91647         73.7984         11.9475 
        1.93218         72.6402         11.7263 
        1.94787         71.9789         11.5111 
        1.96363           70.83         11.3006 
        1.97935         70.4193         11.0958 
        1.99499         69.4941         10.8974 
        2.01064         69.0413         10.7036 
         2.0264         67.6081         10.5134 
        2.04216         67.0006         10.3279 
        2.05781         66.2398         10.1482 
        2.07353         65.3703         9.97214 
        2.08928         64.6985         9.79996 
        2.10499         64.3576         9.63236 
        2.12065         63.5735         9.46925 
        2.13633         63.1713         9.30983 
        2.15211         62.4175          9.1531 
        2.16785         61.2549         9.00048 
        2.18349         60.7652         8.85234 
        2.19916         60.3126         8.70728 
        2.21489         59.8234         8.56503 
        2.23063         58.7535         8.42592 
         2.2463         58.2404         8.29056 
        2.26194         57.2885         8.15856 
        2.27765          56.579         8.02879 
        2.29341         56.1758         7.90156 
        2.30914          55.468         7.77738 
        2.32486         54.7869         7.65598 
        2.34061         54.2937         7.53701 
        2.35635          53.704          7.4207 
        2.37203         52.9931         7.30729 
        2.38768         52.5599         7.19652 
        2.40339         52.1705         7.08768 
        2.41914         51.6548         6.98087 
        2.43483         50.7562         6.87666 
         2.4505         50.3582         6.77479 
        2.46622         49.9077         6.67467 
        2.48195         49.4098         6.57658 
        2.49759         48.7385         6.48102 
        2.51328         48.0219         6.38714 
        2.52906         47.8133         6.29455 
        2.54479         47.0844         6.20417 
        2.56049         46.5887         6.11576 
        2.57618         45.9418         6.02917 
        2.59189         45.6418         5.94416 
        2.60758         45.2898         5.86094 
        2.62325         44.7571         5.77944 
        2.63898         44.2438         5.69922 
        2.65468         43.7908         5.62072 
        2.67044         43.4105         5.54338 
        2.68618           42.84         5.46769 
        2.70184         42.4374         5.39374 
        2.71755         42.0103         5.32099 
        2.73329         41.5113         5.24949 
        2.74897         41.0054         5.17956 
        2.76462         40.5835         5.11107 
        2.78034         40.1895         5.04356 
        2.79607         39.8087         4.97721 
        2.81179         39.5279         4.91214 
        2.82749         39.0791         4.84833 
        2.84321         38.6098          4.7856 
        2.85893         38.1144         4.72401 
        2.87462         37.7375         4.66362 
        2.89033         37.5205         4.60425 
        2.90605         37.1015         4.54587 
        2.92176         36.8045         4.48856 
        2.93747         36.2928         4.43227 
        2.95318         35.9315         4.37695 
        2.96891         35.6163         4.32256 
        2.98456          35.183         4.26934 
        3.00023         34.9485         4.21696 
        3.01596         34.5629         4.16531 
        3.03164         34.1261         4.11468 
        3.04738         33.9899         4.06475 
         3.0631         33.5517         4.01568 
        3.07883         33.2001         3.96744 
        3.09456         32.8744            3.92 
        3.11026         32.5485         3.87342 
        3.12596         32.2828         3.82761 
        3.14163          31.897         3.78266 
        3.15734         31.6238         3.73834 
        3.17308         31.3543         3.69462 
        3.18879          30.992         3.65174 
        3.20447         30.7043         3.60961 
         3.2202         30.3377         3.56802 
         3.2359         30.0788         3.52717 
        3.25157         29.8844         3.48707 
        3.26729         29.6155         3.44747 
        3.28304         29.1811         3.40842 
        3.29877         28.8975         3.37004 
        3.31446         28.7468         3.33234 
        3.33014          28.444         3.29525 
        3.34585         28.1105         3.25868 
        3.36158         27.9448         3.22262 
        3.37727         27.5889         3.18722 
        3.39294         27.4231          3.1524 
        3.40867         27.2557         3.11798 
        3.42439         26.8522         3.08409 
        3.44008         26.5742         3.05079 
        3.45578         26.3212         3.01795 
        3.47153         26.0746         2.98554 
        3.48724         25.7196         2.95366 
        3.50292         25.5797         2.92233 
        3.51859          25.382         2.89147 
        3.53431         25.1835         2.86097 
        3.55007         24.8892         2.83084 
        3.56577         24.6718         2.80127 
        3.58146          24.457         2.77214 
        3.59719         24.1682         2.74336 
        3.61292         23.9713         2.71501 
        3.62859         23.7194         2.68717 
        3.64429         23.5171         2.65967 
        3.66003           23.35         2.63247 
        3.67578         23.0951         2.60567 
        3.69146         22.8139         2.57936 
        3.70712         22.6599         2.55345 
        3.72284         22.5778         2.52781 
        3.73853         22.2496         2.50257 
        3.75422         22.1394         2.47768 
        3.76993          21.821          2.4531 
        3.78564         21.6785         2.42887 
        3.80137         21.4707         2.40493 
        3.81707         21.2783         2.38137 
        3.83279         21.1224         2.35811 
        3.84853         20.8811         2.33513 
        3.86424         20.7796          2.3125 
        3.87992         20.5363         2.29021 
        3.89561         20.3805         2.26822 
        3.91134         20.1081         2.24647 
        3.92704          20.023         2.22504 
        3.94273         19.8407         2.20391 
        3.95845         19.6745         2.18302 
        3.97418         19.4422         2.16241 
        3.98988         19.3237         2.14208 
        4.00554         19.1448         2.12208 
        4.02125         18.9686         2.10228 
        4.03698         18.8338         2.08271 
        4.05268         18.6463         2.06343 
        4.06839         18.4357         2.04438 
         4.0841          18.335         2.02559 
        4.09983         18.1497         2.00701 
        4.11555         17.9906         1.98867 
        4.13124         17.8648         1.97061 
        4.14693         17.6809         1.95276 
        4.16266         17.5158          1.9351 
        4.17839         17.3997         1.91767 
        4.19408         17.2066          1.9005 
        4.20977         17.1073         1.88353 
        4.22551          16.993         1.86673 
        4.24123         16.7889         1.85016 
        4.25691         16.6411         1.83383 
        4.27259         16.4817          1.8177 
        4.28831         16.3759         1.80173 
        4.30404         16.2246         1.78594 
        4.31974         16.0615         1.77038 
        4.33543         15.9274         1.75502 
        4.35116         15.8675          1.7398 
        4.36688         15.7217         1.72477 
        4.38255         15.5882         1.70998 
        4.39825           15.41         1.69533 
        4.41398         15.3535         1.68082 
         4.4297         15.1865          1.6665 
        4.44541         15.0161         1.65236 
        4.46111         14.9563         1.63839 
        4.47683         14.8131         1.62457 
        4.49251          14.675         1.61095 
        4.50819         14.6019         1.59748 
         4.5239         14.4682         1.58415 
        4.53962         14.2955         1.57096 
        4.55535         14.2281         1.55792 
        4.57106         14.0957         1.54504 
        4.58678         13.9918         1.53231 
         4.6025         13.8933         1.51972 
        4.61821         13.7241         1.50727 
        4.63391         13.6537         1.49499 
         4.6496         13.5781         1.48284 
        4.66532         13.4173         1.47082 
        4.68103         13.3206         1.45893 
        4.69673         13.1936         1.44719 
        4.71241         13.1025         1.43559 
        4.72811         13.0054          1.4241 
        4.74384         12.8988         1.41273 
        4.75955         12.7608          1.4015 
        4.77525          12.702         1.39039 
        4.79096         12.5965          1.3794 
        4.80669         12.4923         1.36852 
         4.8224         12.3894         1.35777 
        4.83809         12.2912         1.34715 
        4.85379         12.1782         1.33664 
         4.8695         12.1303         1.32623 
        4.88521         12.0384         1.31594 
        4.90093         11.9194         1.30576 
        4.91663         11.8081         1.29569 
        4.93234         11.7515         1.28573 
        4.94807         11.6616         1.27586 
        4.96377          11.543         1.26612 
        4.97943         11.4451          1.2565 
        4.99514         11.3832         1.24695 
        5.01086         11.3147          1.2375 
        5.02654         11.2197         1.22818 
        5.04227          11.123         1.21892 
          5.058         11.0619         1.20975 
        5.07371          10.959          1.2007 
        5.08942         10.8563         1.19174 
        5.10513          10.818         1.18288 
        5.12084         10.6988         1.17409 
        5.13656         10.6394         1.16541 
        5.15225         10.5561         1.15682 
        5.16796         10.4834         1.14831 
        5.18369          10.399         1.13988 
         5.1994         10.3094         1.13155 
        5.21509         10.2313         1.12331 
        5.23079         10.1456         1.11514 
        5.24649         10.0973         1.10706 
        5.26217         9.99247         1.09907 
        5.27788           9.928         1.09115 
        5.29359         9.87011         1.08331 
        5.30933          9.7768         1.07553 
        5.32504         9.73965         1.06784 
        5.34073         9.64833         1.06024 
        5.35646         9.57685         1.05269 
        5.37218          9.5196         1.04522 
        5.38789         9.43806         1.03784 
        5.40357         9.38366         1.03053 
        5.41929         9.30127         1.02328 
        5.43502         9.23632          1.0161 
         5.4507         9.18554         1.00901 
        5.46639         9.10718         1.00199 
        5.48212         9.02218        0.995013 
        5.49786         8.98372        0.988098 
        5.51353          8.9303        0.981283 
        5.52921         8.87118        0.974527 
        5.54495         8.77814        0.967816 
        5.56066         8.72502        0.961176 
        5.57637         8.65799        0.954599 
        5.59207         8.63121        0.948091 
        5.60778         8.54934        0.941642 
        5.62346         8.47735        0.935263 
        5.63916         8.44032        0.928937 
        5.65487         8.34989        0.922667 
         5.6706         8.30569        0.916449 
        5.68633         8.23433        0.910286 
        5.70203         8.18725        0.904193 
        5.71773         8.13398        0.898158 
        5.73344         8.08091        0.892175 
        5.74916         8.01657        0.886242 
        5.76486         7.97262        0.880372 
        5.78054         7.90877        0.874565 
        5.79626         7.85579        0.868794 
          5.812         7.80805         0.86307 
         5.8277         7.74649        0.857415 
        5.84339         7.69282        0.851812 
        5.85911         7.64159        0.846248 
        5.87484         7.59622        0.840736 
        5.89053         7.52928        0.835284 
        5.90623         7.48207        0.829879 
        5.92195         7.44258        0.824513 
        5.93767         7.38981        0.819198 
        5.95336         7.33889        0.813939 
        5.96905         7.28936        0.808728 
        5.98476         7.24206        0.803557 
        6.00048         7.17129        0.798429 
        6.01617         7.14935        0.793354 
        6.03185          7.0905         0.78833 
        6.04756         7.05025        0.783337 
        6.06331         6.99677        0.778378 
        6.07903         6.95239        0.773473 
        6.09473         6.91319        0.768614 
        6.11044         6.86714        0.763794 
        6.12616         6.82691        0.759017 
        6.14186         6.76394        0.754285 
        6.15755         6.73648        0.749595 
        6.17326         6.67889        0.744941 
        6.18898          6.6497        0.740325 
        6.20467         6.59266        0.735757 
        6.22036         6.54117        0.731229 
         6.2361         6.51746        0.726726 
         6.2518         6.47405         0.72227 
        6.26748         6.41485        0.717861 
        6.28319         6.38038        0.713477 
        6.29893         6.34058        0.709126 
        6.31463         6.30741         0.70482 
        6.33033         6.26246        0.700551 
        6.34604         6.23042        0.696315 
        6.36177         6.18073         0.69211 
        6.37747         6.14718        0.687948 
