# k  (h/Mpc)    Pcb(k)  (Mpc/h)^3    Pcb_linear(k) (Mpc/h)^3   ShotnoiseSubtracted = true
      0.0200456         5929.43          6047.1 
      0.0350414         4834.58          4957.9 
      0.0492313         3870.79          3903.4 
      0.0637834          3405.6         3372.28 
      0.0800726         2769.93         2754.25 
       0.096163         2039.24         2093.15 
       0.111083         1672.34         1738.13 
       0.126058          1554.5         1559.85 
       0.142273         1341.09          1327.3 
       0.158546         1123.39         1077.95 
        0.17375         933.782         936.813 
       0.188953         893.822         854.548 
       0.204907         839.332         755.282 
       0.220756         714.511         649.121 
        0.23588         634.824          577.84 
         0.2514          564.67         530.026 
       0.267535         540.465         479.227 
       0.283568         493.359         426.274 
       0.299022         458.433         386.022 
       0.314451         425.754         356.186 
       0.330372         395.989         327.335 
       0.346141         360.456         298.595 
       0.361624         344.049         274.284 
       0.377134         325.769         254.568 
       0.392932         302.175         236.437 
       0.408854         291.389         218.821 
       0.424564         280.508         203.122 
       0.440253         265.571         189.653 
       0.455999         251.955         177.502 
       0.471626          232.61         166.148 
        0.48727         228.695         155.693 
       0.502856         219.647         146.363 
       0.518488          215.04         137.873 
       0.534347         205.031         129.872 
       0.550082          191.77         122.503 
       0.565732         186.796         115.794 
       0.581496         178.926          109.59 
       0.597222         173.962         103.846 
       0.612804         166.228         98.5451 
       0.628434         163.155         93.6079 
       0.644267         157.996         88.9751 
       0.660051         154.835         84.6774 
       0.675724         150.977         80.6927 
       0.691403         146.619         76.9654 
       0.707174         141.163         73.4563 
       0.722871         138.815         70.1835 
        0.73838           136.5         67.1484 
       0.754018         130.677         64.2726 
       0.769845         128.428         61.5364 
        0.78569         125.414         58.9596 
       0.801365         122.157         56.5583 
       0.817031         118.284         54.2949 
       0.832809         116.886         52.1434 
       0.848511         112.935         50.1205 
       0.864097         109.775         48.2209 
       0.879701         109.377         46.4199 
       0.895507           106.6         44.6913 
       0.911279         105.606         43.0561 
        0.92691         102.277         41.5179 
       0.942635           100.2         40.0477 
       0.958396         99.6053          38.647 
       0.974128          97.228         37.3172 
       0.989692         94.8654         36.0642 
        1.00528         93.4221         34.8681 
        1.02113         91.2922         33.7084 
        1.03692         89.5195         32.6067 
        1.05264         88.4766         31.5603 
        1.06832          87.005         30.5623 
        1.08405         85.8362         29.6056 
        1.09979           84.64           28.69 
        1.11537         81.8164          27.823 
        1.13105         82.1226         26.9873 
        1.14679         80.8464         26.1832 
        1.16256          79.256          25.411 
        1.17828         77.3782          24.673 
        1.19395         76.9248         23.9673 
         1.2097         75.1374         23.2862 
        1.22537         74.8069         22.6353 
          1.241         73.2573         22.0116 
        1.25666         71.9094         21.4104 
        1.27241         71.5265         20.8291 
        1.28819         69.8451         20.2688 
        1.30392         68.6946         19.7312 
        1.31957         68.3735         19.2158 
        1.33529         67.6322         18.7172 
        1.35108         66.7606         18.2346 
        1.36674         65.7531         17.7728 
         1.3824         64.3799         17.3277 
        1.39811          64.072         16.8966 
        1.41389         62.9323         16.4788 
        1.42964          62.148         16.0761 
        1.44531         61.5571          15.689 
        1.46101         60.0238         15.3141 
        1.47667         60.0696         14.9527 
        1.49229         59.5228         14.6042 
        1.50793         58.3323         14.2666 
        1.52367         57.7194         13.9376 
        1.53953         57.1159          13.617 
        1.55526         56.3254         13.3092 
        1.57092         55.8975         13.0123 
        1.58662         55.1174         12.7239 
        1.60235         54.5095         12.4439 
        1.61809         53.6322         12.1723 
        1.63369         52.8114         11.9113 
        1.64941         52.1494         11.6563 
        1.66519         51.5831         11.4079 
        1.68085         51.0802         11.1686 
        1.69652         50.6207         10.9363 
        1.71228          50.285         10.7093 
        1.72806         49.4384         10.4887 
        1.74368         48.9608         10.2766 
        1.75933         48.3593         10.0701 
        1.77505         47.9378         9.86837 
        1.79081         47.2322         9.67189 
         1.8065         46.7308         9.48168 
        1.82218         46.2587         9.29684 
        1.83797          45.746         9.11573 
        1.85367         45.1563         8.94052 
        1.86928         44.6646         8.77105 
        1.88497         44.0569         8.60511 
        1.90073         43.9751         8.44292 
        1.91647         43.3351         8.28511 
        1.93218          42.789         8.13174 
        1.94787         42.4572         7.98254 
        1.96363         42.0313         7.83654 
        1.97935         41.5858         7.69455 
        1.99499         40.9707         7.55694 
        2.01064         40.5437         7.42254 
         2.0264         40.0281         7.29062 
        2.04216         39.6299         7.16202 
        2.05781         39.3453         7.03738 
        2.07353         38.8312          6.9153 
        2.08928         38.6917          6.7959 
        2.10499         38.2097         6.67968 
        2.12065          37.662         6.56657 
        2.13633         37.3556         6.45602 
        2.15211         36.7621         6.34733 
        2.16785         36.4499         6.24149 
        2.18349         36.3524         6.13877 
        2.19916         35.8818         6.03817 
        2.21489         35.4007         5.93953 
        2.23063         35.1452         5.84306 
         2.2463         34.9642         5.74919 
        2.26194         34.3915         5.65765 
        2.27765         34.1066         5.56767 
        2.29341         33.6751         5.47943 
        2.30914         33.5456         5.39332 
        2.32486          33.148         5.30913 
        2.34061          32.753         5.22663 
        2.35635         32.3528         5.14598 
        2.37203         32.0954         5.06733 
        2.38768         31.8543         4.99052 
        2.40339         31.6872         4.91504 
        2.41914         31.2578         4.84097 
        2.43483         30.8394         4.76871 
         2.4505         30.6088         4.69806 
        2.46622         30.2433         4.62863 
        2.48195         29.9482         4.56061 
        2.49759         29.6867         4.49435 
        2.51328         29.4127         4.42924 
        2.52906         29.1641         4.36504 
        2.54479         28.7975         4.30236 
        2.56049         28.3755         4.24105 
        2.57618         28.2401         4.18101 
        2.59189         28.0077         4.12205 
        2.60758         27.8006         4.06434 
        2.62325         27.4539         4.00782 
        2.63898         27.2418          3.9522 
        2.65468          27.046         3.89776 
        2.67044         26.6693         3.84413 
        2.68618         26.4693         3.79164 
        2.70184         26.2458         3.74036 
        2.71755         25.9477         3.68991 
        2.73329          25.723         3.64033 
        2.74897         25.3916         3.59183 
        2.76462         25.3463         3.54434 
        2.78034          25.103         3.49752 
        2.79607         24.8122         3.45151 
        2.81179         24.5876         3.40639 
        2.82749         24.3672         3.36214 
        2.84321         24.1813         3.31863 
        2.85893         23.9042         3.27592 
        2.87462         23.6898         3.23405 
        2.89033         23.4923         3.19287 
        2.90605         23.3104         3.15239 
        2.92176         22.9929         3.11264 
        2.93747         22.8272         3.07361 
        2.95318         22.6529         3.03525 
        2.96891         22.3929         2.99753 
        2.98456         22.1801         2.96063 
        3.00023          22.056          2.9243 
        3.01596          21.798         2.88848 
        3.03164          21.638         2.85337 
        3.04738         21.3879         2.81875 
         3.0631         21.2373         2.78473 
        3.07883         21.0616         2.75127 
        3.09456         20.8394         2.71837 
        3.11026         20.7016         2.68607 
        3.12596         20.4373          2.6543 
        3.14163         20.3649         2.62313 
        3.15734         20.0524          2.5924 
        3.17308         19.8951         2.56208 
        3.18879         19.7361         2.53235 
        3.20447         19.5353         2.50313 
         3.2202         19.4147         2.47429 
         3.2359         19.2101         2.44596 
        3.25157         19.1217         2.41815 
        3.26729         18.8757         2.39069 
        3.28304         18.7661         2.36361 
        3.29877         18.5288           2.337 
        3.31446         18.3797         2.31085 
        3.33014         18.1493         2.28513 
        3.34585         18.0235         2.25977 
        3.36158         17.8677         2.23477 
        3.37727          17.719         2.21022 
        3.39294         17.5715         2.18607 
        3.40867         17.3544          2.1622 
        3.42439         17.2744          2.1387 
        3.44008         17.1695         2.11561 
        3.45578         17.0214         2.09284 
        3.47153         16.8604         2.07036 
        3.48724         16.6952         2.04825 
        3.50292         16.5097         2.02652 
        3.51859         16.4223         2.00513 
        3.53431         16.2965         1.98398 
        3.55007         16.1428         1.96308 
        3.56577         16.0114         1.94258 
        3.58146         15.8507         1.92238 
        3.59719         15.6886         1.90242 
        3.61292         15.6052         1.88276 
        3.62859         15.4476         1.86345 
        3.64429         15.2726         1.84438 
        3.66003         15.1744         1.82552 
        3.67578         15.0381         1.80694 
        3.69146         14.9115         1.78869 
        3.70712         14.7547         1.77072 
        3.72284         14.6893         1.75294 
        3.73853         14.5414         1.73544 
        3.75422         14.4288         1.71818 
        3.76993         14.2827         1.70113 
        3.78564         14.1246         1.68433 
        3.80137         14.0181         1.66773 
        3.81707         13.9349         1.65139 
        3.83279         13.8037         1.63526 
        3.84853         13.6813         1.61933 
        3.86424         13.5851         1.60363 
        3.87992         13.4486         1.58818 
        3.89561         13.3552         1.57292 
        3.91134         13.2869         1.55784 
        3.92704         13.1485         1.54298 
        3.94273         13.0182         1.52833 
        3.95845         12.9245         1.51385 
        3.97418         12.8374         1.49955 
        3.98988         12.6997         1.48545 
        4.00554         12.6255         1.47158 
        4.02125         12.4968         1.45785 
        4.03698         12.4015         1.44428 
        4.05268         12.2955         1.43091 
        4.06839         12.1847          1.4177 
         4.0841         12.0981         1.40467 
        4.09983         11.9672         1.39178 
        4.11555         11.8884         1.37907 
        4.13124         11.7968         1.36654 
        4.14693         11.6882         1.35417 
        4.16266         11.6102         1.34192 
        4.17839         11.5136         1.32983 
        4.19408         11.4166         1.31792 
        4.20977         11.3264         1.30616 
        4.22551         11.2625         1.29451 
        4.24123         11.1765         1.28301 
        4.25691         11.0935         1.27169 
        4.27259         10.9658         1.26051 
        4.28831         10.8855         1.24943 
        4.30404         10.7656         1.23849 
        4.31974         10.6985         1.22769 
        4.33543         10.5823         1.21704 
        4.35116         10.5294         1.20649 
        4.36688         10.4857         1.19606 
        4.38255         10.3697          1.1858 
        4.39825         10.3009         1.17565 
        4.41398         10.2032         1.16559 
         4.4297         10.1202         1.15566 
        4.44541         10.0489         1.14585 
        4.46111         9.96422         1.13616 
        4.47683         9.86987         1.12658 
        4.49251         9.82063         1.11713 
        4.50819         9.74864         1.10779 
         4.5239         9.69352         1.09855 
        4.53962         9.59107          1.0894 
        4.55535         9.49633         1.08036 
        4.57106         9.43749         1.07143 
        4.58678         9.35976          1.0626 
         4.6025         9.29907         1.05387 
        4.61821         9.20207         1.04524 
        4.63391         9.15485         1.03672 
         4.6496         9.07523          1.0283 
        4.66532         9.01311         1.01996 
        4.68103         8.93306         1.01172 
        4.69673          8.8867         1.00357 
        4.71241         8.80569         0.99553 
        4.72811         8.71639        0.987563 
        4.74384         8.69405        0.979674 
        4.75955         8.60359        0.971884 
        4.77525         8.54965        0.964185 
        4.79096         8.48225         0.95656 
        4.80669         8.42094        0.949015 
         4.8224          8.3698        0.941562 
        4.83809         8.27763        0.934197 
        4.85379         8.22945        0.926907 
         4.8695          8.1697         0.91969 
        4.88521         8.09638        0.912554 
        4.90093          8.0423        0.905494 
        4.91663         7.98779        0.898516 
        4.93234         7.92069        0.891604 
        4.94807         7.86169        0.884762 
        4.96377         7.80808        0.878005 
        4.97943         7.75589        0.871334 
        4.99514         7.69493        0.864716 
        5.01086         7.60294        0.858162 
        5.02654         7.58178        0.851694 
        5.04227         7.53093        0.845275 
          5.058         7.48718        0.838919 
        5.07371         7.40948        0.832642 
        5.08942         7.35376        0.826429 
        5.10513          7.3081         0.82028 
        5.12084         7.26669        0.814191 
        5.13656         7.19875        0.808165 
        5.15225         7.15324        0.802212 
        5.16796         7.08516         0.79631 
        5.18369         7.04963        0.790462 
         5.1994         6.99795        0.784685 
        5.21509         6.95486        0.778971 
        5.23079         6.90434        0.773308 
        5.24649         6.84258        0.767707 
        5.26217         6.80771        0.762166 
        5.27788         6.75106        0.756672 
        5.29359         6.70816        0.751232 
        5.30933         6.65875        0.745838 
        5.32504          6.6087        0.740507 
        5.34073         6.56689        0.735235 
        5.35646         6.52709        0.730004 
        5.37218          6.4813        0.724823 
        5.38789         6.44358        0.719702 
        5.40357         6.38424        0.714636 
        5.41929          6.3391        0.709609 
        5.43502         6.29498         0.70463 
         5.4507         6.25238        0.699712 
        5.46639         6.21175         0.69484 
        5.48212         6.16567        0.690004 
        5.49786         6.12553        0.685209 
        5.51353         6.07869        0.680483 
        5.52921         6.03948        0.675798 
        5.54495         5.99737        0.671144 
        5.56066         5.94646        0.666539 
        5.57637         5.91581        0.661979 
        5.59207         5.86858        0.657466 
        5.60778         5.83259        0.652993 
        5.62346         5.79725        0.648569 
        5.63916         5.75427        0.644183 
        5.65487         5.71845        0.639835 
         5.6706         5.67363        0.635523 
        5.68633          5.6429        0.631249 
        5.70203         5.59747        0.627024 
        5.71773         5.56399        0.622839 
        5.73344         5.53968         0.61869 
        5.74916         5.48642        0.614576 
        5.76486         5.45191        0.610505 
        5.78054         5.42115        0.606478 
        5.79626         5.38329        0.602476 
          5.812         5.34931        0.598507 
         5.8277          5.3162        0.594585 
        5.84339         5.27387          0.5907 
        5.85911         5.24497        0.586841 
        5.87484         5.20999        0.583019 
        5.89053         5.18543        0.579238 
        5.90623         5.14045         0.57549 
        5.92195         5.10487        0.571769 
        5.93767         5.07686        0.568083 
        5.95336            5.03        0.564436 
        5.96905         4.99838        0.560823 
        5.98476          4.9676        0.557236 
        6.00048          4.9423        0.553681 
        6.01617         4.91063        0.550161 
        6.03185         4.88115        0.546677 
        6.04756         4.84315        0.543215 
        6.06331         4.81918        0.539776 
        6.07903         4.79526        0.536374 
        6.09473         4.76208        0.533005 
        6.11044         4.72724        0.529663 
        6.12616         4.70234         0.52635 
        6.14186         4.67047        0.523068 
        6.15755          4.6412        0.519816 
        6.17326         4.61975        0.516589 
        6.18898         4.58389        0.513388 
        6.20467         4.56391         0.51022 
        6.22036         4.52258         0.50708 
         6.2361         4.49398        0.503957 
         6.2518         4.47359        0.500867 
        6.26748          4.4487         0.49781 
        6.28319         4.41922        0.494769 
        6.29893         4.39233        0.491752 
        6.31463         4.36255        0.488766 
        6.33033          4.3351        0.485806 
        6.34604          4.3128        0.482868 
        6.36177         4.27382        0.479952 
        6.37747         4.25507        0.477066 
