# k  (h/Mpc)    Pcb(k)  (Mpc/h)^3    Pcb_linear(k) (Mpc/h)^3   ShotnoiseSubtracted = true
      0.0200456         11946.2         12151.2 
      0.0350414         10155.8         9962.53 
      0.0492313         7691.87         7843.59 
      0.0637834         6447.29         6776.35 
      0.0800726         5213.69         5534.46 
       0.096163         4242.26         4206.03 
       0.111083         3584.49         3492.64 
       0.126058         3007.91         3134.41 
       0.142273         2616.33         2667.11 
       0.158546         2194.35         2166.05 
        0.17375         1971.77         1882.46 
       0.188953         1842.29         1717.15 
       0.204907         1587.77         1517.68 
       0.220756         1437.17         1304.36 
        0.23588         1293.97         1161.13 
         0.2514         1172.84         1065.05 
       0.267535         1140.36         962.972 
       0.283568         1008.73         856.566 
       0.299022          969.19         775.684 
       0.314451          992.33         715.729 
       0.330372         864.883         657.756 
       0.346141          804.11         600.005 
       0.361624         773.901         551.155 
       0.377134         732.676         511.536 
       0.392932         712.789         475.102 
       0.408854         679.051         439.706 
       0.424564         660.472         408.158 
       0.440253         605.672         381.094 
       0.455999         582.191         356.678 
       0.471626         590.556         333.862 
        0.48727         562.044         312.853 
       0.502856         521.647         294.106 
       0.518488         522.018         277.046 
       0.534347         486.629         260.968 
       0.550082         473.246          246.16 
       0.565732         470.557          232.68 
       0.581496         456.163         220.214 
       0.597222         443.571         208.671 
       0.612804         435.345         198.019 
       0.628434         416.743         188.098 
       0.644267         401.525         178.789 
       0.660051         395.142         170.153 
       0.675724         393.362         162.146 
       0.691403         380.435         154.656 
       0.707174         368.016         147.605 
       0.722871         362.936         141.029 
        0.73838         360.117          134.93 
       0.754018         344.749         129.151 
       0.769845         342.518         123.653 
        0.78569         336.286         118.475 
       0.801365          329.08          113.65 
       0.817031          319.28         109.102 
       0.832809         317.568         104.778 
       0.848511           309.4         100.713 
       0.864097         302.688         96.8964 
       0.879701         300.946         93.2774 
       0.895507         292.359          89.804 
       0.911279         284.388         86.5181 
        0.92691         283.169         83.4271 
       0.942635         280.945          80.473 
       0.958396         273.818         77.6584 
       0.974128         267.867         74.9861 
       0.989692         260.475         72.4684 
        1.00528         258.711         70.0649 
        1.02113         255.231         67.7346 
        1.03692         249.605         65.5209 
        1.05264         246.792         63.4182 
        1.06832         244.673         61.4128 
        1.08405         238.844         59.4903 
        1.09979         237.878         57.6505 
        1.11537         231.863         55.9083 
        1.13105          228.84         54.2289 
        1.14679         225.969         52.6133 
        1.16256         223.412         51.0615 
        1.17828         219.962         49.5786 
        1.19395         214.175         48.1606 
         1.2097         214.782         46.7919 
        1.22537         211.775         45.4839 
          1.241         208.468         44.2308 
        1.25666         203.415         43.0225 
        1.27241          199.25         41.8546 
        1.28819         197.916         40.7288 
        1.30392         193.261         39.6484 
        1.31957         191.131         38.6127 
        1.33529         189.131         37.6108 
        1.35108         185.826         36.6411 
        1.36674         183.668         35.7132 
         1.3824         181.879         34.8188 
        1.39811         177.471         33.9526 
        1.41389         176.155          33.113 
        1.42964         172.954         32.3038 
        1.44531         170.928          31.526 
        1.46101         168.241         30.7725 
        1.47667         167.134         30.0464 
        1.49229         164.463         29.3461 
        1.50793         161.793         28.6676 
        1.52367         160.299         28.0066 
        1.53953         157.069         27.3623 
        1.55526         156.206         26.7438 
        1.57092         153.883         26.1473 
        1.58662         151.041         25.5678 
        1.60235         148.921         25.0051 
        1.61809         147.238         24.4593 
        1.63369         145.604          23.935 
        1.64941         144.817         23.4225 
        1.66519          141.55         22.9233 
        1.68085         140.288         22.4426 
        1.69652         138.425         21.9757 
        1.71228         137.082         21.5196 
        1.72806         134.705         21.0763 
        1.74368         132.551         20.6502 
        1.75933         131.373         20.2351 
        1.77505         129.392         19.8298 
        1.79081         128.005          19.435 
         1.8065          126.33         19.0527 
        1.82218         124.356         18.6813 
        1.83797         123.766         18.3174 
        1.85367         121.542         17.9653 
        1.86928         120.732         17.6248 
        1.88497         119.197         17.2913 
        1.90073         117.554         16.9654 
        1.91647         115.603         16.6483 
        1.93218         114.431         16.3401 
        1.94787         113.175         16.0403 
        1.96363           111.6          15.747 
        1.97935         110.681         15.4616 
        1.99499         109.009         15.1851 
        2.01064         107.589         14.9151 
         2.0264         105.906           14.65 
        2.04216         105.267         14.3916 
        2.05781         103.475         14.1411 
        2.07353         102.242         13.8958 
        2.08928         100.982         13.6559 
        2.10499         99.5137         13.4223 
        2.12065         99.3042          13.195 
        2.13633         98.0417         12.9729 
        2.15211         96.5845         12.7545 
        2.16785         95.1697         12.5418 
        2.18349         93.8798         12.3354 
        2.19916         93.1437         12.1333 
        2.21489         91.5962         11.9351 
        2.23063         91.0602         11.7412 
         2.2463          89.846         11.5526 
        2.26194         88.7816         11.3686 
        2.27765         87.6421         11.1878 
        2.29341         86.7795         11.0105 
        2.30914         85.4477         10.8375 
        2.32486         84.1195         10.6683 
        2.34061         83.3296         10.5025 
        2.35635         82.5923         10.3405 
        2.37203         81.7303         10.1824 
        2.38768         80.5233         10.0281 
        2.40339         79.3017         9.87641 
        2.41914         78.9673         9.72757 
        2.43483         78.1075         9.58237 
         2.4505          76.692         9.44042 
        2.46622         75.9398         9.30089 
        2.48195         75.0784         9.16422 
        2.49759         74.4791         9.03106 
        2.51328         73.4072         8.90024 
        2.52906         72.5961         8.77122 
        2.54479         71.7531         8.64527 
        2.56049         70.6591         8.52208 
        2.57618         69.9976         8.40143 
        2.59189         69.4869         8.28296 
        2.60758         68.4647           8.167 
        2.62325         67.8662         8.05343 
        2.63898         66.7745         7.94165 
        2.65468         66.5148         7.83226 
        2.67044         65.4662         7.72449 
        2.68618         64.9962         7.61902 
        2.70184         64.0983         7.51598 
        2.71755         63.5633         7.41461 
        2.73329         62.8129         7.31497 
        2.74897         62.0419         7.21752 
        2.76462         61.5395         7.12209 
        2.78034         60.7361         7.02801 
        2.79607         59.9823         6.93555 
        2.81179         59.3605         6.84489 
        2.82749         58.8778         6.75597 
        2.84321         58.2439         6.66855 
        2.85893         57.5282         6.58273 
        2.87462         56.6948         6.49858 
        2.89033         56.2252         6.41585 
        2.90605         55.4601          6.3345 
        2.92176         54.9976         6.25463 
        2.93747         54.3003          6.1762 
        2.95318          54.115         6.09911 
        2.96891          53.307         6.02332 
        2.98456         52.7314         5.94917 
        3.00023         52.1011         5.87618 
        3.01596         51.4131          5.8042 
        3.03164          51.031         5.73365 
        3.04738          50.648         5.66408 
         3.0631         50.1135         5.59571 
        3.07883         49.4979         5.52847 
        3.09456          48.964         5.46237 
        3.11026          48.272         5.39746 
        3.12596          47.744         5.33363 
        3.14163         47.6004         5.27099 
        3.15734          47.073         5.20923 
        3.17308         46.5973         5.14832 
        3.18879         45.9007         5.08856 
        3.20447         45.5633         5.02986 
         3.2202         45.1538         4.97191 
         3.2359         44.5777         4.91498 
        3.25157         44.2051          4.8591 
        3.26729         43.7082         4.80392 
        3.28304         43.2521         4.74951 
        3.29877         42.8016         4.69602 
        3.31446         42.3927         4.64349 
        3.33014         41.9481         4.59181 
        3.34585         41.5926         4.54085 
        3.36158         41.1154          4.4906 
        3.37727         40.7552         4.44128 
        3.39294         40.3195         4.39275 
        3.40867         39.8949         4.34478 
        3.42439         39.6267         4.29757 
        3.44008         39.1678         4.25116 
        3.45578         38.8166          4.2054 
        3.47153         38.4482         4.16023 
        3.48724         38.1295         4.11581 
        3.50292         37.7036         4.07215 
        3.51859         37.2964         4.02916 
        3.53431         36.8769         3.98666 
        3.55007         36.6678         3.94467 
        3.56577           36.14         3.90347 
        3.58146         35.8345         3.86287 
        3.59719         35.6729         3.82277 
        3.61292         35.1184         3.78326 
        3.62859         34.8799         3.74447 
        3.64429         34.5811         3.70615 
        3.66003         34.1759         3.66825 
        3.67578         34.0068         3.63091 
        3.69146         33.7149         3.59423 
        3.70712         33.2083         3.55814 
        3.72284         33.0972         3.52241 
        3.73853         32.7626         3.48724 
        3.75422         32.3824         3.45255 
        3.76993         32.0918          3.4183 
        3.78564         31.7578         3.38454 
        3.80137         31.4404         3.35118 
        3.81707         31.2003         3.31835 
        3.83279         30.8877         3.28594 
        3.84853         30.6017         3.25392 
        3.86424         30.2832         3.22239 
        3.87992         30.0944         3.19133 
        3.89561         29.8355         3.16068 
        3.91134         29.5067         3.13038 
        3.92704         29.2242         3.10051 
        3.94273         29.0461         3.07107 
        3.95845         28.6725         3.04196 
        3.97418         28.4344         3.01323 
        3.98988          28.121         2.98491 
        4.00554         27.9255         2.95704 
        4.02125         27.6878         2.92945 
        4.03698         27.4236         2.90218 
        4.05268         27.1748         2.87531 
        4.06839         27.0136         2.84877 
         4.0841         26.7457         2.82258 
        4.09983         26.4787         2.79669 
        4.11555         26.2841         2.77113 
        4.13124         26.0685         2.74597 
        4.14693         25.8596          2.7211 
        4.16266         25.6185         2.69649 
        4.17839           25.42          2.6722 
        4.19408         25.1269         2.64827 
        4.20977         24.9074         2.62463 
        4.22551         24.7215         2.60122 
        4.24123         24.4504         2.57812 
        4.25691         24.2927         2.55537 
        4.27259         24.0039          2.5329 
        4.28831         23.8878         2.51065 
        4.30404         23.6615         2.48865 
        4.31974         23.4843         2.46696 
        4.33543         23.2393         2.44555 
        4.35116         23.1116         2.42434 
        4.36688         22.9293          2.4034 
        4.38255         22.6619         2.38279 
        4.39825         22.5004         2.36237 
        4.41398         22.2572         2.34216 
         4.4297          22.095         2.32221 
        4.44541         21.8909          2.3025 
        4.46111         21.7632         2.28303 
        4.47683         21.5591         2.26378 
        4.49251         21.4223         2.24479 
        4.50819         21.2378         2.22603 
         4.5239         21.0508         2.20746 
        4.53962         20.8623         2.18908 
        4.55535         20.6753          2.1709 
        4.57106         20.5225         2.15295 
        4.58678         20.3022         2.13521 
         4.6025          20.184         2.11767 
        4.61821         20.0326         2.10033 
        4.63391         19.8825         2.08321 
         4.6496         19.7209         2.06629 
        4.66532         19.5635         2.04953 
        4.68103         19.3723         2.03297 
        4.69673         19.2535         2.01661 
        4.71241         19.0126         2.00045 
        4.72811         18.9005         1.98444 
        4.74384         18.7584         1.96858 
        4.75955         18.6109         1.95293 
        4.77525         18.4845         1.93746 
        4.79096         18.2714         1.92214 
        4.80669         18.1896         1.90698 
         4.8224          17.988           1.892 
        4.83809         17.8583          1.8772 
        4.85379         17.7295         1.86255 
         4.8695         17.6007         1.84805 
        4.88521          17.466         1.83371 
        4.90093         17.3351         1.81952 
        4.91663         17.1943          1.8055 
        4.93234         17.0551         1.79161 
        4.94807         16.9409         1.77787 
        4.96377         16.7987         1.76429 
        4.97943         16.6917         1.75088 
        4.99514          16.552         1.73758 
        5.01086          16.438         1.72442 
        5.02654         16.2642         1.71142 
        5.04227         16.1502         1.69852 
          5.058         16.0406         1.68575 
        5.07371         15.9211         1.67313 
        5.08942         15.7913         1.66065 
        5.10513           15.68         1.64829 
        5.12084         15.5075         1.63606 
        5.13656         15.4386         1.62395 
        5.15225         15.2879         1.61199 
        5.16796         15.1743         1.60013 
        5.18369         15.0781         1.58838 
         5.1994         14.9559         1.57677 
        5.21509         14.8703         1.56529 
        5.23079         14.7491         1.55391 
        5.24649         14.6105         1.54265 
        5.26217         14.4998         1.53152 
        5.27788         14.4415         1.52048 
        5.29359         14.2985         1.50955 
        5.30933         14.1898         1.49871 
        5.32504          14.087           1.488 
        5.34073         14.0252          1.4774 
        5.35646          13.905         1.46689 
        5.37218          13.734         1.45648 
        5.38789         13.6687         1.44619 
        5.40357         13.5928         1.43601 
        5.41929         13.4694         1.42591 
        5.43502         13.3898          1.4159 
         5.4507         13.2659         1.40602 
        5.46639         13.2017         1.39623 
        5.48212         13.0928         1.38651 
        5.49786          13.008         1.37688 
        5.51353         12.9242         1.36738 
        5.52921         12.8245         1.35797 
        5.54495         12.7226         1.34861 
        5.56066         12.6233         1.33936 
        5.57637         12.5461          1.3302 
        5.59207          12.439         1.32113 
        5.60778         12.3459         1.31214 
        5.62346         12.2623         1.30325 
        5.63916         12.1752         1.29444 
        5.65487         12.1052          1.2857 
         5.6706         12.0056         1.27704 
        5.68633         11.9098         1.26845 
        5.70203         11.8578         1.25996 
        5.71773           11.76         1.25155 
        5.73344         11.7022         1.24321 
        5.74916         11.5848         1.23495 
        5.76486         11.5155         1.22677 
        5.78054         11.4416         1.21867 
        5.79626         11.3345         1.21063 
          5.812         11.2765         1.20266 
         5.8277         11.1771         1.19478 
        5.84339         11.1231         1.18697 
        5.85911         11.0354         1.17922 
        5.87484         10.9665         1.17153 
        5.89053         10.8688         1.16394 
        5.90623          10.812         1.15641 
        5.92195         10.7177         1.14893 
        5.93767         10.6618         1.14152 
        5.95336         10.5923         1.13419 
        5.96905         10.4989         1.12693 
        5.98476         10.4523         1.11973 
        6.00048         10.3568         1.11258 
        6.01617          10.284         1.10551 
        6.03185         10.2309         1.09851 
        6.04756         10.1716         1.09155 
        6.06331         10.0854         1.08464 
        6.07903          10.024          1.0778 
        6.09473         9.94953         1.07104 
        6.11044          9.8883         1.06432 
        6.12616         9.83211         1.05766 
        6.14186         9.75805         1.05107 
        6.15755         9.69147         1.04453 
        6.17326         9.62356         1.03805 
        6.18898         9.56147         1.03162 
        6.20467         9.52059         1.02525 
        6.22036         9.43618         1.01894 
         6.2361         9.36846         1.01267 
         6.2518         9.30264         1.00646 
        6.26748         9.27083         1.00031 
        6.28319         9.19335        0.994203 
        6.29893         9.12925        0.988141 
        6.31463         9.07072         0.98214 
        6.33033          9.0259        0.976191 
        6.34604         8.95083        0.970288 
        6.36177         8.89402        0.964429 
        6.37747         8.83388         0.95863 
