# k  (h/Mpc)    Pcb(k)  (Mpc/h)^3    Pcb_linear(k) (Mpc/h)^3   ShotnoiseSubtracted = true
      0.0200456         17804.1         18287.4 
      0.0350414           14253         14993.5 
      0.0492313         11451.3         11804.5 
      0.0637834         10213.2         10198.3 
      0.0800726         8252.06         8329.29 
       0.096163         5955.14         6330.03 
       0.111083         4910.58         5256.38 
       0.126058         4584.23         4717.24 
       0.142273         3963.99         4013.96 
       0.158546            3532         3259.88 
        0.17375          2883.1         2833.08 
       0.188953         2830.52         2584.29 
       0.204907         2675.45          2284.1 
       0.220756          2345.4         1963.05 
        0.23588         2098.09         1747.48 
         0.2514         1846.52         1602.88 
       0.267535         1862.94         1449.26 
       0.283568         1699.37         1289.12 
       0.299022         1608.47         1167.39 
       0.314451         1542.99         1077.16 
       0.330372         1424.02         989.915 
       0.346141         1374.73         903.001 
       0.361624         1321.21         829.481 
       0.377134         1233.85         769.855 
       0.392932         1198.65         715.023 
       0.408854         1171.87         661.752 
       0.424564         1093.66         614.273 
       0.440253         1072.84         573.542 
       0.455999         1045.93         536.795 
       0.471626         1001.47         502.458 
        0.48727         971.584          470.84 
       0.502856         943.459         442.625 
       0.518488          935.09         416.951 
       0.534347         880.651         392.754 
       0.550082          859.88         370.468 
       0.565732         857.615          350.18 
       0.581496         816.569         331.419 
       0.597222         801.758         314.048 
       0.612804         786.606         298.016 
       0.628434         767.555         283.085 
       0.644267         746.883         269.075 
       0.660051         725.186         256.078 
       0.675724         722.753         244.028 
       0.691403         698.714         232.756 
       0.707174         679.832         222.144 
       0.722871         670.351         212.246 
        0.73838         658.516         203.068 
       0.754018         645.781         194.371 
       0.769845         633.847         186.096 
        0.78569         622.861         178.303 
       0.801365         607.943         171.042 
       0.817031         593.008         164.197 
       0.832809         587.946          157.69 
       0.848511          574.53         151.572 
       0.864097         560.405         145.828 
       0.879701          552.28         140.381 
       0.895507         551.616         135.154 
       0.911279         535.502         130.209 
        0.92691          527.62         125.557 
       0.942635           515.3         121.111 
       0.958396         500.988         116.875 
       0.974128         495.302         112.853 
       0.989692          490.17         109.064 
        1.00528         479.284         105.447 
        1.02113         477.007          101.94 
        1.03692         463.113         98.6081 
        1.05264         458.404         95.4436 
        1.06832         448.428         92.4254 
        1.08405         443.481         89.5322 
        1.09979         436.099         86.7633 
        1.11537         426.468         84.1413 
        1.13105         420.111         81.6138 
        1.14679         414.365         79.1824 
        1.16256         399.616          76.847 
        1.17828         402.874         74.6152 
        1.19395         392.998         72.4811 
         1.2097         387.058         70.4212 
        1.22537         377.123         68.4527 
          1.241         374.899         66.5668 
        1.25666         368.797         64.7484 
        1.27241         362.773         62.9906 
        1.28819         357.703         61.2963 
        1.30392         349.195         59.6703 
        1.31957         347.465         58.1116 
        1.33529         341.452         56.6038 
        1.35108         335.421         55.1445 
        1.36674         329.531         53.7479 
         1.3824         327.103         52.4019 
        1.39811         321.205         51.0982 
        1.41389          318.67         49.8347 
        1.42964          314.39         48.6167 
        1.44531         308.283         47.4462 
        1.46101         303.938         46.3123 
        1.47667         300.064         45.2195 
        1.49229         295.739         44.1655 
        1.50793         290.395         43.1444 
        1.52367         286.927         42.1496 
        1.53953         282.995           41.18 
        1.55526         276.621         40.2491 
        1.57092         276.219         39.3513 
        1.58662          271.62         38.4793 
        1.60235         266.717         37.6324 
        1.61809         262.974          36.811 
        1.63369         259.788         36.0218 
        1.64941         255.965         35.2505 
        1.66519         252.426         34.4993 
        1.68085         249.819         33.7758 
        1.69652         244.553         33.0731 
        1.71228         240.831         32.3867 
        1.72806         237.114         31.7196 
        1.74368         234.568         31.0782 
        1.75933         231.153         30.4536 
        1.77505         229.804         29.8436 
        1.79081         226.354         29.2494 
         1.8065         222.715         28.6741 
        1.82218         219.701         28.1151 
        1.83797          218.21         27.5675 
        1.85367         213.288         27.0376 
        1.86928         210.186         26.5251 
        1.88497         207.744         26.0233 
        1.90073         205.583         25.5328 
        1.91647         203.689         25.0555 
        1.93218         200.229         24.5917 
        1.94787         196.736         24.1405 
        1.96363          193.68          23.699 
        1.97935         193.551         23.2696 
        1.99499         189.354         22.8534 
        2.01064         187.967          22.447 
         2.0264          185.66          22.048 
        2.04216         182.789         21.6591 
        2.05781         180.134         21.2822 
        2.07353         177.877          20.913 
        2.08928          175.82         20.5519 
        2.10499         172.672         20.2004 
        2.12065         171.573         19.8584 
        2.13633         169.592          19.524 
        2.15211         166.633         19.1954 
        2.16785         164.661         18.8753 
        2.18349         163.057         18.5646 
        2.19916         160.694         18.2604 
        2.21489         159.608         17.9621 
        2.23063         157.043         17.6704 
         2.2463         153.993         17.3865 
        2.26194         152.384         17.1097 
        2.27765         151.083         16.8375 
        2.29341         149.558         16.5707 
        2.30914         147.565         16.3103 
        2.32486         145.503         16.0557 
        2.34061         143.459         15.8062 
        2.35635         142.196         15.5623 
        2.37203         140.703         15.3244 
        2.38768         138.739         15.0921 
        2.40339         137.222         14.8639 
        2.41914         135.395         14.6399 
        2.43483         133.711         14.4213 
         2.4505         132.816         14.2077 
        2.46622         130.235         13.9977 
        2.48195         128.819          13.792 
        2.49759         127.604         13.5916 
        2.51328         126.308         13.3948 
        2.52906         124.879         13.2006 
        2.54479          123.35          13.011 
        2.56049         122.371         12.8256 
        2.57618         120.017          12.644 
        2.59189         119.468         12.4658 
        2.60758         118.071         12.2912 
        2.62325         116.086         12.1203 
        2.63898         114.766         11.9521 
        2.65468         113.579         11.7875 
        2.67044         112.406         11.6253 
        2.68618         110.692         11.4665 
        2.70184          110.29         11.3115 
        2.71755         108.814         11.1589 
        2.73329         107.256         11.0089 
        2.74897         106.376         10.8623 
        2.76462         104.865         10.7187 
        2.78034         104.048         10.5771 
        2.79607         103.038         10.4379 
        2.81179         101.542         10.3015 
        2.82749         100.699         10.1676 
        2.84321         99.8189         10.0361 
        2.85893         98.1802         9.90692 
        2.87462          97.224         9.78028 
        2.89033         96.3805         9.65577 
        2.90605          95.111         9.53335 
        2.92176         94.2328         9.41314 
        2.93747         93.4614          9.2951 
        2.95318         92.1876         9.17908 
        2.96891         90.8835         9.06502 
        2.98456          90.356         8.95343 
        3.00023         89.1777         8.84357 
        3.01596         88.0533         8.73525 
        3.03164         87.3877         8.62907 
        3.04738         86.6559         8.52437 
         3.0631         85.5616         8.42147 
        3.07883         84.5443         8.32028 
        3.09456         84.0236          8.2208 
        3.11026         83.2701         8.12311 
        3.12596         82.3305         8.02705 
        3.14163         81.0386         7.93278 
        3.15734         80.4285         7.83983 
        3.17308         79.5964         7.74816 
        3.18879         78.5317         7.65823 
        3.20447          77.937         7.56987 
         3.2202         77.1289         7.48266 
         3.2359         76.0732         7.39699 
        3.25157         75.3481         7.31288 
        3.26729          74.796         7.22985 
        3.28304         74.2041         7.14796 
        3.29877         73.0205         7.06746 
        3.31446         72.5848         6.98839 
        3.33014         71.8649         6.91062 
        3.34585         71.0002         6.83393 
        3.36158         70.3214          6.7583 
        3.37727         69.7591         6.68407 
        3.39294         68.8444         6.61104 
        3.40867         68.2398         6.53885 
        3.42439         67.6193         6.46779 
        3.44008         66.8742         6.39794 
        3.45578         66.2084         6.32908 
        3.47153         65.6806          6.2611 
        3.48724         65.0606         6.19425 
        3.50292         64.6097         6.12854 
        3.51859         64.0464         6.06383 
        3.53431         63.0294         5.99987 
        3.55007         62.4484         5.93668 
        3.56577         62.1984         5.87467 
        3.58146         61.4925         5.81358 
        3.59719         60.7783         5.75322 
        3.61292         60.4294         5.69376 
        3.62859         59.5007         5.63537 
        3.64429         59.2518          5.5777 
        3.66003         58.5476         5.52067 
        3.67578         58.1181         5.46447 
        3.69146         57.4858         5.40928 
        3.70712         56.8333         5.35495 
        3.72284         56.4678         5.30119 
        3.73853         55.8074         5.24826 
        3.75422         55.2759         5.19604 
        3.76993         54.7329          5.1445 
        3.78564         54.3526         5.09369 
        3.80137         53.6433         5.04349 
        3.81707         53.3295         4.99408 
        3.83279         52.9213          4.9453 
        3.84853         52.4122          4.8971 
        3.86424         51.8155         4.84965 
        3.87992         51.5147          4.8029 
        3.89561         50.9394         4.75678 
        3.91134         50.4263         4.71118 
        3.92704          50.059         4.66623 
        3.94273         49.5313         4.62192 
        3.95845         49.1322         4.57812 
        3.97418         48.7376         4.53487 
        3.98988         48.2954         4.49226 
        4.00554         47.8309         4.45031 
        4.02125         47.3467         4.40879 
        4.03698         47.0965         4.36774 
        4.05268         46.6767         4.32731 
        4.06839         46.2722         4.28737 
         4.0841         45.7366         4.24795 
        4.09983         45.4335         4.20898 
        4.11555         45.0023         4.17052 
        4.13124         44.6708         4.13265 
        4.14693         44.2598         4.09523 
        4.16266         43.9773         4.05819 
        4.17839         43.5018         4.02163 
        4.19408         43.0831         3.98562 
        4.20977         42.7005         3.95003 
        4.22551         42.2565          3.9148 
        4.24123         42.0008         3.88004 
        4.25691         41.6516         3.84581 
        4.27259         41.2654         3.81198 
        4.28831         40.9604         3.77849 
        4.30404         40.5177         3.74538 
        4.31974         40.1635         3.71275 
        4.33543         39.8778         3.68052 
        4.35116         39.5415         3.64861 
        4.36688          39.291         3.61709 
        4.38255         38.9721         3.58607 
        4.39825         38.5296         3.55534 
        4.41398         38.1687         3.52492 
         4.4297         37.8625          3.4949 
        4.44541         37.5762         3.46523 
        4.46111         37.2738         3.43593 
        4.47683         36.9426         3.40696 
        4.49251          36.673         3.37838 
        4.50819         36.3511         3.35015 
         4.5239         36.0328         3.32219 
        4.53962         35.6509         3.29453 
        4.55535         35.4261         3.26717 
        4.57106         35.1321         3.24017 
        4.58678          34.867         3.21347 
         4.6025         34.5927         3.18707 
        4.61821         34.4276         3.16097 
        4.63391         34.0771          3.1352 
         4.6496         33.7376         3.10974 
        4.66532           33.48         3.08452 
        4.68103          33.231         3.05959 
        4.69673         33.0027         3.03497 
        4.71241         32.6843         3.01065 
        4.72811         32.4361         2.98655 
        4.74384         32.1554         2.96269 
        4.75955         31.9214         2.93914 
        4.77525          31.676         2.91585 
        4.79096         31.4341         2.89279 
        4.80669         31.1717         2.86998 
         4.8224         30.9207         2.84744 
        4.83809         30.7097         2.82516 
        4.85379          30.395         2.80312 
         4.8695         30.1957         2.78129 
        4.88521         29.9632         2.75971 
        4.90093          29.757         2.73836 
        4.91663         29.5301         2.71726 
        4.93234         29.2602         2.69636 
        4.94807         29.0715         2.67566 
        4.96377         28.8644         2.65523 
        4.97943          28.616         2.63506 
        4.99514         28.3477         2.61504 
        5.01086         28.1277         2.59522 
        5.02654         27.8931         2.57566 
        5.04227         27.7447         2.55625 
          5.058         27.4629         2.53703 
        5.07371         27.3266         2.51805 
        5.08942         27.1026         2.49926 
        5.10513         26.8593         2.48066 
        5.12084         26.7225         2.46225 
        5.13656         26.4903         2.44402 
        5.15225         26.2662         2.42602 
        5.16796         26.0834         2.40817 
        5.18369         25.8697         2.39049 
         5.1994         25.6906         2.37302 
        5.21509         25.4693         2.35574 
        5.23079         25.3168         2.33861 
        5.24649         25.0805         2.32167 
        5.26217         24.8452         2.30491 
        5.27788         24.6926          2.2883 
        5.29359         24.5085         2.27185 
        5.30933         24.4012         2.25554 
        5.32504         24.1227         2.23941 
        5.34073         24.0064         2.22347 
        5.35646         23.8335         2.20765 
        5.37218         23.6279         2.19198 
        5.38789         23.4434          2.1765 
        5.40357         23.3027         2.16118 
        5.41929         23.1291         2.14597 
        5.43502         22.9458         2.13092 
         5.4507         22.7758         2.11604 
        5.46639         22.6058         2.10131 
        5.48212         22.4515         2.08668 
        5.49786         22.2919         2.07218 
        5.51353         22.1102         2.05789 
        5.52921         21.9898         2.04372 
        5.54495         21.7783         2.02965 
        5.56066          21.609         2.01572 
        5.57637         21.5179         2.00193 
        5.59207         21.3345         1.98828 
        5.60778         21.1322         1.97476 
        5.62346         21.0115         1.96138 
        5.63916         20.9025         1.94811 
        5.65487         20.7207         1.93497 
         5.6706         20.5754         1.92192 
        5.68633         20.4339           1.909 
        5.70203         20.2984         1.89622 
        5.71773         20.1683         1.88357 
        5.73344         20.0147         1.87102 
        5.74916         19.8653         1.85858 
        5.76486         19.7484         1.84627 
        5.78054         19.6056         1.83409 
        5.79626          19.471         1.82199 
          5.812         19.3716         1.80998 
         5.8277         19.1565         1.79812 
        5.84339         19.0267         1.78637 
        5.85911         18.9213          1.7747 
        5.87484         18.8109         1.76314 
        5.89053         18.6904         1.75171 
        5.90623         18.5735         1.74038 
        5.92195         18.4002         1.72912 
        5.93767            18.3         1.71798 
        5.95336         18.1492         1.70695 
        5.96905         18.0463         1.69602 
        5.98476          17.899         1.68517 
        6.00048         17.8056         1.67442 
        6.01617         17.6634         1.66378 
        6.03185         17.5664         1.65324 
        6.04756         17.4226         1.64277 
        6.06331         17.3153         1.63237 
        6.07903         17.1826         1.62208 
        6.09473         17.0893         1.61189 
        6.11044           16.95         1.60179 
        6.12616         16.8306         1.59177 
        6.14186         16.7363         1.58184 
        6.15755         16.6287         1.57201 
        6.17326         16.5264         1.56225 
        6.18898         16.3742         1.55257 
        6.20467         16.2809         1.54299 
        6.22036         16.1779         1.53349 
         6.2361         16.0737         1.52405 
         6.2518         15.9429          1.5147 
        6.26748         15.8494         1.50546 
        6.28319         15.7612         1.49626 
        6.29893         15.6557         1.48714 
        6.31463         15.5598         1.47811 
        6.33033         15.4351         1.46916 
        6.34604         15.3408         1.46027 
        6.36177         15.2127         1.45145 
        6.37747         15.1194         1.44273 
