# k  (h/Mpc)    Pcb(k)  (Mpc/h)^3    Pcb_linear(k) (Mpc/h)^3   ShotnoiseSubtracted = true
      0.0200456         3654.81         3721.49 
      0.0350414         2994.76         3051.18 
      0.0492313         2392.72         2402.22 
      0.0637834          2095.9         2075.36 
      0.0800726         1707.06         1695.01 
       0.096163         1265.93         1288.16 
       0.111083         1039.56         1069.67 
       0.126058         960.317          959.96 
       0.142273         826.831         816.843 
       0.158546         683.743         663.387 
        0.17375         573.727         576.532 
       0.188953         542.543         525.904 
       0.204907         505.567         464.814 
       0.220756         428.094          399.48 
        0.23588         380.452         355.613 
         0.2514          340.82         326.187 
       0.267535         319.972         294.925 
       0.283568         291.003         262.337 
       0.299022         268.733         237.565 
       0.314451         245.633         219.203 
       0.330372         229.147         201.448 
       0.346141          208.59         183.761 
       0.361624         197.232           168.8 
       0.377134         187.387         156.666 
       0.392932          169.66         145.507 
       0.408854         163.979         134.667 
       0.424564          157.49         125.005 
       0.440253         146.728         116.716 
       0.455999           139.5         109.238 
       0.471626         129.311          102.25 
        0.48727         126.209          95.816 
       0.502856         119.984         90.0743 
       0.518488          116.01         84.8496 
       0.534347         111.547         79.9255 
       0.550082          103.58         75.3902 
       0.565732         98.9035         71.2617 
       0.581496         95.8288         67.4439 
       0.597222         93.1014         63.9088 
       0.612804         88.1282         60.6464 
       0.628434         86.1743          57.608 
       0.644267         83.9829         54.7569 
       0.660051         80.9649          52.112 
       0.675724          77.755         49.6597 
       0.691403         75.5101         47.3659 
       0.707174         73.6775         45.2063 
       0.722871         71.0349         43.1921 
        0.73838         69.4349         41.3243 
       0.754018          66.501         39.5545 
       0.769845         65.0853         37.8706 
        0.78569         63.3268         36.2848 
       0.801365         61.3811          34.807 
       0.817031         60.0315         33.4141 
       0.832809         59.1681           32.09 
       0.848511         56.0068          30.845 
       0.864097         54.9535          29.676 
       0.879701          54.429         28.5676 
       0.895507         53.4964         27.5038 
       0.911279         52.1197         26.4975 
        0.92691         50.6482         25.5508 
       0.942635         49.2106         24.6461 
       0.958396         48.7056         23.7841 
       0.974128         47.4017         22.9656 
       0.989692         46.8166         22.1946 
        1.00528         45.8992         21.4584 
        1.02113         44.3794         20.7447 
        1.03692         43.7504         20.0668 
        1.05264         42.8112         19.4228 
        1.06832         42.2467         18.8086 
        1.08405         41.3986         18.2198 
        1.09979         40.5408         17.6564 
        1.11537         39.5727         17.1228 
        1.13105         39.3481         16.6084 
        1.14679          38.837         16.1136 
        1.16256         37.7306         15.6384 
        1.17828         37.4417         15.1842 
        1.19395         36.4408         14.7499 
         1.2097         36.2891         14.3307 
        1.22537         35.4444         13.9301 
          1.241         35.0301         13.5463 
        1.25666         34.0897         13.1763 
        1.27241         33.8237         12.8186 
        1.28819         33.0287         12.4738 
        1.30392         32.8127         12.1429 
        1.31957         32.4708         11.8257 
        1.33529         32.1254         11.5189 
        1.35108         31.3891         11.2219 
        1.36674         30.8896         10.9377 
         1.3824         30.3628         10.6638 
        1.39811         30.0687         10.3985 
        1.41389         29.7668         10.1414 
        1.42964         29.4599         9.89352 
        1.44531         29.1345          9.6553 
        1.46101         28.3921         9.42456 
        1.47667         28.0927         9.20217 
        1.49229         27.8599         8.98768 
        1.50793          27.433         8.77989 
        1.52367         27.2292         8.57745 
        1.53953         26.8223         8.38013 
        1.55526         26.4056          8.1907 
        1.57092         26.1551         8.00801 
        1.58662         25.8003         7.83054 
        1.60235         25.4582          7.6582 
        1.61809          25.188         7.49105 
        1.63369         24.8752         7.33045 
        1.64941         24.4766         7.17348 
        1.66519         24.3267         7.02062 
        1.68085         24.0114         6.87338 
        1.69652          23.648         6.73038 
        1.71228          23.422          6.5907 
        1.72806         23.2863         6.45494 
        1.74368         22.9796         6.32443 
        1.75933         22.6284         6.19732 
        1.77505         22.3859         6.07317 
        1.79081         22.1136         5.95225 
         1.8065         21.9913         5.83519 
        1.82218          21.608         5.72144 
        1.83797         21.4972         5.60998 
        1.85367         21.1908         5.50216 
        1.86928         21.0997         5.39786 
        1.88497          20.747         5.29574 
        1.90073         20.6513         5.19592 
        1.91647         20.4471         5.09881 
        1.93218         20.2964         5.00442 
        1.94787         20.0129         4.91259 
        1.96363         19.8818         4.82275 
        1.97935          19.612         4.73536 
        1.99499         19.3834         4.65067 
        2.01064         19.1316         4.56797 
         2.0264         18.9627         4.48678 
        2.04216         18.8132         4.40763 
        2.05781         18.5127         4.33093 
        2.07353         18.4072          4.2558 
        2.08928         18.2256         4.18232 
        2.10499         18.0858         4.11079 
        2.12065         17.8506         4.04118 
        2.13633         17.7721         3.97315 
        2.15211         17.5829         3.90626 
        2.16785         17.4881         3.84113 
        2.18349         17.3445         3.77791 
        2.19916         17.0899           3.716 
        2.21489         16.9397         3.65529 
        2.23063         16.7843         3.59592 
         2.2463         16.5888         3.53815 
        2.26194         16.4491         3.48182 
        2.27765         16.3897         3.42644 
        2.29341         16.1802         3.37214 
        2.30914          15.969         3.31915 
        2.32486         15.9361         3.26734 
        2.34061         15.7342         3.21656 
        2.35635         15.6496         3.16693 
        2.37203         15.4813         3.11853 
        2.38768         15.3109         3.07125 
        2.40339         15.1294          3.0248 
        2.41914         14.9869         2.97922 
        2.43483         14.9515         2.93475 
         2.4505         14.8576         2.89127 
        2.46622         14.6655         2.84854 
        2.48195         14.5577         2.80668 
        2.49759         14.4417          2.7659 
        2.51328         14.3023         2.72584 
        2.52906         14.1413         2.68632 
        2.54479         14.0507         2.64775 
        2.56049         13.8889         2.61002 
        2.57618         13.9052         2.57307 
        2.59189         13.6918         2.53678 
        2.60758         13.6106         2.50127 
        2.62325         13.4901         2.46649 
        2.63898         13.3207         2.43225 
        2.65468         13.2196         2.39875 
        2.67044         13.1174         2.36574 
        2.68618         13.0421         2.33344 
        2.70184         12.8988         2.30188 
        2.71755         12.7643         2.27084 
        2.73329         12.7077         2.24032 
        2.74897          12.554         2.21048 
        2.76462           12.51         2.18125 
        2.78034         12.3799         2.15243 
        2.79607         12.2807         2.12412 
        2.81179         12.1787         2.09635 
        2.82749         12.1053         2.06912 
        2.84321         12.0254         2.04234 
        2.85893         11.8985         2.01606 
        2.87462         11.7893         1.99029 
        2.89033         11.6981         1.96495 
        2.90605         11.5821         1.94004 
        2.92176         11.4945         1.91558 
        2.93747         11.3823         1.89155 
        2.95318         11.3672         1.86795 
        2.96891         11.2652         1.84473 
        2.98456         11.1522         1.82202 
        3.00023         11.0666         1.79967 
        3.01596         11.0058         1.77762 
        3.03164         10.8858         1.75602 
        3.04738         10.8359         1.73471 
         3.0631         10.7238         1.71377 
        3.07883         10.6007         1.69318 
        3.09456         10.5736         1.67293 
        3.11026         10.4732         1.65305 
        3.12596         10.4062         1.63351 
        3.14163         10.2874         1.61432 
        3.15734         10.2277         1.59541 
        3.17308         10.1494         1.57675 
        3.18879         10.0556         1.55845 
        3.20447         10.0018         1.54047 
         3.2202         9.90727         1.52272 
         3.2359         9.85781         1.50529 
        3.25157         9.78443         1.48817 
        3.26729         9.70516         1.47128 
        3.28304         9.62178         1.45461 
        3.29877         9.53336         1.43823 
        3.31446          9.4728         1.42214 
        3.33014         9.42598         1.40631 
        3.34585         9.32112         1.39071 
        3.36158          9.2695         1.37532 
        3.37727         9.21005         1.36021 
        3.39294         9.14359         1.34535 
        3.40867         9.05814         1.33066 
        3.42439         9.00005          1.3162 
        3.44008         8.94635         1.30198 
        3.45578         8.86813         1.28797 
        3.47153         8.79473         1.27413 
        3.48724         8.74724         1.26053 
        3.50292         8.66886         1.24716 
        3.51859         8.59863         1.23399 
        3.53431         8.53794         1.22097 
        3.55007         8.46464         1.20812 
        3.56577          8.4654          1.1955 
        3.58146          8.3673         1.18306 
        3.59719         8.31886         1.17078 
        3.61292         8.23402         1.15868 
        3.62859         8.17141          1.1468 
        3.64429         8.12269         1.13506 
        3.66003         8.06571         1.12346 
        3.67578         8.00462         1.11202 
        3.69146          7.9253         1.10079 
        3.70712          7.8867         1.08973 
        3.72284         7.83901         1.07879 
        3.73853          7.7943         1.06802 
        3.75422         7.70601          1.0574 
        3.76993         7.67687         1.04691 
        3.78564         7.61856         1.03657 
        3.80137         7.54985         1.02635 
        3.81707         7.50782          1.0163 
        3.83279         7.46165         1.00637 
        3.84853         7.38382        0.996561 
        3.86424         7.33913        0.986905 
        3.87992         7.28882        0.977392 
        3.89561         7.24592        0.968006 
        3.91134         7.20117        0.958725 
        3.92704         7.13334        0.949579 
        3.94273         7.08695        0.940562 
        3.95845         7.06872        0.931647 
        3.97418         7.00062        0.922848 
        3.98988         6.95223        0.914175 
        4.00554         6.90578        0.905639 
        4.02125         6.85118        0.897189 
        4.03698         6.76571        0.888835 
        4.05268         6.74313        0.880608 
        4.06839         6.71408         0.87248 
         4.0841         6.63683        0.864459 
        4.09983         6.59697        0.856528 
        4.11555         6.55327        0.848702 
        4.13124         6.49894        0.840996 
        4.14693         6.43865         0.83338 
        4.16266         6.41766        0.825842 
        4.17839         6.36179        0.818403 
        4.19408         6.32308        0.811074 
        4.20977         6.27259        0.803832 
        4.22551          6.2373        0.796663 
        4.24123         6.17822        0.789589 
        4.25691         6.14011        0.782622 
        4.27259         6.10062        0.775738 
        4.28831         6.04825        0.768924 
        4.30404         6.00689        0.762186 
        4.31974         5.97224        0.755544 
        4.33543         5.91462        0.748987 
        4.35116         5.87328        0.742492 
        4.36688         5.83586        0.736078 
        4.38255         5.80665        0.729765 
        4.39825         5.76826        0.723513 
        4.41398         5.74052        0.717323 
         4.4297         5.68721        0.711212 
        4.44541         5.64775        0.705175 
        4.46111          5.6035        0.699213 
        4.47683         5.56587        0.693317 
        4.49251          5.5402        0.687502 
        4.50819         5.47648        0.681755 
         4.5239         5.48129        0.676067 
        4.53962         5.43045        0.670438 
        4.55535         5.38607         0.66487 
        4.57106         5.34299        0.659375 
        4.58678         5.30587        0.653942 
         4.6025         5.27087        0.648569 
        4.61821         5.24556        0.643258 
        4.63391         5.21565        0.638014 
         4.6496         5.17058        0.632832 
        4.66532         5.12256          0.6277 
        4.68103         5.10135        0.622627 
        4.69673         5.05763        0.617617 
        4.71241         5.02375        0.612667 
        4.72811         4.99882        0.607764 
        4.74384         4.97061        0.602909 
        4.75955          4.9343        0.598115 
        4.77525          4.9015        0.593376 
        4.79096         4.85401        0.588684 
        4.80669         4.82958        0.584041 
         4.8224         4.80349        0.579454 
        4.83809         4.77406        0.574921 
        4.85379         4.73272        0.570435 
         4.8695          4.7013        0.565994 
        4.88521         4.67933        0.561602 
        4.90093         4.64557        0.557257 
        4.91663         4.61601        0.552963 
        4.93234         4.58967        0.548709 
        4.94807         4.55723        0.544498 
        4.96377         4.53131         0.54034 
        4.97943         4.50014        0.536235 
        4.99514         4.46818        0.532162 
        5.01086         4.43496        0.528128 
        5.02654         4.40703        0.524148 
        5.04227         4.38473        0.520197 
          5.058         4.36088        0.516286 
        5.07371         4.33076        0.512423 
        5.08942         4.30048        0.508599 
        5.10513         4.26831        0.504815 
        5.12084          4.2482        0.501067 
        5.13656         4.22889        0.497359 
        5.15225         4.19722        0.493695 
        5.16796         4.16039        0.490063 
        5.18369         4.14313        0.486465 
         5.1994         4.11873        0.482909 
        5.21509         4.08501        0.479393 
        5.23079         4.05972        0.475908 
        5.24649         4.04079        0.472461 
        5.26217         4.01525         0.46905 
        5.27788          3.9827        0.465669 
        5.29359          3.9639        0.462321 
        5.30933         3.93998        0.459002 
        5.32504         3.90532        0.455721 
        5.34073         3.89827        0.452476 
        5.35646         3.86377        0.449257 
        5.37218         3.84986        0.446069 
        5.38789         3.82177        0.442917 
        5.40357          3.7944          0.4398 
        5.41929         3.77364        0.436706 
        5.43502         3.74711        0.433642 
         5.4507         3.72425        0.430615 
        5.46639         3.70039        0.427617 
        5.48212          3.6861        0.424641 
        5.49786         3.66495         0.42169 
        5.51353         3.63266        0.418781 
        5.52921         3.61388        0.415898 
        5.54495         3.59946        0.413034 
        5.56066         3.56773          0.4102 
        5.57637         3.54412        0.407394 
        5.59207         3.52524        0.404616 
        5.60778         3.50355        0.401864 
        5.62346         3.48019        0.399141 
        5.63916         3.46122        0.396442 
        5.65487         3.44354        0.393766 
         5.6706         3.42623        0.391112 
        5.68633         3.40287        0.388482 
        5.70203         3.38239        0.385882 
        5.71773         3.36524        0.383306 
        5.73344         3.33979        0.380753 
        5.74916         3.32581        0.378221 
        5.76486         3.30392        0.375716 
        5.78054         3.28975        0.373237 
        5.79626         3.27046        0.370774 
          5.812         3.24343        0.368332 
         5.8277         3.22914        0.365918 
        5.84339         3.20986        0.363527 
        5.85911         3.19382        0.361153 
        5.87484          3.1722          0.3588 
        5.89053         3.15524        0.356474 
        5.90623         3.14264        0.354167 
        5.92195         3.12382        0.351877 
        5.93767         3.10035        0.349608 
        5.95336         3.08291        0.347364 
        5.96905         3.06158         0.34514 
        5.98476          3.0439        0.342933 
        6.00048         3.03274        0.340745 
        6.01617         3.01101        0.338579 
        6.03185         2.99248        0.336435 
        6.04756         2.97709        0.334304 
        6.06331         2.95972        0.332188 
        6.07903         2.94771        0.330094 
        6.09473         2.92498        0.328021 
        6.11044         2.91082        0.325964 
        6.12616         2.89183        0.323925 
        6.14186         2.87937        0.321906 
        6.15755         2.86028        0.319904 
        6.17326         2.84804        0.317918 
        6.18898         2.83428        0.315948 
        6.20467         2.81538        0.313998 
        6.22036         2.80323        0.312066 
         6.2361         2.78034        0.310144 
         6.2518         2.77078        0.308242 
        6.26748         2.75699        0.306361 
        6.28319         2.73631         0.30449 
        6.29893         2.72383        0.302633 
        6.31463         2.70972        0.300795 
        6.33033         2.69582        0.298974 
        6.34604         2.68075        0.297166 
        6.36177         2.66504        0.295371 
        6.37747         2.64723        0.293595 
