# k  (h/Mpc)    Pcb(k)  (Mpc/h)^3    Pcb_linear(k) (Mpc/h)^3   ShotnoiseSubtracted = true
      0.0200456         5442.81         5549.01 
      0.0350414          4442.2         4549.52 
      0.0492313         3555.32         3581.88 
      0.0637834         3125.41         3094.51 
      0.0800726         2542.81         2527.38 
       0.096163         1874.61         1920.74 
       0.111083         1537.61         1594.96 
       0.126058         1427.77         1431.37 
       0.142273         1231.39         1217.97 
       0.158546         1028.64         989.157 
        0.17375         856.527         859.649 
       0.188953         818.038          784.16 
       0.204907         767.226         693.071 
       0.220756         652.265         595.653 
        0.23588         579.546         530.244 
         0.2514         516.216         486.368 
       0.267535         492.191         439.754 
       0.283568         449.084         391.162 
       0.299022         416.809         354.226 
       0.314451         385.811         326.847 
       0.330372         359.082         300.373 
       0.346141         326.696             274 
       0.361624         311.352         251.692 
       0.377134         295.141           233.6 
       0.392932         272.384         216.962 
       0.408854         262.761         200.797 
       0.424564          253.06         186.391 
       0.440253         238.711         174.032 
       0.455999         226.593         162.882 
       0.471626          209.19         152.462 
        0.48727          205.52         142.869 
       0.502856         197.046         134.307 
       0.518488         192.417         126.517 
       0.534347         183.864         119.175 
       0.550082         171.727         112.412 
       0.565732          166.64         106.256 
       0.581496         159.889         100.564 
       0.597222         155.417         95.2925 
       0.612804         148.276         90.4281 
       0.628434         145.652         85.8975 
       0.644267         141.139         81.6464 
       0.660051         137.896         77.7027 
       0.675724         134.115         74.0462 
       0.691403         130.272         70.6259 
       0.707174         125.777         67.4058 
       0.722871          123.23         64.4026 
        0.73838         121.106         61.6175 
       0.754018         115.821         58.9786 
       0.769845         113.776         56.4678 
        0.78569         111.033         54.1032 
       0.801365         108.009         51.8997 
       0.817031         104.758         49.8228 
       0.832809         103.626         47.8485 
       0.848511          99.617         45.9921 
       0.864097         96.9433          44.249 
       0.879701         96.6224         42.5964 
       0.895507         94.3675         41.0102 
       0.911279         93.2651         39.5096 
        0.92691         90.2296         38.0981 
       0.942635         88.2417         36.7491 
       0.958396         87.7324         35.4637 
       0.974128         85.6811         34.2434 
       0.989692         83.7336         33.0937 
        1.00528         82.4462         31.9961 
        1.02113         80.3111         30.9319 
        1.03692         78.9975          29.921 
        1.05264         77.8676         28.9607 
        1.06832         76.7152         28.0449 
        1.08405         75.6603          27.167 
        1.09979         74.4062         26.3269 
        1.11537         71.9294         25.5313 
        1.13105         72.2264         24.7644 
        1.14679         71.1289         24.0266 
        1.16256         69.6277         23.3179 
        1.17828         68.1226         22.6407 
        1.19395         67.5281         21.9932 
         1.2097         66.2989         21.3681 
        1.22537         65.7454         20.7708 
          1.241         64.4851         20.1986 
        1.25666         63.1502         19.6468 
        1.27241         62.9156         19.1134 
        1.28819         61.2686         18.5993 
        1.30392         60.3991          18.106 
        1.31957         60.1478          17.633 
        1.33529         59.5557         17.1755 
        1.35108         58.6195         16.7327 
        1.36674           57.63         16.3089 
         1.3824         56.4767         15.9005 
        1.39811          56.258         15.5049 
        1.41389         55.3042         15.1215 
        1.42964         54.6165         14.7519 
        1.44531         54.1062         14.3967 
        1.46101         52.7009         14.0527 
        1.47667          52.767         13.7211 
        1.49229         52.3532         13.4013 
        1.50793          51.205         13.0914 
        1.52367         50.7977         12.7896 
        1.53953         50.1598         12.4954 
        1.55526         49.4234         12.2129 
        1.57092         49.0512         11.9405 
        1.58662         48.3482         11.6759 
        1.60235         47.8529         11.4189 
        1.61809         47.1053         11.1697 
        1.63369         46.4294         10.9302 
        1.64941         45.7959         10.6962 
        1.66519         45.4251         10.4682 
        1.68085         44.9209         10.2487 
        1.69652         44.4997         10.0355 
        1.71228         44.1696          9.8272 
        1.72806         43.4207         9.62478 
        1.74368          43.025         9.43017 
        1.75933         42.4586         9.24065 
        1.77505          42.137         9.05553 
        1.79081         41.4762         8.87523 
         1.8065         41.1258         8.70069 
        1.82218         40.6516         8.53107 
        1.83797         40.2335         8.36488 
        1.85367         39.7343         8.20411 
        1.86928         39.2226         8.04859 
        1.88497         38.6784         7.89632 
        1.90073         38.7032         7.74749 
        1.91647         38.0634         7.60268 
        1.93218         37.6983         7.46194 
        1.94787         37.3772         7.32503 
        1.96363         37.0638         7.19106 
        1.97935         36.5961         7.06076 
        1.99499         36.1062         6.93449 
        2.01064         35.6986         6.81116 
         2.0264         35.2602          6.6901 
        2.04216          34.991         6.57209 
        2.05781         34.6965         6.45772 
        2.07353         34.2681          6.3457 
        2.08928         34.1526         6.23613 
        2.10499         33.6393         6.12949 
        2.12065         33.2007         6.02569 
        2.13633         32.9075         5.92425 
        2.15211         32.4544         5.82451 
        2.16785         32.2335         5.72739 
        2.18349         32.1362         5.63313 
        2.19916         31.6179         5.54082 
        2.21489         31.3235          5.4503 
        2.23063           31.04         5.36177 
         2.2463         30.8636         5.27564 
        2.26194         30.4245         5.19164 
        2.27765         30.1574         5.10907 
        2.29341         29.7557          5.0281 
        2.30914         29.6244         4.94908 
        2.32486         29.3166         4.87183 
        2.34061         28.9198         4.79612 
        2.35635         28.5958         4.72211 
        2.37203         28.4253         4.64994 
        2.38768         28.1878         4.57946 
        2.40339          27.974          4.5102 
        2.41914         27.6132         4.44223 
        2.43483          27.288         4.37592 
         2.4505         27.0574         4.31109 
        2.46622         26.7475         4.24738 
        2.48195         26.4566         4.18496 
        2.49759         26.2909         4.12415 
        2.51328          26.008         4.06441 
        2.52906           25.78         4.00549 
        2.54479         25.5342         3.94798 
        2.56049         25.1615         3.89172 
        2.57618         25.0687         3.83662 
        2.59189         24.8642         3.78252 
        2.60758         24.6334         3.72957 
        2.62325         24.3995          3.6777 
        2.63898         24.1739         3.62666 
        2.65468         24.0694         3.57671 
        2.67044          23.706         3.52749 
        2.68618         23.5023         3.47933 
        2.70184         23.3082         3.43227 
        2.71755         23.0344         3.38598 
        2.73329         22.8695         3.34048 
        2.74897         22.5921         3.29598 
        2.76462         22.5802          3.2524 
        2.78034         22.3321         3.20943 
        2.79607          22.081         3.16721 
        2.81179         21.8937         3.12581 
        2.82749          21.765          3.0852 
        2.84321         21.5002         3.04528 
        2.85893          21.298         3.00609 
        2.87462         21.0921         2.96766 
        2.89033         20.9224         2.92988 
        2.90605         20.7285         2.89274 
        2.92176         20.5398         2.85626 
        2.93747         20.2934         2.82044 
        2.95318         20.2133         2.78524 
        2.96891          19.948         2.75063 
        2.98456         19.7999         2.71677 
        3.00023         19.7109         2.68343 
        3.01596         19.4618         2.65056 
        3.03164         19.3322         2.61835 
        3.04738         19.0791         2.58658 
         3.0631         18.9969         2.55535 
        3.07883         18.7789         2.52465 
        3.09456         18.6232         2.49446 
        3.11026         18.4272         2.46482 
        3.12596         18.2992         2.43567 
        3.14163          18.162         2.40707 
        3.15734         17.9252         2.37886 
        3.17308         17.8338         2.35105 
        3.18879         17.6625         2.32376 
        3.20447          17.516         2.29695 
         3.2202         17.3745         2.27049 
         3.2359         17.1971         2.24449 
        3.25157         17.0994         2.21897 
        3.26729         16.8813         2.19378 
        3.28304         16.8018         2.16893 
        3.29877         16.5879          2.1445 
        3.31446         16.4795         2.12051 
        3.33014         16.2948         2.09691 
        3.34585         16.1887         2.07364 
        3.36158         16.0462         2.05069 
        3.37727          15.933         2.02817 
        3.39294         15.7979         2.00601 
        3.40867         15.5739          1.9841 
        3.42439         15.5286         1.96254 
        3.44008         15.4203         1.94135 
        3.45578         15.3113         1.92045 
        3.47153         15.1403         1.89983 
        3.48724         15.0354         1.87954 
        3.50292         14.8326          1.8596 
        3.51859         14.7834         1.83997 
        3.53431         14.6493         1.82056 
        3.55007         14.5143         1.80139 
        3.56577          14.411         1.78257 
        3.58146         14.2755         1.76403 
        3.59719         14.1076         1.74572 
        3.61292         14.0373         1.72768 
        3.62859         13.8775         1.70996 
        3.64429         13.7783         1.69246 
        3.66003         13.6783         1.67516 
        3.67578         13.5386          1.6581 
        3.69146         13.4268         1.64135 
        3.70712          13.307         1.62487 
        3.72284         13.2422         1.60856 
        3.73853         13.1249          1.5925 
        3.75422         13.0046         1.57665 
        3.76993         12.8791         1.56101 
        3.78564         12.7574         1.54559 
        3.80137         12.6769         1.53036 
        3.81707         12.5827         1.51537 
        3.83279         12.4646         1.50057 
        3.84853         12.3695         1.48594 
        3.86424         12.2779         1.47155 
        3.87992         12.1679         1.45736 
        3.89561         12.0898         1.44337 
        3.91134         12.0012         1.42953 
        3.92704         11.8813         1.41589 
        3.94273         11.7886         1.40244 
        3.95845         11.6962         1.38915 
        3.97418         11.6012         1.37603 
        3.98988         11.5163          1.3631 
        4.00554         11.3851         1.35037 
        4.02125         11.3023         1.33777 
        4.03698         11.2359         1.32532 
        4.05268         11.1295         1.31305 
        4.06839         11.0343         1.30093 
         4.0841         10.9711         1.28897 
        4.09983         10.8588         1.27714 
        4.11555            10.8         1.26547 
        4.13124         10.6905         1.25398 
        4.14693         10.6055         1.24263 
        4.16266         10.5427         1.23139 
        4.17839         10.4533          1.2203 
        4.19408         10.3579         1.20937 
        4.20977         10.2754         1.19857 
        4.22551          10.207         1.18788 
        4.24123         10.1305         1.17733 
        4.25691         10.0665         1.16695 
        4.27259         9.96278         1.15668 
        4.28831         9.89733         1.14652 
        4.30404         9.78879         1.13647 
        4.31974         9.70697         1.12657 
        4.33543         9.60832         1.11679 
        4.35116         9.57982         1.10711 
        4.36688         9.52911         1.09755 
        4.38255          9.4179         1.08813 
        4.39825         9.35456         1.07881 
        4.41398         9.27054         1.06958 
         4.4297         9.21037         1.06047 
        4.44541         9.13817         1.05147 
        4.46111         9.08506         1.04258 
        4.47683         8.98177         1.03378 
        4.49251         8.94425         1.02511 
        4.50819         8.86596         1.01655 
         4.5239         8.81179         1.00806 
        4.53962         8.71885         0.99967 
        4.55535         8.65769        0.991369 
        4.57106         8.59319        0.983175 
        4.58678         8.52781        0.975073 
         4.6025         8.46265        0.967062 
        4.61821         8.38897        0.959143 
        4.63391         8.32595        0.951325 
         4.6496         8.27966        0.943597 
        4.66532         8.21621        0.935945 
        4.68103         8.14631        0.928382 
        4.69673         8.09311         0.92091 
        4.71241         8.03119         0.91353 
        4.72811         7.94139        0.906219 
        4.74384         7.92092         0.89898 
        4.75955         7.83877        0.891832 
        4.77525         7.80178        0.884766 
        4.79096          7.7387         0.87777 
        4.80669         7.67642        0.870846 
         4.8224         7.62774        0.864007 
        4.83809         7.54581        0.857248 
        4.85379         7.50385        0.850559 
         4.8695         7.44509        0.843937 
        4.88521         7.38612        0.837389 
        4.90093         7.34655         0.83091 
        4.91663         7.28017        0.824506 
        4.93234         7.22684        0.818164 
        4.94807         7.18086        0.811886 
        4.96377         7.13689        0.805685 
        4.97943         7.07762        0.799564 
        4.99514         7.02527        0.793491 
        5.01086         6.95324        0.787477 
        5.02654         6.93214        0.781542 
        5.04227         6.86447        0.775651 
          5.058         6.81924        0.769819 
        5.07371         6.76855        0.764059 
        5.08942         6.71856        0.758357 
        5.10513         6.67644        0.752715 
        5.12084         6.63343        0.747127 
        5.13656         6.58955        0.741598 
        5.15225         6.54416        0.736135 
        5.16796         6.48298        0.730719 
        5.18369          6.4382        0.725353 
         5.1994         6.40217        0.720052 
        5.21509         6.36896        0.714809 
        5.23079         6.30831        0.709612 
        5.24649         6.26285        0.704472 
        5.26217         6.21536        0.699387 
        5.27788         6.17826        0.694346 
        5.29359          6.1383        0.689354 
        5.30933         6.10244        0.684405 
        5.32504         6.04636        0.679513 
        5.34073         6.01461        0.674674 
        5.35646         5.96208        0.669874 
        5.37218         5.92219        0.665121 
        5.38789         5.89372        0.660421 
        5.40357         5.83496        0.655773 
        5.41929         5.81615         0.65116 
        5.43502         5.75847        0.646591 
         5.4507         5.71826        0.642078 
        5.46639         5.67953        0.637607 
        5.48212         5.65186        0.633169 
        5.49786         5.60708        0.628769 
        5.51353         5.56733        0.624433 
        5.52921         5.53035        0.620134 
        5.54495         5.48538        0.615863 
        5.56066         5.44647        0.611637 
        5.57637          5.4159        0.607453 
        5.59207         5.38201        0.603311 
        5.60778         5.35107        0.599207 
        5.62346         5.31262        0.595148 
        5.63916         5.27499        0.591123 
        5.65487         5.23254        0.587133 
         5.6706         5.19265        0.583176 
        5.68633         5.17463        0.579254 
        5.70203         5.13765        0.575377 
        5.71773         5.10331        0.571537 
        5.73344         5.07904         0.56773 
        5.74916          5.0305        0.563954 
        5.76486         5.00241        0.560219 
        5.78054          4.9667        0.556523 
        5.79626         4.94305        0.552851 
          5.812          4.9071        0.549209 
         5.8277         4.87864         0.54561 
        5.84339         4.84298        0.542045 
        5.85911         4.81336        0.538504 
        5.87484         4.77659        0.534997 
        5.89053         4.75774        0.531527 
        5.90623         4.71427        0.528088 
        5.92195         4.68512        0.524673 
        5.93767         4.65777        0.521291 
        5.95336         4.63176        0.517944 
        5.96905         4.60234        0.514629 
        5.98476         4.56124        0.511338 
        6.00048         4.53483        0.508075 
        6.01617         4.51625        0.504845 
        6.03185         4.48854        0.501648 
        6.04756          4.4599        0.498471 
        6.06331         4.43267        0.495315 
        6.07903         4.40449        0.492194 
        6.09473          4.3773        0.489102 
        6.11044         4.34158        0.486035 
        6.12616         4.31867        0.482995 
        6.14186         4.28692        0.479984 
        6.15755         4.26729        0.476999 
        6.17326         4.23973        0.474038 
        6.18898          4.2145        0.471101 
        6.20467         4.18686        0.468194 
        6.22036         4.15758        0.465312 
         6.2361         4.13725        0.462447 
         6.2518         4.11483        0.459611 
        6.26748          4.0886        0.456806 
        6.28319          4.0582        0.454016 
        6.29893         4.03736        0.451248 
        6.31463           4.003        0.448507 
        6.33033         3.97966        0.445791 
        6.34604         3.95824        0.443095 
        6.36177         3.92859        0.440419 
        6.37747         3.91722        0.437771 
