# k  (h/Mpc)    Pcb(k)  (Mpc/h)^3    Pcb_linear(k) (Mpc/h)^3   ShotnoiseSubtracted = true
      0.0200456         13544.7         13878.8 
      0.0350414         10905.1         11378.9 
      0.0492313         8756.73         8958.74 
      0.0637834         7779.04         7739.77 
      0.0800726         6298.72         6321.31 
       0.096163         4569.02         4804.02 
       0.111083         3754.16          3989.2 
       0.126058         3509.03         3580.04 
       0.142273         3032.98          3046.3 
       0.158546         2648.28         2474.01 
        0.17375         2166.28         2150.09 
       0.188953            2116         1961.28 
       0.204907         2000.74         1733.46 
       0.220756         1739.23         1489.81 
        0.23588         1549.13         1326.21 
         0.2514         1362.89         1216.47 
       0.267535          1359.7         1099.88 
       0.283568         1240.98         978.347 
       0.299022         1168.73         885.965 
       0.314451         1118.13         817.487 
       0.330372         1034.84         751.272 
       0.346141         973.583          685.31 
       0.361624         934.346         629.514 
       0.377134         873.354         584.262 
       0.392932         846.849         542.649 
       0.408854         820.716          502.22 
       0.424564         774.364         466.187 
       0.440253         758.403         435.275 
       0.455999         724.506         407.387 
       0.471626         686.447         381.328 
        0.48727         669.921         357.332 
       0.502856         652.008         335.919 
       0.518488         644.747         316.435 
       0.534347         604.624         298.071 
       0.550082         582.351         281.157 
       0.565732         584.878          265.76 
       0.581496         552.933         251.522 
       0.597222         545.065         238.339 
       0.612804         529.021         226.172 
       0.628434         512.676         214.841 
       0.644267         499.043         204.208 
       0.660051         485.127         194.344 
       0.675724         482.735         185.199 
       0.691403         468.097         176.644 
       0.707174         452.372          168.59 
       0.722871         447.451         161.079 
        0.73838          441.65         154.113 
       0.754018         427.695         147.513 
       0.769845         416.341         141.233 
        0.78569          414.56         135.319 
       0.801365         402.237         129.808 
       0.817031         392.133         124.613 
       0.832809         387.422         119.675 
       0.848511         377.742         115.032 
       0.864097         371.492         110.672 
       0.879701         365.909         106.539 
       0.895507         359.245         102.572 
       0.911279          348.66         98.8186 
        0.92691         344.676         95.2882 
       0.942635         339.716         91.9141 
       0.958396         333.089         88.6993 
       0.974128         326.859         85.6471 
       0.989692         321.418         82.7715 
        1.00528         316.835         80.0262 
        1.02113         313.959         77.3646 
        1.03692         306.165         74.8362 
        1.05264          300.92         72.4345 
        1.06832         295.503          70.144 
        1.08405         289.758         67.9482 
        1.09979         286.779         65.8469 
        1.11537         279.968         63.8569 
        1.13105         275.375         61.9388 
        1.14679         274.829         60.0935 
        1.16256         268.336         58.3211 
        1.17828         262.957         56.6273 
        1.19395         260.589         55.0078 
         1.2097         257.586         53.4444 
        1.22537         251.289         51.9505 
          1.241         250.428         50.5192 
        1.25666         244.023         49.1392 
        1.27241         241.208         47.8052 
        1.28819         237.792         46.5193 
        1.30392         234.834         45.2853 
        1.31957         233.476         44.1023 
        1.33529         228.576         42.9581 
        1.35108         224.289         41.8505 
        1.36674         222.949         40.7907 
         1.3824         218.421         39.7691 
        1.39811         218.808         38.7797 
        1.41389         213.203         37.8208 
        1.42964         209.603         36.8965 
        1.44531         206.928         36.0081 
        1.46101         206.194         35.1476 
        1.47667         200.368         34.3182 
        1.49229         197.868         33.5183 
        1.50793         196.322         32.7434 
        1.52367         193.795         31.9884 
        1.53953         189.992         31.2525 
        1.55526         187.174         30.5461 
        1.57092         185.591         29.8647 
        1.58662         182.158         29.2029 
        1.60235         180.579         28.5602 
        1.61809         178.391         27.9368 
        1.63369         175.597         27.3379 
        1.64941         172.701         26.7525 
        1.66519         170.732         26.1824 
        1.68085         169.917         25.6333 
        1.69652         165.392            25.1 
        1.71228         164.332         24.5791 
        1.72806         161.775         24.0728 
        1.74368         160.139         23.5861 
        1.75933          158.07          23.112 
        1.77505         155.289          22.649 
        1.79081         154.409         22.1981 
         1.8065         152.132         21.7615 
        1.82218         149.696         21.3373 
        1.83797         148.101         20.9216 
        1.85367         145.865         20.5195 
        1.86928           144.7         20.1306 
        1.88497         141.668         19.7497 
        1.90073         140.669         19.3775 
        1.91647          138.43         19.0153 
        1.93218         136.987         18.6633 
        1.94787         135.123         18.3208 
        1.96363         133.212         17.9858 
        1.97935          130.83         17.6599 
        1.99499         129.714          17.344 
        2.01064         127.892         17.0356 
         2.0264         126.607         16.7328 
        2.04216         124.958         16.4376 
        2.05781         123.892         16.1516 
        2.07353         121.628         15.8714 
        2.08928         119.886         15.5974 
        2.10499         118.237         15.3306 
        2.12065         117.389          15.071 
        2.13633         116.193         14.8173 
        2.15211         114.328         14.5679 
        2.16785         112.376         14.3249 
        2.18349         111.239         14.0892 
        2.19916         110.448         13.8583 
        2.21489         109.079         13.6319 
        2.23063         107.311         13.4105 
         2.2463         106.756          13.195 
        2.26194         105.425          12.985 
        2.27765          103.75         12.7784 
        2.29341         102.555         12.5759 
        2.30914         100.724         12.3783 
        2.32486         100.365         12.1851 
        2.34061         98.9946         11.9957 
        2.35635         97.7387         11.8106 
        2.37203         95.9093         11.6301 
        2.38768         95.3246         11.4538 
        2.40339         94.2933         11.2806 
        2.41914         92.7102         11.1106 
        2.43483         92.2624         10.9447 
         2.4505          90.952         10.7826 
        2.46622         89.8141         10.6232 
        2.48195         88.7053         10.4671 
        2.49759         87.8896          10.315 
        2.51328         86.8604         10.1656 
        2.52906         85.7058         10.0183 
        2.54479         84.7963          9.8744 
        2.56049         83.6482         9.73369 
        2.57618         82.9869         9.59589 
        2.59189         81.9146         9.46058 
        2.60758         80.8783         9.32813 
        2.62325         80.4753         9.19841 
        2.63898         78.9175         9.07074 
        2.65468         78.1908          8.9458 
        2.67044         77.3275         8.82271 
        2.68618         76.8103         8.70225 
        2.70184         76.1107         8.58455 
        2.71755         75.3252         8.46876 
        2.73329          74.119         8.35497 
        2.74897         72.9752         8.24366 
        2.76462         72.5332         8.13466 
        2.78034         71.4044          8.0272 
        2.79607         70.8259          7.9216 
        2.81179         69.9662         7.81804 
        2.82749         69.3646         7.71648 
        2.84321         68.7132         7.61664 
        2.85893         67.6547         7.51861 
        2.87462         66.8667          7.4225 
        2.89033         66.4915         7.32801 
        2.90605         65.2537          7.2351 
        2.92176         65.0051         7.14387 
        2.93747         64.1627         7.05429 
        2.95318         63.5041         6.96624 
        2.96891         62.7586         6.87967 
        2.98456         62.2085         6.79498 
        3.00023         61.5565         6.71161 
        3.01596          60.907          6.6294 
        3.03164         60.1617         6.54882 
        3.04738         59.4904         6.46936 
         3.0631         58.8999         6.39126 
        3.07883         58.2899         6.31447 
        3.09456         58.0098         6.23897 
        3.11026         57.0774         6.16484 
        3.12596         56.3859         6.09193 
        3.14163         55.7814         6.02039 
        3.15734         55.2854         5.94984 
        3.17308         54.7699         5.88027 
        3.18879         54.3481         5.81202 
        3.20447         53.7673         5.74497 
         3.2202         53.2003         5.67878 
         3.2359         52.5377         5.61376 
        3.25157         52.0003         5.54993 
        3.26729         51.6028         5.48691 
        3.28304         50.9416         5.42476 
        3.29877         50.5101         5.36367 
        3.31446         50.1013         5.30367 
        3.33014         49.6937         5.24464 
        3.34585         49.0471         5.18644 
        3.36158         48.5112         5.12904 
        3.37727         48.0483         5.07271 
        3.39294         47.5035         5.01728 
        3.40867         47.0312          4.9625 
        3.42439         46.6607         4.90857 
        3.44008          46.301         4.85556 
        3.45578         45.5569          4.8033 
        3.47153         45.1553         4.75171 
        3.48724          44.787         4.70097 
        3.50292         44.4686          4.6511 
        3.51859         43.7902         4.60199 
        3.53431         43.4435         4.55345 
        3.55007         43.0809          4.5055 
        3.56577         42.5826         4.45843 
        3.58146         42.1737         4.41207 
        3.59719         41.8517         4.36627 
        3.61292         41.3982         4.32114 
        3.62859         41.1163         4.27683 
        3.64429         40.7585         4.23306 
        3.66003         40.3345         4.18978 
        3.67578         39.9657         4.14713 
        3.69146         39.5831         4.10524 
        3.70712         39.1704         4.06401 
        3.72284         38.9766          4.0232 
        3.73853         38.4792         3.98304 
        3.75422         37.9906         3.94341 
        3.76993         37.8194         3.90429 
        3.78564         37.3618         3.86573 
        3.80137         37.0735         3.82763 
        3.81707         36.6936         3.79013 
        3.83279         36.3285         3.75311 
        3.84853         35.9851         3.71654 
        3.86424         35.7374         3.68052 
        3.87992         35.3324         3.64505 
        3.89561         35.1074         3.61004 
        3.91134          34.727         3.57543 
        3.92704         34.4028         3.54132 
        3.94273         34.0677         3.50769 
        3.95845         33.7916         3.47445 
        3.97418         33.6384         3.44163 
        3.98988         33.2253         3.40929 
        4.00554         32.8472         3.37745 
        4.02125          32.528         3.34594 
        4.03698         32.3435         3.31479 
        4.05268         32.1274          3.2841 
        4.06839         31.7748         3.25379 
         4.0841         31.4883         3.22388 
        4.09983          31.278          3.1943 
        4.11555         30.9983         3.16511 
        4.13124         30.6539         3.13637 
        4.14693         30.3058         3.10797 
        4.16266         30.1161         3.07986 
        4.17839          29.859         3.05212 
        4.19408         29.5679         3.02479 
        4.20977         29.4199         2.99778 
        4.22551         29.1419         2.97104 
        4.24123         28.8408         2.94466 
        4.25691         28.5641         2.91868 
        4.27259         28.2573         2.89301 
        4.28831         28.0808         2.86759 
        4.30404         27.8559         2.84246 
        4.31974         27.5791          2.8177 
        4.33543         27.3309         2.79324 
        4.35116         27.1464         2.76902 
        4.36688         26.8929          2.7451 
        4.38255          26.669         2.72156 
        4.39825         26.4764         2.69824 
        4.41398         26.2349         2.67515 
         4.4297         26.0344         2.65237 
        4.44541         25.8142         2.62985 
        4.46111          25.508         2.60762 
        4.47683         25.3874         2.58563 
        4.49251         25.1526         2.56394 
        4.50819         24.9785         2.54251 
         4.5239         24.7934          2.5213 
        4.53962         24.5907          2.5003 
        4.55535          24.362         2.47954 
        4.57106         24.1648         2.45905 
        4.58678          23.908         2.43878 
         4.6025         23.7607         2.41875 
        4.61821          23.553         2.39894 
        4.63391         23.3999         2.37938 
         4.6496         23.2157         2.36006 
        4.66532         23.0006         2.34092 
        4.68103         22.8239           2.322 
        4.69673         22.6218         2.30331 
        4.71241         22.4372         2.28485 
        4.72811         22.2758         2.26657 
        4.74384         22.1111         2.24846 
        4.75955         21.8524         2.23059 
        4.77525         21.7263         2.21291 
        4.79096         21.5474         2.19541 
        4.80669         21.4503          2.1781 
         4.8224         21.2154         2.16099 
        4.83809         21.0484         2.14409 
        4.85379         20.9083         2.12736 
         4.8695         20.6799         2.11079 
        4.88521         20.5239         2.09442 
        4.90093         20.4235         2.07821 
        4.91663         20.2235          2.0622 
        4.93234         20.0495         2.04633 
        4.94807          19.945         2.03063 
        4.96377         19.7881         2.01512 
        4.97943         19.6403         1.99981 
        4.99514          19.477         1.98462 
        5.01086         19.3278         1.96958 
        5.02654         19.1576         1.95474 
        5.04227         19.0366            1.94 
          5.058          18.884         1.92541 
        5.07371         18.7685         1.91101 
        5.08942         18.6018         1.89675 
        5.10513         18.4316         1.88264 
        5.12084         18.3265         1.86866 
        5.13656         18.1964         1.85483 
        5.15225         18.0042         1.84117 
        5.16796         17.8967         1.82762 
        5.18369         17.7728          1.8142 
         5.1994         17.6743         1.80094 
        5.21509         17.5054         1.78783 
        5.23079         17.3505         1.77483 
        5.24649         17.2576         1.76198 
        5.26217         17.1407         1.74926 
        5.27788         16.9715         1.73665 
        5.29359         16.8851         1.72416 
        5.30933         16.7338         1.71178 
        5.32504         16.6108         1.69955 
        5.34073         16.4891         1.68745 
        5.35646         16.3949         1.67544 
        5.37218         16.2053         1.66355 
        5.38789         16.1481          1.6518 
        5.40357         15.9985         1.64017 
        5.41929         15.8673         1.62863 
        5.43502         15.7847         1.61721 
         5.4507         15.6581         1.60592 
        5.46639         15.5719         1.59474 
        5.48212         15.4508         1.58364 
        5.49786         15.3136         1.57263 
        5.51353         15.2043         1.56179 
        5.52921         15.1079         1.55103 
        5.54495         15.0078         1.54035 
        5.56066         14.8608         1.52978 
        5.57637         14.7947         1.51932 
        5.59207         14.6823         1.50896 
        5.60778          14.574         1.49869 
        5.62346         14.4937         1.48854 
        5.63916         14.3865         1.47847 
        5.65487          14.288         1.46849 
         5.6706         14.1731          1.4586 
        5.68633          14.085         1.44879 
        5.70203         13.9709         1.43909 
        5.71773         13.8771         1.42949 
        5.73344         13.7603         1.41996 
        5.74916         13.6726         1.41052 
        5.76486         13.5784         1.40118 
        5.78054         13.4623         1.39194 
        5.79626         13.3658         1.38275 
          5.812         13.3032         1.37364 
         5.8277         13.1801         1.36464 
        5.84339          13.106         1.35572 
        5.85911         13.0216         1.34687 
        5.87484         12.9435         1.33809 
        5.89053         12.8508         1.32942 
        5.90623         12.7537         1.32082 
        5.92195         12.6617         1.31227 
        5.93767         12.6041         1.30381 
        5.95336         12.4886         1.29544 
        5.96905         12.4174         1.28715 
        5.98476         12.3222         1.27892 
        6.00048         12.2512         1.27076 
        6.01617         12.1147         1.26268 
        6.03185         12.0735         1.25469 
        6.04756         11.9844         1.24674 
        6.06331         11.8988         1.23885 
        6.07903          11.833         1.23104 
        6.09473         11.7689         1.22331 
        6.11044         11.6699         1.21564 
        6.12616         11.5761         1.20803 
        6.14186         11.5068          1.2005 
        6.15755         11.4278         1.19304 
        6.17326         11.3586         1.18563 
        6.18898         11.2907         1.17828 
        6.20467         11.2123         1.17101 
        6.22036         11.1322         1.16381 
         6.2361         11.0451         1.15664 
         6.2518         10.9904         1.14955 
        6.26748          10.917         1.14253 
        6.28319         10.8547         1.13555 
        6.29893         10.7569         1.12863 
        6.31463         10.7009         1.12177 
        6.33033         10.6333         1.11498 
        6.34604         10.5579         1.10824 
        6.36177         10.4935         1.10155 
        6.37747         10.3929         1.09492 
