# k  (h/Mpc)    Pcb(k)  (Mpc/h)^3    Pcb_linear(k) (Mpc/h)^3   ShotnoiseSubtracted = true
      0.0200456         10190.6         10421.1 
      0.0350414         8246.36         8544.02 
      0.0492313         6616.15         6726.79 
      0.0637834         5856.03         5811.51 
      0.0800726         4750.45         4746.44 
       0.096163         3464.44         3607.16 
       0.111083          2841.7         2995.34 
       0.126058         2654.44         2688.12 
       0.142273         2293.29         2287.35 
       0.158546         1967.38         1857.64 
        0.17375         1617.04         1614.43 
       0.188953         1569.51         1472.66 
       0.204907         1482.38         1301.59 
       0.220756         1277.55         1118.64 
        0.23588         1136.09         995.802 
         0.2514         1001.99         913.402 
       0.267535         985.281          825.86 
       0.283568         900.407         734.605 
       0.299022         843.872         665.238 
       0.314451         800.814         613.821 
       0.330372         742.248         564.102 
       0.346141         685.235         514.574 
       0.361624         657.058         472.679 
       0.377134         616.197         438.701 
       0.392932         591.489         407.455 
       0.408854         570.216         377.099 
       0.424564         543.524         350.043 
       0.440253         527.827         326.832 
       0.455999         500.205         305.892 
       0.471626         467.093         286.325 
        0.48727         459.083         268.308 
       0.502856         445.041          252.23 
       0.518488         440.547         237.599 
       0.534347         413.885          223.81 
       0.550082         393.075         211.111 
       0.565732         392.285          199.55 
       0.581496         372.138         188.859 
       0.597222         365.266          178.96 
       0.612804         352.323         169.824 
       0.628434         341.017         161.316 
       0.644267         330.619         153.332 
       0.660051         325.663         145.926 
       0.675724         321.728         139.059 
       0.691403         312.681         132.636 
       0.707174         300.115         126.588 
       0.722871         297.392         120.948 
        0.73838         292.346         115.718 
       0.754018         283.772         110.762 
       0.769845         275.266         106.047 
        0.78569         274.228         101.606 
       0.801365         266.769         97.4679 
       0.817031          259.29         93.5674 
       0.832809         254.765         89.8596 
       0.848511         249.541         86.3734 
       0.864097         246.054         83.0999 
       0.879701         241.081         79.9962 
       0.895507         235.102         77.0173 
       0.911279         230.252         74.1993 
        0.92691         228.314         71.5484 
       0.942635         224.987         69.0149 
       0.958396         223.345         66.6011 
       0.974128         217.131         64.3093 
       0.989692         212.218         62.1501 
        1.00528         208.923         60.0887 
        1.02113         207.987         58.0902 
        1.03692         200.776         56.1917 
        1.05264         197.971         54.3884 
        1.06832         194.661         52.6685 
        1.08405         191.706         51.0198 
        1.09979         190.732          49.442 
        1.11537         184.587         47.9478 
        1.13105         183.881         46.5076 
        1.14679         182.517          45.122 
        1.16256         179.373         43.7912 
        1.17828         175.296         42.5194 
        1.19395         173.767         41.3033 
         1.2097         171.008         40.1295 
        1.22537         168.695         39.0077 
          1.241         166.009          37.933 
        1.25666         163.127         36.8968 
        1.27241         161.159         35.8951 
        1.28819         159.321         34.9296 
        1.30392         157.614         34.0031 
        1.31957         155.015         33.1148 
        1.33529         152.164         32.2556 
        1.35108         150.435          31.424 
        1.36674         149.074         30.6282 
         1.3824         146.078         29.8612 
        1.39811         145.181         29.1183 
        1.41389         142.444         28.3983 
        1.42964         140.587         27.7042 
        1.44531         137.264         27.0372 
        1.46101         136.452          26.391 
        1.47667         134.574         25.7683 
        1.49229         132.839         25.1676 
        1.50793         131.455         24.5858 
        1.52367         130.343         24.0189 
        1.53953         127.841         23.4664 
        1.55526         125.911         22.9359 
        1.57092         124.904         22.4243 
        1.58662         123.054         21.9274 
        1.60235         121.913         21.4448 
        1.61809         120.042         20.9767 
        1.63369         118.364          20.527 
        1.64941         117.256         20.0875 
        1.66519         115.347         19.6594 
        1.68085         114.079         19.2471 
        1.69652         111.454         18.8467 
        1.71228         111.376         18.4555 
        1.72806         109.308         18.0754 
        1.74368         108.606         17.7099 
        1.75933         107.239          17.354 
        1.77505         105.629         17.0063 
        1.79081         104.379         16.6677 
         1.8065         103.408         16.3399 
        1.82218         100.995         16.0214 
        1.83797         100.722         15.7093 
        1.85367         99.0729         15.4074 
        1.86928         98.5639         15.1153 
        1.88497         96.7153         14.8293 
        1.90073         95.7593         14.5498 
        1.91647         94.5247         14.2779 
        1.93218         93.6503         14.0136 
        1.94787         92.1457         13.7564 
        1.96363         90.7618         13.5048 
        1.97935         90.0348         13.2601 
        1.99499         88.9355          13.023 
        2.01064         87.8638         12.7914 
         2.0264         86.3278          12.564 
        2.04216         85.4101         12.3424 
        2.05781         84.5699         12.1276 
        2.07353         83.4939         11.9173 
        2.08928         82.2694         11.7115 
        2.10499         81.6773         11.5112 
        2.12065         80.7115         11.3163 
        2.13633         79.8302         11.1258 
        2.15211         78.9839         10.9385 
        2.16785         77.8279         10.7561 
        2.18349         77.0765          10.579 
        2.19916         76.1415         10.4057 
        2.21489         75.7548         10.2357 
        2.23063         74.4331         10.0694 
         2.2463         73.7021         9.90768 
        2.26194         72.5786         9.74993 
        2.27765         71.9027         9.59485 
        2.29341         71.0846          9.4428 
        2.30914         70.1532          9.2944 
        2.32486         69.0628         9.14932 
        2.34061         68.5331         9.00714 
        2.35635         67.9979         8.86815 
        2.37203         66.7833         8.73262 
        2.38768         66.1265         8.60024 
        2.40339         65.4055         8.47017 
        2.41914         65.0317         8.34252 
        2.43483         64.3599         8.21799 
         2.4505         63.3538         8.09625 
        2.46622         62.7128         7.97659 
        2.48195         62.1542         7.85938 
        2.49759         61.2579         7.74518 
        2.51328         60.5937         7.63299 
        2.52906          60.099         7.52234 
        2.54479         59.5559         7.41432 
        2.56049         58.7117         7.30867 
        2.57618         57.9597          7.2052 
        2.59189         57.4534          7.1036 
        2.60758         56.9004         7.00415 
        2.62325         56.3185         6.90675 
        2.63898          55.751         6.81089 
        2.65468         54.8551         6.71707 
        2.67044         54.4886         6.62464 
        2.68618         54.1122          6.5342 
        2.70184         53.2834         6.44582 
        2.71755         52.9087         6.35888 
        2.73329         51.9476         6.27344 
        2.74897         51.5628         6.18986 
        2.76462         50.7867         6.10801 
        2.78034         50.4396         6.02733 
        2.79607         49.8708         5.94804 
        2.81179         49.3348         5.87028 
        2.82749         48.5945         5.79402 
        2.84321         48.3134         5.71905 
        2.85893          47.672         5.64545 
        2.87462         47.2339         5.57328 
        2.89033         46.7053         5.50233 
        2.90605         46.1301         5.43257 
        2.92176         45.8798         5.36407 
        2.93747         45.2199          5.2968 
        2.95318         44.7517         5.23069 
        2.96891         44.2664         5.16569 
        2.98456         43.7453          5.1021 
        3.00023         43.3776          5.0395 
        3.01596         42.9879         4.97777 
        3.03164         42.6283         4.91727 
        3.04738         42.0216          4.8576 
         3.0631         41.5326         4.79897 
        3.07883          41.157          4.7413 
        3.09456         40.7998         4.68461 
        3.11026         40.4801         4.62895 
        3.12596         39.8886         4.57421 
        3.14163         39.5807         4.52049 
        3.15734         39.1864         4.46752 
        3.17308         38.7368         4.41528 
        3.18879         38.1794         4.36403 
        3.20447         37.9079         4.31368 
         3.2202         37.5018         4.26398 
         3.2359         37.2124         4.21517 
        3.25157         36.8389         4.16724 
        3.26729         36.5464         4.11992 
        3.28304         36.1825         4.07326 
        3.29877         35.6881         4.02738 
        3.31446         35.4101         3.98233 
        3.33014         35.1112         3.93801 
        3.34585         34.7319         3.89431 
        3.36158          34.312         3.85121 
        3.37727          33.941         3.80891 
        3.39294         33.7202         3.76729 
        3.40867         33.4552         3.72616 
        3.42439         33.0163         3.68566 
        3.44008         32.7066         3.64586 
        3.45578         32.5139         3.60662 
        3.47153         32.0716         3.56788 
        3.48724         31.7211         3.52979 
        3.50292         31.4772         3.49234 
        3.51859         31.1963         3.45547 
        3.53431         30.8723         3.41902 
        3.55007         30.6789         3.38301 
        3.56577         30.2889         3.34767 
        3.58146         30.1404         3.31286 
        3.59719         29.7757         3.27847 
        3.61292         29.4391         3.24458 
        3.62859         29.1875         3.21131 
        3.64429         28.9413         3.17845 
        3.66003          28.768         3.14595 
        3.67578         28.3246         3.11393 
        3.69146         28.1397         3.08247 
        3.70712         27.8176         3.05152 
        3.72284         27.6289         3.02088 
        3.73853         27.2731         2.99071 
        3.75422         27.1059         2.96096 
        3.76993         26.9823         2.93159 
        3.78564         26.6791         2.90263 
        3.80137         26.3985         2.87403 
        3.81707         26.0786         2.84587 
        3.83279         25.8621         2.81808 
        3.84853         25.6245         2.79061 
        3.86424          25.379         2.76357 
        3.87992         25.1784         2.73693 
        3.89561         24.9317         2.71065 
        3.91134          24.669         2.68466 
        3.92704         24.4377         2.65905 
        3.94273         24.3015          2.6338 
        3.95845         24.0108         2.60883 
        3.97418         23.8086         2.58419 
        3.98988         23.5945         2.55991 
        4.00554         23.4245         2.53601 
        4.02125         23.2156         2.51234 
        4.03698          23.008         2.48895 
        4.05268         22.7507         2.46591 
        4.06839         22.6012         2.44315 
         4.0841         22.4215         2.42069 
        4.09983         22.1652         2.39848 
        4.11555         21.9373         2.37657 
        4.13124         21.7465         2.35499 
        4.14693         21.5718         2.33366 
        4.16266         21.3933         2.31255 
        4.17839         21.1508         2.29172 
        4.19408         21.0043          2.2712 
        4.20977         20.8671         2.25092 
        4.22551         20.7546         2.23085 
        4.24123         20.5259         2.21104 
        4.25691         20.3075         2.19153 
        4.27259         20.0928         2.17225 
        4.28831         19.9226         2.15317 
        4.30404         19.7667          2.1343 
        4.31974         19.5796          2.1157 
        4.33543         19.4266         2.09734 
        4.35116         19.2732         2.07916 
        4.36688         19.1369          2.0612 
        4.38255         19.0137         2.04352 
        4.39825         18.8421         2.02601 
        4.41398         18.6833         2.00867 
         4.4297         18.4705         1.99156 
        4.44541         18.3247         1.97466 
        4.46111         18.1932         1.95796 
        4.47683         18.0516         1.94145 
        4.49251          17.913         1.92517 
        4.50819         17.7483         1.90908 
         4.5239         17.5893         1.89315 
        4.53962         17.4175         1.87739 
        4.55535         17.2974          1.8618 
        4.57106         17.1441         1.84641 
        4.58678         17.0727         1.83119 
         4.6025         16.9142         1.81615 
        4.61821         16.7364         1.80128 
        4.63391         16.5796         1.78659 
         4.6496         16.4932         1.77208 
        4.66532         16.3437         1.75771 
        4.68103         16.2046         1.74351 
        4.69673         16.0633         1.72947 
        4.71241          15.971         1.71561 
        4.72811         15.8589         1.70188 
        4.74384         15.7116         1.68829 
        4.75955         15.5352         1.67486 
        4.77525         15.4463          1.6616 
        4.79096         15.3059         1.64846 
        4.80669          15.201         1.63545 
         4.8224         15.0825         1.62261 
        4.83809         14.9603         1.60992 
        4.85379         14.8336         1.59735 
         4.8695         14.7232         1.58492 
        4.88521         14.5888         1.57262 
        4.90093         14.4991         1.56045 
        4.91663         14.3859         1.54843 
        4.93234         14.2498         1.53652 
        4.94807         14.1476         1.52473 
        4.96377         14.0321         1.51308 
        4.97943         13.9183         1.50158 
        4.99514         13.8289         1.49018 
        5.01086         13.7235         1.47889 
        5.02654         13.6144         1.46774 
        5.04227         13.5325         1.45668 
          5.058         13.4203         1.44572 
        5.07371         13.3205         1.43491 
        5.08942         13.2052          1.4242 
        5.10513         13.1173          1.4136 
        5.12084         12.9822         1.40311 
        5.13656         12.9387         1.39272 
        5.15225         12.8241         1.38247 
        5.16796         12.7146         1.37229 
        5.18369         12.6448         1.36222 
         5.1994         12.5067         1.35226 
        5.21509         12.4365         1.34241 
        5.23079          12.366         1.33266 
        5.24649         12.2569           1.323 
        5.26217         12.1507         1.31345 
        5.27788         12.0856         1.30399 
        5.29359         11.9981         1.29461 
        5.30933          11.896         1.28532 
        5.32504         11.8177         1.27613 
        5.34073         11.7065         1.26704 
        5.35646         11.6301         1.25803 
        5.37218         11.5444          1.2491 
        5.38789         11.4682         1.24027 
        5.40357         11.3959         1.23154 
        5.41929         11.2926         1.22288 
        5.43502         11.2176          1.2143 
         5.4507         11.1339         1.20582 
        5.46639         11.0466         1.19743 
        5.48212         10.9669          1.1891 
        5.49786         10.9155         1.18083 
        5.51353         10.7977         1.17269 
        5.52921         10.7378         1.16461 
        5.54495         10.6496         1.15659 
        5.56066         10.5874         1.14866 
        5.57637         10.5286          1.1408 
        5.59207         10.4276         1.13302 
        5.60778         10.3647         1.12531 
        5.62346           10.31         1.11769 
        5.63916         10.2145         1.11013 
        5.65487         10.1404         1.10264 
         5.6706         10.0684         1.09521 
        5.68633         10.0078         1.08784 
        5.70203         9.92925         1.08056 
        5.71773         9.83356         1.07335 
        5.73344         9.77523          1.0662 
        5.74916         9.72693         1.05911 
        5.76486         9.64829         1.05209 
        5.78054         9.60316         1.04515 
        5.79626         9.51893         1.03826 
          5.812         9.45942         1.03142 
         5.8277         9.39473         1.02466 
        5.84339         9.31477         1.01796 
        5.85911         9.27342         1.01131 
        5.87484         9.18687         1.00473 
        5.89053         9.13885        0.998211 
        5.90623         9.06616        0.991751 
        5.92195         9.01484        0.985338 
        5.93767         8.94425        0.978987 
        5.95336         8.89462        0.972702 
        5.96905         8.83279        0.966475 
        5.98476         8.74971        0.960295 
        6.00048         8.70405        0.954167 
        6.01617         8.63883        0.948102 
        6.03185         8.59542        0.942098 
        6.04756         8.53225        0.936131 
        6.06331           8.484        0.930205 
        6.07903         8.41822        0.924343 
        6.09473         8.36348        0.918537 
        6.11044          8.3074        0.912776 
        6.12616         8.24998        0.907067 
        6.14186         8.18489        0.901412 
        6.15755         8.13133        0.895807 
        6.17326         8.06675        0.890246 
        6.18898         8.04187         0.88473 
        6.20467         7.99483        0.879271 
        6.22036         7.94814        0.873859 
         6.2361         7.88222        0.868478 
         6.2518         7.82486        0.863152 
        6.26748         7.76967        0.857883 
        6.28319         7.72173        0.852644 
        6.29893         7.67835        0.847445 
        6.31463         7.60814        0.842299 
        6.33033         7.57781        0.837197 
        6.34604         7.52525        0.832135 
        6.36177         7.47552         0.82711 
        6.37747         7.43208        0.822136 
