# k  (h/Mpc)    Pcb(k)  (Mpc/h)^3    Pcb_linear(k) (Mpc/h)^3   ShotnoiseSubtracted = true
      0.0200456         15840.7         16132.8 
      0.0350414         13499.1         13226.9 
      0.0492313         10140.2         10413.7 
      0.0637834          8475.5         8996.74 
      0.0800726         6837.71         7347.93 
       0.096163         5611.53         5584.22 
       0.111083         4742.16         4637.06 
       0.126058         3959.26         4161.45 
       0.142273         3468.31         3541.03 
       0.158546         2907.47          2875.8 
        0.17375         2631.29         2499.28 
       0.188953         2483.47         2279.81 
       0.204907         2151.03         2014.98 
       0.220756         1950.42         1731.76 
        0.23588         1758.33         1541.59 
         0.2514         1601.38         1414.03 
       0.267535         1553.14         1278.51 
       0.283568         1385.63         1137.24 
       0.299022         1333.59         1029.85 
       0.314451         1380.24         950.251 
       0.330372         1222.16         873.282 
       0.346141          1130.1         796.608 
       0.361624          1088.8          731.75 
       0.377134         1040.93          679.15 
       0.392932         1008.04         630.778 
       0.408854         960.844         583.783 
       0.424564          941.43         541.899 
       0.440253          875.14         505.966 
       0.455999         839.355         473.549 
       0.471626         855.075         443.258 
        0.48727         812.951         415.365 
       0.502856         768.871         390.475 
       0.518488         758.939         367.825 
       0.534347          717.56         346.479 
       0.550082         690.623         326.819 
       0.565732         685.474         308.921 
       0.581496         672.873         292.371 
       0.597222         654.761         277.046 
       0.612804         644.377         262.904 
       0.628434         618.574         249.732 
       0.644267         599.358         237.373 
       0.660051         591.439         225.907 
       0.675724         584.173         215.276 
       0.691403         568.112         205.332 
       0.707174         549.589          195.97 
       0.722871         539.951         187.239 
        0.73838           535.9         179.142 
       0.754018         520.205          171.47 
       0.769845         513.427          164.17 
        0.78569         503.919         157.295 
       0.801365         489.793         150.889 
       0.817031         482.464         144.851 
       0.832809         478.234         139.111 
       0.848511         467.079         133.714 
       0.864097         458.886         128.646 
       0.879701         453.343         123.841 
       0.895507         438.517          119.23 
       0.911279          431.82         114.867 
        0.92691         427.375         110.764 
       0.942635         425.617         106.841 
       0.958396         410.583         103.105 
       0.974128         405.671         99.5566 
       0.989692         391.156          96.214 
        1.00528         391.684         93.0229 
        1.02113         383.331          89.929 
        1.03692          376.73           86.99 
        1.05264           371.1         84.1983 
        1.06832         367.999         81.5357 
        1.08405         361.385         78.9834 
        1.09979         356.581         76.5408 
        1.11537         346.456         74.2276 
        1.13105          342.55          71.998 
        1.14679         338.085          69.853 
        1.16256         334.573         67.7928 
        1.17828          329.75         65.8239 
        1.19395         322.285         63.9413 
         1.2097         321.247         62.1241 
        1.22537         314.099         60.3875 
          1.241         310.309         58.7238 
        1.25666         305.377         57.1196 
        1.27241         299.515          55.569 
        1.28819         295.903         54.0743 
        1.30392         292.461         52.6399 
        1.31957         285.943         51.2648 
        1.33529         282.584         49.9347 
        1.35108         279.611         48.6473 
        1.36674         274.907         47.4153 
         1.3824         271.882         46.2278 
        1.39811         267.673         45.0778 
        1.41389          261.68         43.9631 
        1.42964         259.996         42.8887 
        1.44531         255.337          41.856 
        1.46101          251.85         40.8557 
        1.47667          247.95         39.8917 
        1.49229         245.486         38.9618 
        1.50793         242.416         38.0611 
        1.52367         238.653         37.1835 
        1.53953         233.863         36.3281 
        1.55526         233.073         35.5069 
        1.57092         229.759         34.7149 
        1.58662         224.685         33.9456 
        1.60235         222.395         33.1985 
        1.61809         218.905         32.4739 
        1.63369         215.651         31.7777 
        1.64941         213.958         31.0972 
        1.66519         210.057         30.4346 
        1.68085         206.475         29.7963 
        1.69652         204.686         29.1764 
        1.71228         201.872         28.5709 
        1.72806         198.608         27.9823 
        1.74368         197.312         27.4166 
        1.75933         194.925         26.8656 
        1.77505         191.064         26.3273 
        1.79081          188.48         25.8032 
         1.8065         186.132         25.2957 
        1.82218         182.756         24.8026 
        1.83797         181.708         24.3194 
        1.85367         178.729          23.852 
        1.86928         175.867         23.3999 
        1.88497         174.274         22.9572 
        1.90073         171.916         22.5245 
        1.91647         169.341         22.1035 
        1.93218         167.565         21.6943 
        1.94787         164.961         21.2962 
        1.96363         164.473         20.9067 
        1.97935         161.102         20.5279 
        1.99499         159.961         20.1608 
        2.01064         156.721         19.8023 
         2.0264         154.718         19.4503 
        2.04216         153.373         19.1072 
        2.05781          151.27         18.7747 
        2.07353         148.778          18.449 
        2.08928         147.434         18.1305 
        2.10499          145.22         17.8204 
        2.12065         144.533         17.5186 
        2.13633         142.078         17.2237 
        2.15211         140.217         16.9337 
        2.16785         137.921         16.6514 
        2.18349         136.064         16.3773 
        2.19916         135.407         16.1089 
        2.21489         133.489         15.8458 
        2.23063         131.648         15.5884 
         2.2463         130.542          15.338 
        2.26194         128.212         15.0938 
        2.27765         126.787         14.8537 
        2.29341         125.556         14.6183 
        2.30914         124.041         14.3886 
        2.32486           122.4          14.164 
        2.34061         120.626         13.9439 
        2.35635         119.452         13.7287 
        2.37203         118.122         13.5189 
        2.38768         116.648          13.314 
        2.40339         115.231         13.1126 
        2.41914         113.616          12.915 
        2.43483         112.386         12.7222 
         2.4505          111.58         12.5337 
        2.46622         109.505         12.3485 
        2.48195         108.475          12.167 
        2.49759         107.174         11.9903 
        2.51328         106.627         11.8166 
        2.52906         104.548         11.6453 
        2.54479         103.112         11.4781 
        2.56049         101.759         11.3145 
        2.57618         101.099         11.1543 
        2.59189         100.097          10.997 
        2.60758         98.7779         10.8431 
        2.62325         97.9653         10.6923 
        2.63898         97.0697         10.5439 
        2.65468         95.7189         10.3986 
        2.67044         94.2819         10.2556 
        2.68618         93.3942         10.1155 
        2.70184         92.0259         9.97872 
        2.71755         90.8177         9.84413 
        2.73329         90.1085         9.71185 
        2.74897         89.3146         9.58247 
        2.76462         87.9847         9.45577 
        2.78034         87.1562         9.33086 
        2.79607         86.4544         9.20811 
        2.81179         84.9601         9.08774 
        2.82749         84.4642         8.96968 
        2.84321         83.2819         8.85362 
        2.85893          82.412         8.73967 
        2.87462         81.5696         8.62796 
        2.89033         80.4814         8.51812 
        2.90605         80.1841         8.41012 
        2.92176         78.8838         8.30408 
        2.93747         78.0841         8.19994 
        2.95318         77.3623         8.09759 
        2.96891         76.4404         7.99697 
        2.98456         75.6451         7.89852 
        3.00023         74.8443         7.80161 
        3.01596         74.1764         7.70605 
        3.03164         73.3894         7.61238 
        3.04738         72.4598         7.52002 
         3.0631         71.8885         7.42924 
        3.07883         71.0172         7.33997 
        3.09456         70.2249         7.25221 
        3.11026         69.3971         7.16604 
        3.12596         68.8698         7.08129 
        3.14163         68.2135         6.99813 
        3.15734         67.5088         6.91613 
        3.17308         66.5201         6.83526 
        3.18879         65.9551         6.75592 
        3.20447          65.359         6.67798 
         3.2202         64.6359         6.60104 
         3.2359         63.9385         6.52546 
        3.25157         63.2014         6.45127 
        3.26729         62.5853         6.37802 
        3.28304           61.94         6.30577 
        3.29877         61.1603         6.23476 
        3.31446         61.0466         6.16501 
        3.33014         60.1564          6.0964 
        3.34585         59.5867         6.02874 
        3.36158         58.8959         5.96203 
        3.37727         58.6148         5.89654 
        3.39294         57.8987         5.83211 
        3.40867         57.4114         5.76843 
        3.42439         56.7325         5.70574 
        3.44008         56.1775         5.64412 
        3.45578         55.6659         5.58338 
        3.47153         55.1654         5.52341 
        3.48724         54.4047         5.46443 
        3.50292         53.9374         5.40647 
        3.51859          53.484         5.34938 
        3.53431         52.7849         5.29295 
        3.55007         52.4256         5.23721 
        3.56577         51.9728         5.18251 
        3.58146         51.2726         5.12861 
        3.59719         50.8176         5.07537 
        3.61292         50.3424         5.02291 
        3.62859         49.9241         4.97141 
        3.64429         49.4929         4.92053 
        3.66003         49.0955         4.87022 
        3.67578         48.4966         4.82064 
        3.69146         48.1528         4.77195 
        3.70712         47.5846         4.72403 
        3.72284         47.0918         4.67659 
        3.73853         46.7425          4.6299 
        3.75422         46.2037         4.58384 
        3.76993         45.9359         4.53837 
        3.78564         45.3855         4.49354 
        3.80137         44.9625         4.44926 
        3.81707         44.5265         4.40567 
        3.83279         44.2415         4.36264 
        3.84853         43.7421         4.32012 
        3.86424         43.4427         4.27826 
        3.87992         42.9498         4.23702 
        3.89561         42.7486         4.19633 
        3.91134         42.1817          4.1561 
        3.92704           41.87         4.11645 
        3.94273         41.5476         4.07736 
        3.95845         41.0045         4.03872 
        3.97418         40.7231         4.00057 
        3.98988         40.3179         3.96297 
        4.00554         39.9929         3.92597 
        4.02125         39.6214         3.88934 
        4.03698         39.3606         3.85313 
        4.05268         38.9632         3.81746 
        4.06839         38.6505         3.78222 
         4.0841          38.182         3.74745 
        4.09983         37.8936         3.71307 
        4.11555         37.5236         3.67914 
        4.13124         37.2759         3.64574 
        4.14693         36.8646         3.61272 
        4.16266         36.5938         3.58005 
        4.17839           36.23          3.5478 
        4.19408         35.9898         3.51603 
        4.20977         35.6816         3.48463 
        4.22551         35.3301         3.45355 
        4.24123         35.0184         3.42289 
        4.25691         34.7292         3.39269 
        4.27259         34.4813         3.36284 
        4.28831         34.1439          3.3333 
        4.30404         33.8671          3.3041 
        4.31974         33.5754         3.27531 
        4.33543           33.31         3.24688 
        4.35116         32.9715         3.21872 
        4.36688         32.7019         3.19092 
        4.38255         32.4976         3.16355 
        4.39825         32.0808         3.13645 
        4.41398         31.9845         3.10961 
         4.4297         31.6813         3.08312 
        4.44541         31.3028         3.05695 
        4.46111         31.0989         3.03111 
        4.47683         30.9055         3.00555 
        4.49251         30.5225         2.98034 
        4.50819         30.2959         2.95543 
         4.5239         30.0506         2.93077 
        4.53962         29.8364         2.90636 
        4.55535         29.5992         2.88223 
        4.57106         29.4363         2.85841 
        4.58678         29.0972         2.83485 
         4.6025         28.9589         2.81156 
        4.61821         28.6455         2.78854 
        4.63391          28.427         2.76581 
         4.6496         28.1868         2.74334 
        4.66532         27.9462         2.72109 
        4.68103         27.7925         2.69911 
        4.69673         27.5547         2.67738 
        4.71241         27.3695         2.65593 
        4.72811         27.1066         2.63467 
        4.74384         26.9026         2.61363 
        4.75955         26.6761         2.59284 
        4.77525         26.4884          2.5723 
        4.79096         26.2796         2.55196 
        4.80669         26.0502         2.53183 
         4.8224         25.8236         2.51195 
        4.83809         25.6764          2.4923 
        4.85379         25.3541         2.47285 
         4.8695         25.1894          2.4536 
        4.88521          25.017         2.43456 
        4.90093         24.8304         2.41572 
        4.91663         24.6263         2.39711 
        4.93234         24.3929         2.37867 
        4.94807         24.2743         2.36041 
        4.96377         23.9921         2.34239 
        4.97943         23.8325         2.32459 
        4.99514         23.6217         2.30693 
        5.01086         23.4924         2.28945 
        5.02654         23.3452         2.27219 
        5.04227         23.1279         2.25507 
          5.058         22.9381         2.23811 
        5.07371         22.7798         2.22137 
        5.08942         22.5885         2.20479 
        5.10513         22.3755         2.18838 
        5.12084         22.2442         2.17214 
        5.13656         22.0519         2.15607 
        5.15225          21.965         2.14018 
        5.16796         21.7257         2.12444 
        5.18369         21.6352         2.10884 
         5.1994         21.4341         2.09342 
        5.21509         21.2662         2.07818 
        5.23079         21.0998         2.06307 
        5.24649           20.96         2.04813 
        5.26217         20.7682         2.03335 
        5.27788         20.6497         2.01869 
        5.29359         20.4729         2.00418 
        5.30933         20.3009         1.98979 
        5.32504          20.191         1.97556 
        5.34073         20.0325          1.9615 
        5.35646         19.8652         1.94754 
        5.37218         19.7498         1.93372 
        5.38789         19.5768         1.92006 
        5.40357          19.403         1.90654 
        5.41929         19.2915         1.89313 
        5.43502         19.1829         1.87985 
         5.4507         18.9965         1.86673 
        5.46639         18.8329         1.85373 
        5.48212          18.719         1.84083 
        5.49786         18.6376         1.82804 
        5.51353         18.4711         1.81543 
        5.52921         18.3263         1.80293 
        5.54495         18.1773         1.79051 
        5.56066         18.1088         1.77823 
        5.57637         17.9347         1.76606 
        5.59207         17.8386         1.75402 
        5.60778         17.6982         1.74209 
        5.62346         17.5535         1.73029 
        5.63916          17.422         1.71858 
        5.65487         17.3098         1.70699 
         5.6706          17.166         1.69548 
        5.68633         17.0785         1.68408 
        5.70203         16.9558         1.67281 
        5.71773         16.8273         1.66164 
        5.73344         16.6891         1.65057 
        5.74916         16.6163          1.6396 
        5.76486         16.4575         1.62874 
        5.78054         16.3397         1.61799 
        5.79626         16.2386         1.60732 
          5.812         16.1526         1.59673 
         5.8277         16.0046         1.58627 
        5.84339         15.8936          1.5759 
        5.85911         15.8094         1.56561 
        5.87484         15.6769         1.55541 
        5.89053         15.5682         1.54532 
        5.90623         15.4774         1.53532 
        5.92195         15.3377         1.52539 
        5.93767         15.2696         1.51556 
        5.95336         15.1506         1.50583 
        5.96905          15.051         1.49619 
        5.98476         14.9626         1.48662 
        6.00048         14.8825         1.47714 
        6.01617         14.7331         1.46775 
        6.03185         14.6399         1.45845 
        6.04756          14.556         1.44922 
        6.06331         14.3996         1.44004 
        6.07903         14.3409         1.43097 
        6.09473          14.242         1.42198 
        6.11044         14.1652         1.41306 
        6.12616         14.0239         1.40422 
        6.14186         13.9576         1.39547 
        6.15755         13.8846         1.38679 
        6.17326         13.7561         1.37818 
        6.18898         13.6974         1.36964 
        6.20467         13.5862         1.36119 
        6.22036         13.5029         1.35281 
         6.2361         13.4068         1.34448 
         6.2518         13.3357         1.33624 
        6.26748         13.2529         1.32808 
        6.28319         13.1669         1.31997 
        6.29893         13.0749         1.31192 
        6.31463         12.9782         1.30396 
        6.33033         12.8991         1.29606 
        6.34604         12.7751         1.28822 
        6.36177         12.7202         1.28044 
        6.37747         12.6466         1.27274 
