# k  (h/Mpc)    Pcb(k)  (Mpc/h)^3    Pcb_linear(k) (Mpc/h)^3   ShotnoiseSubtracted = true
      0.0200456         13637.2         13878.8 
      0.0350414         11606.2         11378.9 
      0.0492313         8758.11         8958.74 
      0.0637834         7331.23         7739.77 
      0.0800726         5922.29         6321.31 
       0.096163         4837.51         4804.02 
       0.111083         4088.15          3989.2 
       0.126058         3421.86         3580.04 
       0.142273         2986.05          3046.3 
       0.158546         2504.09         2474.01 
        0.17375         2256.95         2150.09 
       0.188953         2118.24         1961.28 
       0.204907         1829.79         1733.46 
       0.220756         1657.36         1489.81 
        0.23588         1493.15         1326.21 
         0.2514         1355.78         1216.47 
       0.267535         1317.56         1099.88 
       0.283568          1169.5         978.347 
       0.299022         1124.75         885.965 
       0.314451         1158.21         817.487 
       0.330372         1015.48         751.272 
       0.346141         941.695          685.31 
       0.361624         907.106         629.514 
       0.377134         862.903         584.262 
       0.392932         837.761         542.649 
       0.408854         798.004          502.22 
       0.424564         778.839         466.187 
       0.440253         718.619         435.275 
       0.455999         689.797         407.387 
       0.471626         702.191         381.328 
        0.48727         667.552         357.332 
       0.502856         624.262         335.919 
       0.518488         621.546         316.435 
       0.534347         582.279         298.071 
       0.550082         563.497         281.157 
       0.565732         560.044          265.76 
       0.581496         547.153         251.522 
       0.597222         531.452         238.339 
       0.612804         522.623         226.172 
       0.628434         500.621         214.841 
       0.644267         483.418         204.208 
       0.660051         476.056         194.344 
       0.675724         472.414         185.199 
       0.691403         458.136         176.644 
       0.707174         442.794          168.59 
       0.722871         435.613         161.079 
        0.73838         432.264         154.113 
       0.754018         416.617         147.513 
       0.769845         412.933         141.233 
        0.78569          405.35         135.319 
       0.801365         395.484         129.808 
       0.817031         386.265         124.613 
       0.832809         383.802         119.675 
       0.848511         374.003         115.032 
       0.864097         366.175         110.672 
       0.879701         362.913         106.539 
       0.895507          352.05         102.572 
       0.911279         343.994         98.8186 
        0.92691         341.871         95.2882 
       0.942635         340.153         91.9141 
       0.958396         329.749         88.6993 
       0.974128         324.353         85.6471 
       0.989692          313.41         82.7715 
        1.00528         312.412         80.0262 
        1.02113         307.919         77.3646 
        1.03692         300.958         74.8362 
        1.05264         297.276         72.4345 
        1.06832         295.626          70.144 
        1.08405         288.108         67.9482 
        1.09979         286.149         65.8469 
        1.11537         278.995         63.8569 
        1.13105         274.766         61.9388 
        1.14679         271.983         60.0935 
        1.16256         269.052         58.3211 
        1.17828         264.611         56.6273 
        1.19395         258.069         55.0078 
         1.2097         258.213         53.4444 
        1.22537         254.585         51.9505 
          1.241         250.106         50.5192 
        1.25666         245.282         49.1392 
        1.27241         240.621         47.8052 
        1.28819          238.64         46.5193 
        1.30392         233.538         45.2853 
        1.31957         229.864         44.1023 
        1.33529         227.239         42.9581 
        1.35108         224.239         41.8505 
        1.36674          221.28         40.7907 
         1.3824         218.356         39.7691 
        1.39811           214.4         38.7797 
        1.41389          211.46         37.8208 
        1.42964         208.372         36.8965 
        1.44531         205.453         36.0081 
        1.46101         202.025         35.1476 
        1.47667         199.861         34.3182 
        1.49229         197.419         33.5183 
        1.50793         194.254         32.7434 
        1.52367         192.276         31.9884 
        1.53953         188.383         31.2525 
        1.55526         187.348         30.5461 
        1.57092          184.31         29.8647 
        1.58662         180.303         29.2029 
        1.60235         178.376         28.5602 
        1.61809         175.308         27.9368 
        1.63369          174.08         27.3379 
        1.64941         172.665         26.7525 
        1.66519         168.832         26.1824 
        1.68085         166.693         25.6333 
        1.69652         165.081            25.1 
        1.71228         163.206         24.5791 
        1.72806         160.455         24.0728 
        1.74368         158.508         23.5861 
        1.75933         156.687          23.112 
        1.77505         154.041          22.649 
        1.79081         152.277         22.1981 
         1.8065         150.105         21.7615 
        1.82218         147.782         21.3373 
        1.83797         147.289         20.9216 
        1.85367         144.342         20.5195 
        1.86928         143.145         20.1306 
        1.88497         141.423         19.7497 
        1.90073         139.499         19.3775 
        1.91647         137.478         19.0153 
        1.93218         136.096         18.6633 
        1.94787         134.135         18.3208 
        1.96363         133.012         17.9858 
        1.97935          131.24         17.6599 
        1.99499         129.834          17.344 
        2.01064         127.515         17.0356 
         2.0264         126.164         16.7328 
        2.04216         124.462         16.4376 
        2.05781         122.665         16.1516 
        2.07353         121.084         15.8714 
        2.08928         119.735         15.5974 
        2.10499         118.079         15.3306 
        2.12065         117.532          15.071 
        2.13633          116.01         14.8173 
        2.15211         114.697         14.5679 
        2.16785         112.404         14.3249 
        2.18349         110.822         14.0892 
        2.19916         110.462         13.8583 
        2.21489          108.42         13.6319 
        2.23063          107.53         13.4105 
         2.2463         106.279          13.195 
        2.26194          104.87          12.985 
        2.27765         103.612         12.7784 
        2.29341         102.831         12.5759 
        2.30914         101.157         12.3783 
        2.32486          99.872         12.1851 
        2.34061         98.3387         11.9957 
        2.35635         97.8293         11.8106 
        2.37203         96.4743         11.6301 
        2.38768         95.3308         11.4538 
        2.40339         94.2574         11.2806 
        2.41914         93.1604         11.1106 
        2.43483         92.0761         10.9447 
         2.4505         90.8276         10.7826 
        2.46622         89.8572         10.6232 
        2.48195         88.9897         10.4671 
        2.49759         87.8277          10.315 
        2.51328         86.9447         10.1656 
        2.52906         85.3953         10.0183 
        2.54479         84.4278          9.8744 
        2.56049          83.541         9.73369 
        2.57618         82.8366         9.59589 
        2.59189         81.7335         9.46058 
        2.60758         81.2037         9.32813 
        2.62325           80.04         9.19841 
        2.63898         78.9193         9.07074 
        2.65468         78.2657          8.9458 
        2.67044         77.3008         8.82271 
        2.68618         76.3357         8.70225 
        2.70184         75.4149         8.58455 
        2.71755         74.6214         8.46876 
        2.73329         73.8916         8.35497 
        2.74897         73.3086         8.24366 
        2.76462         72.5471         8.13466 
        2.78034         71.5939          8.0272 
        2.79607          70.692          7.9216 
        2.81179         69.9065         7.81804 
        2.82749         69.1681         7.71648 
        2.84321         68.6877         7.61664 
        2.85893         67.9589         7.51861 
        2.87462         66.9425          7.4225 
        2.89033         66.3184         7.32801 
        2.90605         65.6282          7.2351 
        2.92176          64.827         7.14387 
        2.93747         63.9087         7.05429 
        2.95318         63.6551         6.96624 
        2.96891         62.8188         6.87967 
        2.98456         62.0029         6.79498 
        3.00023         61.5426         6.71161 
        3.01596         60.7015          6.6294 
        3.03164         60.4463         6.54882 
        3.04738         59.5732         6.46936 
         3.0631         58.8846         6.39126 
        3.07883         58.3371         6.31447 
        3.09456         57.7187         6.23897 
        3.11026         56.9154         6.16484 
        3.12596         56.5564         6.09193 
        3.14163           55.86         6.02039 
        3.15734         55.3241         5.94984 
        3.17308         54.9416         5.88027 
        3.18879         54.1246         5.81202 
        3.20447         53.5662         5.74497 
         3.2202         53.1632         5.67878 
         3.2359         52.6426         5.61376 
        3.25157         51.9318         5.54993 
        3.26729         51.6013         5.48691 
        3.28304         51.0616         5.42476 
        3.29877         50.3326         5.36367 
        3.31446         50.0788         5.30367 
        3.33014         49.5487         5.24464 
        3.34585         48.9785         5.18644 
        3.36158         48.4082         5.12904 
        3.37727         48.0625         5.07271 
        3.39294         47.4266         5.01728 
        3.40867          47.087          4.9625 
        3.42439         46.6126         4.90857 
        3.44008         46.0818         4.85556 
        3.45578         45.5968          4.8033 
        3.47153         45.1886         4.75171 
        3.48724         44.6197         4.70097 
        3.50292         44.3375          4.6511 
        3.51859         43.9785         4.60199 
        3.53431         43.4687         4.55345 
        3.55007         43.1358          4.5055 
        3.56577         42.6353         4.45843 
        3.58146         42.2431         4.41207 
        3.59719         41.7621         4.36627 
        3.61292         41.3209         4.32114 
        3.62859         41.0382         4.27683 
        3.64429         40.7368         4.23306 
        3.66003         40.2814         4.18978 
        3.67578         39.8449         4.14713 
        3.69146         39.5215         4.10524 
        3.70712         39.1483         4.06401 
        3.72284         38.8186          4.0232 
        3.73853         38.4868         3.98304 
        3.75422         38.0887         3.94341 
        3.76993         37.7754         3.90429 
        3.78564         37.4238         3.86573 
        3.80137         37.0336         3.82763 
        3.81707         36.6997         3.79013 
        3.83279         36.2985         3.75311 
        3.84853         35.8419         3.71654 
        3.86424         35.7363         3.68052 
        3.87992         35.3652         3.64505 
        3.89561         35.0555         3.61004 
        3.91134         34.6468         3.57543 
        3.92704         34.2453         3.54132 
        3.94273         34.1053         3.50769 
        3.95845          33.831         3.47445 
        3.97418          33.341         3.44163 
        3.98988         33.0317         3.40929 
        4.00554         32.7556         3.37745 
        4.02125         32.5678         3.34594 
        4.03698         32.2722         3.31479 
        4.05268         31.9516          3.2841 
        4.06839         31.6862         3.25379 
         4.0841         31.3458         3.22388 
        4.09983         31.1224          3.1943 
        4.11555         30.8618         3.16511 
        4.13124          30.631         3.13637 
        4.14693         30.3908         3.10797 
        4.16266         30.1278         3.07986 
        4.17839         29.7969         3.05212 
        4.19408         29.5646         3.02479 
        4.20977         29.2672         2.99778 
        4.22551         29.1229         2.97104 
        4.24123         28.7848         2.94466 
        4.25691         28.4759         2.91868 
        4.27259         28.3016         2.89301 
        4.28831         28.1176         2.86759 
        4.30404         27.8443         2.84246 
        4.31974         27.5712          2.8177 
        4.33543         27.3493         2.79324 
        4.35116         27.0815         2.76902 
        4.36688         26.8697          2.7451 
        4.38255         26.7287         2.72156 
        4.39825         26.5238         2.69824 
        4.41398         26.2229         2.67515 
         4.4297         25.9871         2.65237 
        4.44541         25.7134         2.62985 
        4.46111         25.5712         2.60762 
        4.47683         25.3066         2.58563 
        4.49251         25.1572         2.56394 
        4.50819         24.8968         2.54251 
         4.5239          24.728          2.5213 
        4.53962         24.5218          2.5003 
        4.55535         24.2975         2.47954 
        4.57106         24.1179         2.45905 
        4.58678          23.929         2.43878 
         4.6025         23.7249         2.41875 
        4.61821         23.6017         2.39894 
        4.63391         23.3816         2.37938 
         4.6496          23.117         2.36006 
        4.66532         22.9741         2.34092 
        4.68103         22.7384           2.322 
        4.69673         22.6342         2.30331 
        4.71241          22.401         2.28485 
        4.72811         22.2174         2.26657 
        4.74384         22.0288         2.24846 
        4.75955         21.8483         2.23059 
        4.77525         21.6981         2.21291 
        4.79096         21.5149         2.19541 
        4.80669         21.3942          2.1781 
         4.8224         21.1051         2.16099 
        4.83809         21.0507         2.14409 
        4.85379          20.851         2.12736 
         4.8695         20.6646         2.11079 
        4.88521         20.5272         2.09442 
        4.90093         20.3846         2.07821 
        4.91663         20.1984          2.0622 
        4.93234         20.0169         2.04633 
        4.94807         19.8939         2.03063 
        4.96377         19.7535         2.01512 
        4.97943         19.5939         1.99981 
        4.99514         19.4225         1.98462 
        5.01086         19.2833         1.96958 
        5.02654          19.122         1.95474 
        5.04227         19.0336            1.94 
          5.058         18.8612         1.92541 
        5.07371         18.7087         1.91101 
        5.08942         18.5803         1.89675 
        5.10513         18.4326         1.88264 
        5.12084         18.2871         1.86866 
        5.13656         18.1303         1.85483 
        5.15225         18.0105         1.84117 
        5.16796          17.844         1.82762 
        5.18369         17.7735          1.8142 
         5.1994         17.6184         1.80094 
        5.21509         17.4589         1.78783 
        5.23079         17.3565         1.77483 
        5.24649         17.1746         1.76198 
        5.26217         17.0585         1.74926 
        5.27788         16.9697         1.73665 
        5.29359         16.8295         1.72416 
        5.30933         16.7014         1.71178 
        5.32504         16.5915         1.69955 
        5.34073         16.4615         1.68745 
        5.35646         16.3374         1.67544 
        5.37218         16.2158         1.66355 
        5.38789         16.0915          1.6518 
        5.40357         15.9702         1.64017 
        5.41929         15.8718         1.62863 
        5.43502         15.7827         1.61721 
         5.4507         15.6169         1.60592 
        5.46639         15.4908         1.59474 
        5.48212         15.4016         1.58364 
        5.49786          15.302         1.57263 
        5.51353          15.206         1.56179 
        5.52921         15.0625         1.55103 
        5.54495         14.9884         1.54035 
        5.56066         14.8614         1.52978 
        5.57637         14.7628         1.51932 
        5.59207         14.6422         1.50896 
        5.60778         14.5377         1.49869 
        5.62346         14.4508         1.48854 
        5.63916         14.3385         1.47847 
        5.65487         14.2214         1.46849 
         5.6706         14.1187          1.4586 
        5.68633         14.0084         1.44879 
        5.70203         13.9281         1.43909 
        5.71773          13.832         1.42949 
        5.73344           13.75         1.41996 
        5.74916         13.6663         1.41052 
        5.76486         13.5246         1.40118 
        5.78054          13.451         1.39194 
        5.79626         13.3597         1.38275 
          5.812         13.2739         1.37364 
         5.8277          13.159         1.36464 
        5.84339         13.0932         1.35572 
        5.85911         12.9767         1.34687 
        5.87484         12.8838         1.33809 
        5.89053         12.7998         1.32942 
        5.90623         12.7071         1.32082 
        5.92195         12.6271         1.31227 
        5.93767         12.5336         1.30381 
        5.95336         12.4524         1.29544 
        5.96905         12.3663         1.28715 
        5.98476         12.3033         1.27892 
        6.00048         12.2347         1.27076 
        6.01617         12.1161         1.26268 
        6.03185         12.0257         1.25469 
        6.04756          11.961         1.24674 
        6.06331         11.8662         1.23885 
        6.07903         11.7857         1.23104 
        6.09473         11.7097         1.22331 
        6.11044         11.6394         1.21564 
        6.12616         11.5479         1.20803 
        6.14186         11.4659          1.2005 
        6.15755         11.3909         1.19304 
        6.17326         11.3037         1.18563 
        6.18898           11.26         1.17828 
        6.20467         11.1731         1.17101 
        6.22036         11.0966         1.16381 
         6.2361         11.0253         1.15664 
         6.2518         10.9459         1.14955 
        6.26748         10.8772         1.14253 
        6.28319         10.8174         1.13555 
        6.29893         10.7191         1.12863 
        6.31463         10.6576         1.12177 
        6.33033         10.5944         1.11498 
        6.34604         10.5301         1.10824 
        6.36177         10.4522         1.10155 
        6.37747         10.3879         1.09492 
