# k  (h/Mpc)    Pcb(k)  (Mpc/h)^3    Pcb_linear(k) (Mpc/h)^3   ShotnoiseSubtracted = true
      0.0200456         2179.29         2210.55 
      0.0350414         1832.75         1812.38 
      0.0492313         1425.58         1426.91 
      0.0637834         1211.74         1232.75 
      0.0800726         986.754         1006.83 
       0.096163         775.588         765.162 
       0.111083         650.366          635.38 
       0.126058          563.08         570.211 
       0.142273          479.94           485.2 
       0.158546         397.763         394.048 
        0.17375         350.801         342.457 
       0.188953         318.333         312.384 
       0.204907          272.72         276.097 
       0.220756         243.194         237.289 
        0.23588          216.89         211.232 
         0.2514         198.229         193.754 
       0.267535         184.491         175.184 
       0.283568          163.22         155.827 
       0.299022         151.126         141.112 
       0.314451         144.205         130.205 
       0.330372         128.972         119.659 
       0.346141         118.887         109.153 
       0.361624         110.504         100.266 
       0.377134         101.566         93.0586 
       0.392932         99.1603         86.4306 
       0.408854         91.1917         79.9913 
       0.424564         87.5884         74.2521 
       0.440253         80.3138         69.3286 
       0.455999         74.1299         64.8868 
       0.471626         70.4636         60.7361 
        0.48727         68.9431         56.9142 
       0.502856         64.3725         53.5037 
       0.518488         60.8825         50.4002 
       0.534347         57.6483         47.4753 
       0.550082         55.6285         44.7814 
       0.565732         53.8244         42.3291 
       0.581496          50.789         40.0613 
       0.597222         48.1952         37.9615 
       0.612804         46.4754         36.0236 
       0.628434         45.5968         34.2188 
       0.644267         43.2893         32.5253 
       0.660051          41.353         30.9543 
       0.675724         39.6783         29.4976 
       0.691403         39.0742         28.1351 
       0.707174         37.7483         26.8523 
       0.722871         36.5021         25.6559 
        0.73838         34.7184         24.5464 
       0.754018         33.2346         23.4952 
       0.769845         32.4579         22.4949 
        0.78569         31.4502          21.553 
       0.801365         30.4876         20.6752 
       0.817031          29.541         19.8478 
       0.832809         28.7826         19.0613 
       0.848511         27.9671         18.3218 
       0.864097         27.1572         17.6274 
       0.879701          26.759          16.969 
       0.895507         25.8325         16.3371 
       0.911279         24.8843         15.7394 
        0.92691         24.4662         15.1771 
       0.942635         24.0065         14.6396 
       0.958396         23.1935         14.1276 
       0.974128         22.6838         13.6415 
       0.989692         21.8668         13.1835 
        1.00528         21.7275         12.7462 
        1.02113         21.0713         12.3223 
        1.03692         20.6215         11.9196 
        1.05264          20.222          11.537 
        1.06832          19.815         11.1722 
        1.08405         19.3337         10.8225 
        1.09979         18.9301         10.4878 
        1.11537         18.5238         10.1708 
        1.13105         18.2167         9.86532 
        1.14679         17.8219         9.57141 
        1.16256         17.4666         9.28911 
        1.17828         17.1692         9.01934 
        1.19395         16.9106         8.76138 
         1.2097         16.3836         8.51238 
        1.22537         16.1693         8.27443 
          1.241          15.839         8.04646 
        1.25666          15.774         7.82666 
        1.27241         15.4339         7.61418 
        1.28819         14.8806         7.40937 
        1.30392         14.8417         7.21283 
        1.31957         14.5642         7.02441 
        1.33529         14.3627         6.84216 
        1.35108         14.1023         6.66576 
        1.36674         13.8166         6.49694 
         1.3824         13.6831         6.33424 
        1.39811          13.436         6.17665 
        1.41389         13.1723         6.02392 
        1.42964         13.0504          5.8767 
        1.44531         12.8054          5.7352 
        1.46101         12.6483         5.59814 
        1.47667         12.4419         5.46604 
        1.49229         12.2187         5.33863 
        1.50793         12.0729         5.21521 
        1.52367         11.9028         5.09496 
        1.53953         11.6589         4.97775 
        1.55526         11.6083         4.86523 
        1.57092         11.4124         4.75671 
        1.58662         11.2763          4.6513 
        1.60235         11.1169         4.54893 
        1.61809         10.9937         4.44964 
        1.63369         10.7844         4.35425 
        1.64941         10.6603         4.26101 
        1.66519         10.5097         4.17021 
        1.68085         10.3718         4.08275 
        1.69652         10.2975         3.99781 
        1.71228         10.1688         3.91484 
        1.72806          9.9711          3.8342 
        1.74368         9.92889         3.75668 
        1.75933         9.81082         3.68118 
        1.77505         9.61456         3.60743 
        1.79081         9.58712         3.53561 
         1.8065         9.48965         3.46607 
        1.82218         9.32627          3.3985 
        1.83797         9.20311          3.3323 
        1.85367         9.09025         3.26825 
        1.86928           9.057          3.2063 
        1.88497         8.88138         3.14564 
        1.90073         8.80327         3.08635 
        1.91647         8.68975         3.02866 
        1.93218         8.59607          2.9726 
        1.94787         8.48916         2.91806 
        1.96363         8.42369         2.86469 
        1.97935         8.37664         2.81278 
        1.99499          8.2569         2.76248 
        2.01064          8.1869         2.71335 
         2.0264         8.07765         2.66512 
        2.04216         8.03105         2.61811 
        2.05781         7.91834         2.57255 
        2.07353         7.85413         2.52792 
        2.08928         7.70041         2.48428 
        2.10499         7.67213         2.44179 
        2.12065         7.68371         2.40044 
        2.13633         7.55266         2.36003 
        2.15211         7.44896          2.3203 
        2.16785         7.37717         2.28161 
        2.18349         7.33863         2.24406 
        2.19916         7.26176         2.20728 
        2.21489         7.16083         2.17122 
        2.23063         7.10784         2.13596 
         2.2463         7.05461         2.10165 
        2.26194         6.97021         2.06818 
        2.27765         6.87695         2.03529 
        2.29341         6.80811         2.00303 
        2.30914         6.77739         1.97155 
        2.32486         6.71008         1.94078 
        2.34061         6.65687         1.91062 
        2.35635         6.59961         1.88114 
        2.37203         6.55652         1.85239 
        2.38768         6.51301         1.82431 
        2.40339         6.42258         1.79672 
        2.41914         6.35383         1.76964 
        2.43483         6.29799         1.74322 
         2.4505         6.28273          1.7174 
        2.46622         6.20555         1.69202 
        2.48195         6.16833         1.66715 
        2.49759         6.10028         1.64293 
        2.51328         6.04393         1.61913 
        2.52906         5.99766         1.59566 
        2.54479         5.94907         1.57275 
        2.56049         5.90628         1.55034 
        2.57618         5.85694         1.52839 
        2.59189         5.85459         1.50684 
        2.60758         5.77124         1.48574 
        2.62325          5.7123         1.46508 
        2.63898         5.66604         1.44475 
        2.65468         5.62085         1.42484 
        2.67044         5.59347         1.40524 
        2.68618         5.55475         1.38605 
        2.70184         5.50112         1.36731 
        2.71755         5.44619         1.34886 
        2.73329          5.4171         1.33074 
        2.74897         5.37757         1.31301 
        2.76462         5.31829         1.29565 
        2.78034          5.2997         1.27853 
        2.79607         5.23401         1.26172 
        2.81179         5.19296         1.24522 
        2.82749         5.15528         1.22905 
        2.84321         5.14283         1.21314 
        2.85893          5.0789         1.19753 
        2.87462         5.05277         1.18222 
        2.89033         5.02598         1.16717 
        2.90605          4.9833         1.15237 
        2.92176         4.94128         1.13784 
        2.93747         4.88882         1.12357 
        2.95318         4.86787         1.10955 
        2.96891         4.83921         1.09576 
        2.98456         4.81319         1.08227 
        3.00023         4.78558         1.06899 
        3.01596         4.73462          1.0559 
        3.03164         4.68338         1.04307 
        3.04738         4.67006         1.03041 
         3.0631         4.63768         1.01797 
        3.07883         4.60649         1.00574 
        3.09456         4.55246        0.993714 
        3.11026         4.53513        0.981906 
        3.12596         4.51279        0.970294 
        3.14163         4.47602        0.958899 
        3.15734          4.4462        0.947663 
        3.17308         4.42116        0.936582 
        3.18879          4.3913        0.925711 
        3.20447         4.34738        0.915031 
         3.2202         4.33122        0.904489 
         3.2359         4.31276        0.894133 
        3.25157         4.26436        0.883967 
        3.26729         4.24534         0.87393 
        3.28304         4.21591        0.864031 
        3.29877         4.18374          0.8543 
        3.31446         4.15737        0.844743 
        3.33014         4.12621        0.835342 
        3.34585         4.11792        0.826072 
        3.36158          4.0789         0.81693 
        3.37727         4.05666        0.807957 
        3.39294         4.02584        0.799129 
        3.40867         4.00597        0.790403 
        3.42439         3.97621        0.781814 
        3.44008         3.94305         0.77337 
        3.45578         3.92663        0.765047 
        3.47153         3.90661        0.756829 
        3.48724         3.87523        0.748748 
        3.50292         3.85572        0.740806 
        3.51859         3.83678        0.732984 
        3.53431         3.79705        0.725252 
        3.55007         3.79604        0.717615 
        3.56577         3.76052        0.710118 
        3.58146         3.74595        0.702734 
        3.59719         3.71039        0.695439 
        3.61292         3.70193        0.688251 
        3.62859         3.66627        0.681193 
        3.64429         3.63982        0.674222 
        3.66003         3.62317        0.667328 
        3.67578         3.60561        0.660535 
        3.69146         3.56654        0.653863 
        3.70712         3.54728        0.647297 
        3.72284          3.5317        0.640797 
        3.73853          3.5248        0.634399 
        3.75422         3.49351        0.628087 
        3.76993         3.47157        0.621857 
        3.78564         3.45565        0.615715 
        3.80137         3.42149        0.609647 
        3.81707           3.408        0.603675 
        3.83279          3.3938        0.597778 
        3.84853         3.37094        0.591952 
        3.86424         3.34589        0.586216 
        3.87992         3.32051        0.580566 
        3.89561          3.2961         0.57499 
        3.91134         3.29157        0.569478 
        3.92704         3.26625        0.564045 
        3.94273         3.24112        0.558689 
        3.95845         3.22406        0.553394 
        3.97418         3.21801        0.548167 
        3.98988         3.19599        0.543015 
        4.00554         3.17677        0.537945 
        4.02125         3.15062        0.532926 
        4.03698         3.13299        0.527964 
        4.05268         3.11202        0.523077 
        4.06839         3.09536        0.518249 
         4.0841          3.0749        0.513484 
        4.09983          3.0523        0.508773 
        4.11555         3.03511        0.504124 
        4.13124         3.01156        0.499547 
        4.14693         3.00048        0.495023 
        4.16266          2.9799        0.490546 
        4.17839         2.96344        0.486127 
        4.19408         2.94407        0.481774 
        4.20977         2.92339        0.477472 
        4.22551         2.91059        0.473214 
        4.24123         2.89124        0.469012 
        4.25691         2.87609        0.464874 
        4.27259         2.85403        0.460784 
        4.28831         2.84571        0.456737 
        4.30404         2.81663        0.452734 
        4.31974         2.80009         0.44879 
        4.33543          2.7906        0.444894 
        4.35116         2.78078        0.441037 
        4.36688         2.75813        0.437227 
        4.38255         2.73589        0.433477 
        4.39825         2.72619        0.429763 
        4.41398         2.70466        0.426086 
         4.4297         2.69178        0.422456 
        4.44541         2.67359         0.41887 
        4.46111         2.66531        0.415329 
        4.47683         2.65039        0.411827 
        4.49251         2.62856        0.408372 
        4.50819          2.6191        0.404959 
         4.5239         2.59859         0.40158 
        4.53962         2.58518        0.398236 
        4.55535         2.57429         0.39493 
        4.57106         2.55786        0.391665 
        4.58678          2.5452        0.388438 
         4.6025         2.52756        0.385246 
        4.61821         2.52106        0.382092 
        4.63391         2.49714        0.378977 
         4.6496         2.48913        0.375899 
        4.66532         2.47524         0.37285 
        4.68103         2.46365        0.369837 
        4.69673         2.44663        0.366861 
        4.71241          2.4365        0.363921 
        4.72811         2.42328        0.361009 
        4.74384         2.41145        0.358125 
        4.75955         2.40307        0.355277 
        4.77525         2.38064        0.352462 
        4.79096         2.36999        0.349675 
        4.80669         2.36438        0.346917 
         4.8224         2.35076        0.344192 
        4.83809         2.33716          0.3415 
        4.85379         2.32358        0.338835 
         4.8695         2.31186        0.336197 
        4.88521         2.29951        0.333589 
        4.90093         2.28972        0.331008 
        4.91663         2.27699        0.328457 
        4.93234         2.26947         0.32593 
        4.94807         2.25014        0.323429 
        4.96377         2.24154        0.320959 
        4.97943         2.22854        0.318521 
        4.99514         2.21728        0.316101 
        5.01086           2.206        0.313706 
        5.02654         2.19497        0.311341 
        5.04227         2.18764        0.308994 
          5.058         2.17844        0.306671 
        5.07371          2.1693        0.304376 
        5.08942         2.15456        0.302105 
        5.10513         2.14331        0.299857 
        5.12084         2.13075        0.297631 
        5.13656         2.11953        0.295429 
        5.15225         2.11102        0.293253 
        5.16796         2.10361        0.291095 
        5.18369         2.09054        0.288957 
         5.1994         2.08297        0.286845 
        5.21509          2.0706        0.284757 
        5.23079         2.06469        0.282687 
        5.24649         2.05048        0.280639 
        5.26217         2.04447        0.278613 
        5.27788         2.02997        0.276605 
        5.29359         2.02315        0.274617 
        5.30933         2.01312        0.272645 
        5.32504         2.00351        0.270696 
        5.34073         1.99319        0.268769 
        5.35646         1.98199        0.266856 
        5.37218         1.97671        0.264963 
        5.38789         1.96542        0.263091 
        5.40357          1.9571        0.261239 
        5.41929          1.9531        0.259401 
        5.43502         1.94003        0.257581 
         5.4507         1.92915        0.255783 
        5.46639         1.92227        0.254002 
        5.48212          1.9123        0.252234 
        5.49786          1.9053        0.250481 
        5.51353         1.89382        0.248754 
        5.52921         1.88415        0.247041 
        5.54495         1.87744         0.24534 
        5.56066         1.86589        0.243657 
        5.57637          1.8618         0.24199 
        5.59207         1.85257         0.24034 
        5.60778          1.8438        0.238705 
        5.62346         1.83549        0.237088 
        5.63916         1.83064        0.235484 
        5.65487          1.8183        0.233895 
         5.6706         1.81202        0.232318 
        5.68633         1.80073        0.230756 
        5.70203         1.80101        0.229212 
        5.71773         1.78878        0.227682 
        5.73344         1.78185        0.226165 
        5.74916         1.77566        0.224661 
        5.76486         1.76171        0.223173 
        5.78054         1.75588        0.221701 
        5.79626         1.75186        0.220238 
          5.812         1.74217        0.218787 
         5.8277         1.73723        0.217354 
        5.84339         1.72919        0.215933 
        5.85911         1.71897        0.214523 
        5.87484         1.71376        0.213125 
        5.89053         1.70508        0.211743 
        5.90623         1.70218        0.210373 
        5.92195         1.69212        0.209013 
        5.93767         1.68481        0.207665 
        5.95336         1.67583        0.206332 
        5.96905         1.67131        0.205012 
        5.98476          1.6628        0.203701 
        6.00048         1.65549        0.202401 
        6.01617         1.64804        0.201114 
        6.03185         1.64491        0.199841 
        6.04756         1.63863        0.198575 
        6.06331         1.63032        0.197318 
        6.07903         1.62188        0.196074 
        6.09473         1.61874        0.194843 
        6.11044         1.61065        0.193621 
        6.12616         1.60087         0.19241 
        6.14186         1.59526         0.19121 
        6.15755         1.58717        0.190021 
        6.17326         1.58407        0.188842 
        6.18898         1.57814        0.187671 
        6.20467         1.57342        0.186513 
        6.22036         1.56639        0.185365 
         6.2361         1.56083        0.184224 
         6.2518         1.55261        0.183094 
        6.26748         1.54626        0.181977 
        6.28319         1.54358        0.180865 
        6.29893         1.53312        0.179763 
        6.31463         1.52889        0.178671 
        6.33033         1.52512        0.177589 
        6.34604         1.51909        0.176515 
        6.36177         1.51363        0.175449 
        6.37747         1.50519        0.174394 
