# k  (h/Mpc)    Pcb(k)  (Mpc/h)^3    Pcb_linear(k) (Mpc/h)^3   ShotnoiseSubtracted = true
      0.0200456         12430.5         12728.8 
      0.0350414         10024.3         10436.1 
      0.0492313         8047.57         8216.42 
      0.0637834         7140.85         7098.45 
      0.0800726         5785.46         5797.53 
       0.096163         4203.55         4405.96 
       0.111083         3451.49         3658.65 
       0.126058         3226.09         3283.39 
       0.142273         2788.04         2793.88 
       0.158546         2420.56         2269.01 
        0.17375         1982.49         1971.94 
       0.188953         1932.96         1798.77 
       0.204907         1827.37         1589.82 
       0.220756         1584.28         1366.36 
        0.23588         1410.15         1216.32 
         0.2514         1241.27         1115.67 
       0.267535         1233.07         1008.75 
       0.283568         1125.94         897.281 
       0.299022          1058.9         812.554 
       0.314451         1011.07          749.75 
       0.330372         936.178         689.021 
       0.346141         874.805         628.525 
       0.361624          839.31         577.353 
       0.377134         785.158          535.85 
       0.392932         759.724         497.685 
       0.408854         734.642         460.606 
       0.424564          695.44         427.559 
       0.440253          679.83         399.208 
       0.455999         647.097         373.631 
       0.471626         610.236         349.731 
        0.48727         597.068         327.724 
       0.502856         580.584         308.085 
       0.518488         574.377         290.215 
       0.534347         538.429         273.373 
       0.550082          516.31         257.861 
       0.565732          518.22          243.74 
       0.581496         489.948         230.681 
       0.597222          482.77          218.59 
       0.612804         467.391         207.432 
       0.628434         452.343         197.039 
       0.644267         439.748         187.287 
       0.660051         429.273         178.241 
       0.675724         426.295         169.853 
       0.691403         413.753         162.008 
       0.707174         399.022         154.621 
       0.722871         394.594         147.732 
        0.73838         389.438         141.343 
       0.754018         377.159          135.29 
       0.769845         366.041          129.53 
        0.78569         365.388         124.106 
       0.801365         354.488         119.052 
       0.817031         345.389         114.288 
       0.832809         340.556         109.759 
       0.848511          332.41         105.501 
       0.864097         327.666         101.502 
       0.879701         322.342         97.7111 
       0.895507         315.337         94.0726 
       0.911279         306.608         90.6305 
        0.92691         304.113         87.3927 
       0.942635         299.585         84.2981 
       0.958396         295.186         81.3497 
       0.974128         288.607         78.5504 
       0.989692         283.247         75.9131 
        1.00528         279.208         73.3952 
        1.02113         277.158         70.9542 
        1.03692         269.655         68.6353 
        1.05264          264.79         66.4326 
        1.06832         260.419         64.3319 
        1.08405         255.626          62.318 
        1.09979         253.645         60.3908 
        1.11537         246.961         58.5657 
        1.13105         243.727         56.8066 
        1.14679         243.013         55.1141 
        1.16256         238.137         53.4886 
        1.17828         232.625         51.9352 
        1.19395          230.58         50.4498 
         1.2097         228.059          49.016 
        1.22537         222.977         47.6459 
          1.241          221.48         46.3332 
        1.25666         216.391         45.0675 
        1.27241         213.686          43.844 
        1.28819         211.304         42.6647 
        1.30392          209.07          41.533 
        1.31957         206.788          40.448 
        1.33529         202.348         39.3985 
        1.35108         199.381         38.3828 
        1.36674         198.218         37.4107 
         1.3824         193.764         36.4738 
        1.39811         194.399         35.5664 
        1.41389         189.105          34.687 
        1.42964         185.766         33.8392 
        1.44531         183.378         33.0245 
        1.46101         182.249         32.2352 
        1.47667          177.96         31.4746 
        1.49229         175.962          30.741 
        1.50793         174.543         30.0303 
        1.52367         172.484         29.3378 
        1.53953         169.104         28.6629 
        1.55526         166.386          28.015 
        1.57092         164.995         27.3901 
        1.58662          162.24         26.7832 
        1.60235          160.86         26.1937 
        1.61809           158.8          25.622 
        1.63369         156.372         25.0727 
        1.64941         154.226         24.5358 
        1.66519         151.918         24.0129 
        1.68085         151.048         23.5093 
        1.69652         147.022         23.0202 
        1.71228         147.093         22.5425 
        1.72806         144.441         22.0781 
        1.74368         142.981         21.6317 
        1.75933         141.041          21.197 
        1.77505         138.629         20.7723 
        1.79081         137.559         20.3587 
         1.8065         135.707         19.9584 
        1.82218          133.36         19.5693 
        1.83797         132.048         19.1881 
        1.85367         130.061         18.8193 
        1.86928         129.037         18.4625 
        1.88497          126.48         18.1132 
        1.90073         125.893         17.7718 
        1.91647         123.519         17.4397 
        1.93218         122.492         17.1168 
        1.94787         120.734         16.8028 
        1.96363         119.363         16.4955 
        1.97935         116.924         16.1966 
        1.99499         116.185         15.9069 
        2.01064         114.573          15.624 
         2.0264          113.34         15.3463 
        2.04216         111.844         15.0756 
        2.05781         110.765         14.8133 
        2.07353         108.807         14.5563 
        2.08928         107.597          14.305 
        2.10499         106.098         14.0603 
        2.12065         105.287         13.8222 
        2.13633         104.055         13.5895 
        2.15211         102.549         13.3608 
        2.16785          100.84          13.138 
        2.18349         99.7638         12.9217 
        2.19916         99.1816           12.71 
        2.21489         97.8506         12.5024 
        2.23063         96.2677         12.2993 
         2.2463         95.6938         12.1017 
        2.26194         94.3748          11.909 
        2.27765         92.9776         11.7196 
        2.29341         91.8962         11.5339 
        2.30914         90.5604         11.3526 
        2.32486         89.8633         11.1754 
        2.34061         88.8208         11.0017 
        2.35635         87.8918          10.832 
        2.37203         86.2242         10.6664 
        2.38768          85.678         10.5047 
        2.40339         84.5887         10.3459 
        2.41914         83.5606         10.1899 
        2.43483         83.1493         10.0378 
         2.4505         81.5691         9.88915 
        2.46622         80.6877         9.74299 
        2.48195          79.816         9.59982 
        2.49759         78.8349         9.46033 
        2.51328         78.0734         9.32329 
        2.52906          77.119         9.18814 
        2.54479         76.2144         9.05621 
        2.56049         75.2737         8.92716 
        2.57618          74.465         8.80077 
        2.59189         73.8224         8.67667 
        2.60758         72.8417          8.5552 
        2.62325         72.3262         8.43623 
        2.63898         71.2506         8.31914 
        2.65468         70.5096         8.20455 
        2.67044         69.9019         8.09166 
        2.68618         69.4541         7.98118 
        2.70184         68.4264         7.87323 
        2.71755          67.849         7.76704 
        2.73329         66.7639         7.66267 
        2.74897         65.6452         7.56059 
        2.76462         65.4917         7.46062 
        2.78034          64.559         7.36207 
        2.79607         63.9426         7.26521 
        2.81179         63.1328         7.17024 
        2.82749         62.4732          7.0771 
        2.84321         61.9102         6.98552 
        2.85893         60.9862         6.89562 
        2.87462         60.3336         6.80747 
        2.89033         59.9739         6.72081 
        2.90605         58.9012          6.6356 
        2.92176          58.677         6.55193 
        2.93747         57.7886         6.46977 
        2.95318          57.269         6.38901 
        2.96891         56.3896         6.30962 
        2.98456         56.1899         6.23195 
        3.00023         55.6008         6.15549 
        3.01596         54.9344         6.08009 
        3.03164         54.1857         6.00618 
        3.04738         53.7757         5.93331 
         3.0631         53.1561         5.86168 
        3.07883          52.586         5.79125 
        3.09456         52.2223         5.72201 
        3.11026         51.6635         5.65402 
        3.12596          50.801         5.58715 
        3.14163         50.4709         5.52154 
        3.15734         49.9377         5.45684 
        3.17308          49.557         5.39303 
        3.18879         48.8468         5.33044 
        3.20447         48.5295         5.26894 
         3.2202         47.9974         5.20823 
         3.2359         47.3992          5.1486 
        3.25157         46.9446         5.09006 
        3.26729         46.4353         5.03227 
        3.28304         45.9619         4.97527 
        3.29877         45.6122         4.91924 
        3.31446         45.1464          4.8642 
        3.33014         44.7649         4.81007 
        3.34585         44.1535         4.75669 
        3.36158         43.7361         4.70405 
        3.37727         43.3775         4.65238 
        3.39294         42.9081         4.60155 
        3.40867         42.3364          4.5513 
        3.42439         42.1188         4.50184 
        3.44008         41.8261         4.45322 
        3.45578          41.081          4.4053 
        3.47153         40.7317         4.35798 
        3.48724         40.3758         4.31145 
        3.50292          40.129         4.26571 
        3.51859         39.5634         4.22067 
        3.53431          39.204         4.17615 
        3.55007         38.9315         4.13217 
        3.56577         38.4978         4.08901 
        3.58146         38.1209         4.04649 
        3.59719         37.8204         4.00448 
        3.61292         37.4025         3.96309 
        3.62859         37.0016         3.92245 
        3.64429         36.7092         3.88231 
        3.66003         36.3006         3.84261 
        3.67578         36.0845          3.8035 
        3.69146          35.752         3.76508 
        3.70712         35.3311         3.72727 
        3.72284          35.066         3.68984 
        3.73853         34.6807           3.653 
        3.75422         34.2865         3.61666 
        3.76993          34.149         3.58078 
        3.78564         33.7456         3.54541 
        3.80137         33.4878         3.51047 
        3.81707          33.139         3.47608 
        3.83279         32.7796         3.44213 
        3.84853         32.5237         3.40858 
        3.86424         32.2489         3.37555 
        3.87992         31.8956         3.34302 
        3.89561         31.6352         3.31091 
        3.91134         31.3115         3.27917 
        3.92704         31.0125         3.24789 
        3.94273         30.7645         3.21705 
        3.95845         30.4995         3.18655 
        3.97418         30.2701         3.15646 
        3.98988         29.9428         3.12679 
        4.00554         29.6422          3.0976 
        4.02125          29.357          3.0687 
        4.03698         29.1521         3.04012 
        4.05268         28.9477         3.01198 
        4.06839         28.6749         2.98418 
         4.0841         28.4311         2.95675 
        4.09983         28.1711         2.92962 
        4.11555           27.93         2.90285 
        4.13124          27.617         2.87649 
        4.14693         27.3748         2.85045 
        4.16266         27.1519         2.82466 
        4.17839         26.9074         2.79922 
        4.19408         26.6943         2.77415 
        4.20977         26.3964         2.74938 
        4.22551         26.2069         2.72486 
        4.24123         25.9459         2.70067 
        4.25691         25.7428         2.67684 
        4.27259         25.5199         2.65329 
        4.28831         25.3129         2.62998 
        4.30404         25.1206         2.60694 
        4.31974         24.9001         2.58422 
        4.33543         24.7361         2.56179 
        4.35116         24.5003         2.53958 
        4.36688         24.2829         2.51764 
        4.38255         24.0571         2.49605 
        4.39825          23.827         2.47466 
        4.41398         23.6922         2.45349 
         4.4297         23.4589         2.43259 
        4.44541          23.251         2.41194 
        4.46111          23.015         2.39155 
        4.47683         22.9563         2.37138 
        4.49251         22.6683         2.35149 
        4.50819         22.4758         2.33184 
         4.5239         22.3037         2.31238 
        4.53962         22.1081         2.29313 
        4.55535         21.9697         2.27409 
        4.57106         21.7566         2.25529 
        4.58678         21.5525         2.23671 
         4.6025         21.4262         2.21833 
        4.61821          21.206         2.20016 
        4.63391         21.0791         2.18223 
         4.6496          20.889          2.1645 
        4.66532         20.7155         2.14695 
        4.68103         20.5454          2.1296 
        4.69673         20.3878         2.11246 
        4.71241         20.2246         2.09553 
        4.72811         20.0515         2.07876 
        4.74384          19.914         2.06216 
        4.75955          19.732         2.04576 
        4.77525         19.5575         2.02955 
        4.79096         19.4203          2.0135 
        4.80669         19.3225         1.99762 
         4.8224         19.1048         1.98193 
        4.83809         18.9303         1.96643 
        4.85379         18.8324         1.95108 
         4.8695         18.6421         1.93589 
        4.88521         18.5121         1.92087 
        4.90093         18.3952         1.90601 
        4.91663         18.2255         1.89132 
        4.93234          18.096         1.87677 
        4.94807         17.9663         1.86237 
        4.96377         17.7871         1.84815 
        4.97943         17.6884         1.83411 
        4.99514         17.5317         1.82018 
        5.01086         17.4054         1.80638 
        5.02654         17.2556         1.79277 
        5.04227         17.1343         1.77925 
          5.058         17.0193         1.76587 
        5.07371         16.8618         1.75266 
        5.08942         16.7313         1.73958 
        5.10513         16.6204         1.72664 
        5.12084         16.4997         1.71382 
        5.13656         16.3554         1.70114 
        5.15225         16.2609         1.68861 
        5.16796         16.1449         1.67618 
        5.18369         15.9873         1.66388 
         5.1994         15.8757         1.65172 
        5.21509         15.7348         1.63969 
        5.23079         15.6228         1.62777 
        5.24649         15.5392         1.61598 
        5.26217         15.4288         1.60431 
        5.27788         15.2878         1.59275 
        5.29359         15.1857          1.5813 
        5.30933         15.0354         1.56994 
        5.32504         14.9427         1.55872 
        5.34073         14.8326         1.54763 
        5.35646         14.7219         1.53661 
        5.37218         14.6524         1.52571 
        5.38789         14.5258         1.51493 
        5.40357         14.3986         1.50427 
        5.41929         14.2954         1.49369 
        5.43502          14.211         1.48321 
         5.4507         14.0939         1.47285 
        5.46639         13.9893          1.4626 
        5.48212         13.9052         1.45242 
        5.49786         13.7781         1.44232 
        5.51353         13.6649         1.43238 
        5.52921         13.6086         1.42251 
        5.54495         13.5207         1.41272 
        5.56066         13.4073         1.40303 
        5.57637         13.3122         1.39343 
        5.59207          13.233         1.38393 
        5.60778         13.1193         1.37451 
        5.62346         13.0406          1.3652 
        5.63916         12.9362         1.35597 
        5.65487         12.8466         1.34681 
         5.6706         12.7437         1.33774 
        5.68633         12.6514         1.32874 
        5.70203         12.5479         1.31985 
        5.71773         12.4701         1.31104 
        5.73344         12.4097         1.30231 
        5.74916         12.3015         1.29365 
        5.76486         12.2173         1.28508 
        5.78054          12.134          1.2766 
        5.79626         12.0455         1.26818 
          5.812         11.9864         1.25982 
         5.8277         11.8572         1.25157 
        5.84339         11.7999         1.24339 
        5.85911         11.7229         1.23527 
        5.87484         11.6559         1.22722 
        5.89053         11.5615         1.21926 
        5.90623         11.4674         1.21137 
        5.92195         11.3891         1.20354 
        5.93767         11.3079         1.19578 
        5.95336         11.2451          1.1881 
        5.96905         11.1433          1.1805 
        5.98476          11.091         1.17295 
        6.00048         11.0089         1.16547 
        6.01617         10.9215         1.15806 
        6.03185         10.8535         1.15072 
        6.04756         10.7934         1.14344 
        6.06331         10.7022          1.1362 
        6.07903         10.6282         1.12904 
        6.09473          10.585         1.12194 
        6.11044         10.4977         1.11491 
        6.12616         10.4385         1.10793 
        6.14186          10.362         1.10103 
        6.15755         10.2861         1.09418 
        6.17326         10.2317         1.08739 
        6.18898         10.1455         1.08065 
        6.20467         10.0742         1.07398 
        6.22036         10.0017         1.06737 
         6.2361         9.93897          1.0608 
         6.2518         9.88378          1.0543 
        6.26748         9.81338         1.04786 
        6.28319         9.75737         1.04146 
        6.29893         9.67575         1.03511 
        6.31463         9.61799         1.02882 
        6.33033         9.56363         1.02259 
        6.34604         9.49548         1.01641 
        6.36177         9.45971         1.01027 
        6.37747         9.36977          1.0042 
