#  k  (h/Mpc)          P(k)  (Mpc/h)^3     P_linear(k) (Mpc/h)^3
      0.0200456         24535.6         24980.9 
      0.0350414         17531.2         16896.3 
      0.0492313         11251.7           11438 
      0.0637834          8964.6         9353.59 
      0.0800726         7172.01         7648.04 
       0.096163         5697.26          5415.6 
       0.111083         4428.99         4066.57 
       0.126058         3634.53         3575.98 
       0.142273         3267.32         3173.02 
       0.158546         2670.28         2505.89 
        0.17375         2334.84         1999.28 
       0.188953         2203.13         1775.53 
       0.204907         1903.51         1631.92 
       0.220756         1730.71         1407.03 
        0.23588         1530.15         1183.81 
         0.2514         1379.25          1044.8 
       0.267535         1330.88         962.507 
       0.283568         1186.95         868.446 
       0.299022          1125.8         763.799 
       0.314451         1174.19         681.878 
       0.330372         1032.74         626.617 
       0.346141         947.318         577.923 
       0.361624         908.508         525.237 
       0.377134         872.522         476.696 
       0.392932         827.264         438.744 
       0.408854         795.228         407.346 
       0.424564         776.596          376.88 
       0.440253         717.831         347.414 
       0.455999         685.262         321.953 
       0.471626         699.377         300.634 
        0.48727         657.465         281.083 
       0.502856          633.03         262.456 
       0.518488         611.289         245.304 
       0.534347         589.315          229.98 
       0.550082         560.421         216.255 
       0.565732         552.403         203.524 
       0.581496          540.55         191.537 
       0.597222         529.062         180.637 
       0.612804         514.973         170.785 
       0.628434         494.123         161.643 
       0.644267          479.77         152.992 
       0.660051         475.043         144.977 
       0.675724         464.031         137.633 
       0.691403         452.036         130.814 
       0.707174         438.097         124.417 
       0.722871         435.363         118.472 
        0.73838          422.92         112.977 
       0.754018         412.419         107.788 
       0.769845         408.926         102.867 
        0.78569         399.611         98.2477 
       0.801365         385.958         93.9575 
       0.817031         383.388         89.9267 
       0.832809          377.03         86.1075 
       0.848511         371.484         82.5283 
       0.864097         360.533         79.1785 
       0.879701         361.356         76.0128 
       0.895507         347.534          72.984 
       0.911279         341.637         70.1277 
        0.92691          339.03         67.4489 
       0.942635         333.797         64.8962 
       0.958396         323.684          62.471 
       0.974128         319.787         60.1749 
       0.989692         311.287         58.0176 
        1.00528         307.714         55.9635 
        1.02113         304.004         53.9772 
        1.03692         299.031         52.0952 
        1.05264          295.07         50.3121 
        1.06832          288.82         48.6155 
        1.08405         286.833          46.993 
        1.09979          280.79          45.444 
        1.11537          274.98         43.9804 
        1.13105         271.154         42.5728 
        1.14679         267.436         41.2217 
        1.16256         265.931         39.9268 
        1.17828         261.532         38.6921 
        1.19395         255.388         37.5139 
         1.2097         254.543          36.379 
        1.22537         250.468         35.2968 
          1.241         243.576          34.262 
        1.25666         242.512         33.2663 
        1.27241         239.413         32.3057 
        1.28819         234.205         31.3815 
        1.30392         234.537         30.4963 
        1.31957         227.476         29.6494 
        1.33529         223.983         28.8316 
        1.35108         223.924         28.0416 
        1.36674         217.304          27.287 
         1.3824         215.705         26.5609 
        1.39811         213.905          25.859 
        1.41389         209.147         25.1798 
        1.42964         205.807         24.5263 
        1.44531         205.031         23.8992 
        1.46101         200.853         23.2929 
        1.47667         198.794         22.7094 
        1.49229         196.395         22.1476 
        1.50793         193.393         21.6042 
        1.52367         190.015         21.0756 
        1.53953         187.607         20.5612 
        1.55526         185.327         20.0681 
        1.57092         184.255         19.5933 
        1.58662         180.251         19.1328 
        1.60235         178.378         18.6862 
        1.61809         176.007         18.2538 
        1.63369         172.814         17.8389 
        1.64941         170.993         17.4339 
        1.66519         168.621         17.0401 
        1.68085         165.952         16.6613 
        1.69652          164.89          16.294 
        1.71228         162.005         15.9357 
        1.72806         160.732         15.5878 
        1.74368         158.422         15.2539 
        1.75933         157.166         14.9292 
        1.77505         155.095         14.6124 
        1.79081          152.28         14.3042 
         1.8065         151.148         14.0063 
        1.82218         147.251         13.7172 
        1.83797         146.731         13.4343 
        1.85367         144.446         13.1609 
        1.86928         143.055         12.8968 
        1.88497         141.974         12.6385 
        1.90073         140.544         12.3864 
        1.91647         137.941         12.1413 
        1.93218         135.762         11.9035 
        1.94787         134.015         11.6724 
        1.96363         133.632         11.4465 
        1.97935         132.198         11.2271 
        1.99499         129.827         11.0146 
        2.01064         127.662         10.8074 
         2.0264         126.905         10.6043 
        2.04216         124.782         10.4064 
        2.05781         122.979         10.2149 
        2.07353         122.131         10.0275 
        2.08928         120.267         9.84444 
        2.10499         119.491         9.66644 
        2.12065         117.948         9.49338 
        2.13633         116.597         9.32441 
        2.15211           114.6         9.15848 
        2.16785          113.62         8.99706 
        2.18349         112.093         8.84055 
        2.19916         111.418         8.68744 
        2.21489         109.494         8.53746 
        2.23063         108.033         8.39093 
         2.2463         106.923          8.2485 
        2.26194          106.02         8.10974 
        2.27765         104.721         7.97346 
        2.29341         103.438         7.83997 
        2.30914         102.243         7.70982 
        2.32486         101.158          7.5827 
        2.34061         99.7962         7.45824 
        2.35635         98.8746         7.33669 
        2.37203         97.2345         7.21828 
        2.38768         96.4704         7.10272 
        2.40339         95.1573         6.98929 
        2.41914         94.1044         6.87807 
        2.43483         93.3788         6.76967 
         2.4505         92.0614         6.66379 
        2.46622         91.0726         6.55982 
        2.48195         90.2554         6.45806 
        2.49759         88.9236         6.35901 
        2.51328         88.3256         6.26178 
        2.52906         87.2189         6.16597 
        2.54479         86.0256         6.07253 
        2.56049         84.7257          5.9812 
        2.57618         84.2309         5.89184 
        2.59189         82.8664         5.80417 
        2.60758         81.7974         5.71843 
        2.62325         81.1966         5.63453 
        2.63898         80.5558         5.55202 
        2.65468         79.5887         5.47133 
        2.67044         78.4519         5.39191 
        2.68618         77.5017         5.31425 
        2.70184         76.8392         5.23843 
        2.71755         76.1128         5.16391 
        2.73329         75.1889         5.09072 
        2.74897         74.4924         5.01919 
        2.76462         73.7324          4.9492 
        2.78034         72.4592         4.88025 
        2.79607         71.7812         4.81254 
        2.81179          71.222          4.7462 
        2.82749         70.7465         4.68119 
        2.84321         69.6258         4.61732 
        2.85893         68.8316         4.55467 
        2.87462         68.4061         4.49329 
        2.89033         67.3992         4.43298 
        2.90605         66.8177         4.37373 
        2.92176         66.2035         4.31559 
        2.93747         65.6696         4.25855 
        2.95318         64.6589         4.20252 
        2.96891         64.0534         4.14747 
        2.98456         63.2358         4.09366 
        3.00023         62.7259         4.04072 
        3.01596         62.2251         3.98856 
        3.03164         61.4642         3.93747 
        3.04738         61.1538         3.88712 
         3.0631         60.1798         3.83768 
        3.07883          59.572         3.78909 
        3.09456         58.8837         3.74135 
        3.11026         58.4808         3.69451 
        3.12596         57.8051         3.64847 
        3.14163          57.063         3.60333 
        3.15734         56.3435         3.55885 
        3.17308          55.858         3.51501 
        3.18879         55.4741         3.47203 
        3.20447         55.0173         3.42983 
         3.2202         54.2985         3.38821 
         3.2359         53.5659         3.34735 
        3.25157         53.2864         3.30726 
        3.26729         52.8006         3.26771 
        3.28304         52.0902         3.22873 
        3.29877         51.7246         3.19043 
        3.31446         51.0497         3.15284 
        3.33014         50.5875         3.11589 
        3.34585         50.1411         3.07948 
        3.36158         49.7222         3.04359 
        3.37727         49.1185         3.00839 
        3.39294         48.6442         2.97378 
        3.40867         48.2319         2.93959 
        3.42439         47.6704         2.90595 
        3.44008         47.2844         2.87291 
        3.45578          46.741         2.84036 
        3.47153         46.1748         2.80824 
        3.48724         45.8293         2.77667 
        3.50292         45.4913         2.74567 
        3.51859         44.8821         2.71515 
        3.53431         44.4332           2.685 
        3.55007         44.0668         2.65524 
        3.56577         43.7134         2.62604 
        3.58146         43.2266          2.5973 
        3.59719         42.9029         2.56892 
        3.61292         42.3699         2.54098 
        3.62859         42.0445         2.51355 
        3.64429          41.565         2.48648 
        3.66003          41.337         2.45973 
        3.67578         40.9132         2.43338 
        3.69146         40.4538         2.40751 
        3.70712         40.1975         2.38207 
        3.72284         39.7457          2.3569 
        3.73853         39.3738         2.33214 
        3.75422         39.0049         2.30773 
        3.76993         38.7108         2.28364 
        3.78564         38.2892         2.25991 
        3.80137          38.088         2.23648 
        3.81707         37.4416         2.21343 
        3.83279         37.3248         2.19068 
        3.84853         36.9665         2.16822 
        3.86424         36.5112         2.14612 
        3.87992         36.2723         2.12436 
        3.89561         36.0227          2.1029 
        3.91134         35.6527         2.08169 
        3.92704         35.4067          2.0608 
        3.94273         35.0395         2.04022 
        3.95845         34.6947         2.01988 
        3.97418         34.3678         1.99982 
        3.98988         34.0672         1.98005 
        4.00554         33.7847         1.96061 
        4.02125         33.5071         1.94137 
        4.03698         33.1561         1.92236 
        4.05268         32.9393         1.90365 
        4.06839         32.5885         1.88517 
         4.0841         32.3251         1.86694 
        4.09983         32.0312         1.84893 
        4.11555         31.7014         1.83117 
        4.13124         31.5213         1.81369 
        4.14693         31.2115         1.79642 
        4.16266         30.9339         1.77933 
        4.17839          30.584         1.76248 
        4.19408         30.3567         1.74589 
        4.20977         30.1614          1.7295 
        4.22551         29.7995         1.71328 
        4.24123         29.4938         1.69729 
        4.25691           29.38         1.68154 
        4.27259         29.1122         1.66599 
        4.28831         28.8436         1.65061 
        4.30404         28.5796         1.63541 
        4.31974         28.3876         1.62043 
        4.33543         28.1046         1.60564 
        4.35116         27.8922         1.59101 
        4.36688         27.6279         1.57656 
        4.38255         27.3935         1.56235 
        4.39825         27.1603         1.54828 
        4.41398          26.982         1.53436 
         4.4297         26.7354         1.52062 
        4.44541         26.5477         1.50706 
        4.46111         26.2346         1.49367 
        4.47683         26.1276         1.48043 
        4.49251         25.8493         1.46738 
        4.50819         25.6693         1.45449 
         4.5239         25.3871         1.44174 
        4.53962          25.264         1.42912 
        4.55535         25.0424         1.41665 
        4.57106         24.8187         1.40435 
        4.58678         24.5739         1.39219 
         4.6025         24.4167         1.38017 
        4.61821         24.1325          1.3683 
        4.63391         24.0001         1.35658 
         4.6496         23.7753           1.345 
        4.66532         23.5959         1.33354 
        4.68103         23.4488         1.32222 
        4.69673         23.2095         1.31104 
        4.71241          23.051             1.3 
        4.72811         22.8328         1.28907 
        4.74384         22.6668         1.27825 
        4.75955         22.4284         1.26757 
        4.77525           22.27         1.25703 
        4.79096         22.1127         1.24658 
        4.80669         21.9344         1.23625 
         4.8224         21.7456         1.22606 
        4.83809         21.5662         1.21598 
        4.85379         21.4051         1.20602 
         4.8695         21.2621         1.19615 
        4.88521         21.0473          1.1864 
        4.90093         20.8808         1.17676 
        4.91663         20.7247         1.16724 
        4.93234         20.5665         1.15781 
        4.94807         20.4523         1.14848 
        4.96377         20.1974         1.13926 
        4.97943         20.0833         1.13017 
        4.99514         19.9113         1.12116 
        5.01086         19.7643         1.11223 
        5.02654         19.6205         1.10343 
        5.04227          19.467          1.0947 
          5.058         19.3167         1.08605 
        5.07371         19.1195         1.07752 
        5.08942         18.9423         1.06908 
        5.10513         18.8445         1.06072 
        5.12084         18.6703         1.05246 
        5.13656         18.5217         1.04428 
        5.15225         18.4332          1.0362 
        5.16796         18.2779         1.02819 
        5.18369         18.1448         1.02027 
         5.1994         17.9875         1.01244 
        5.21509         17.8889          1.0047 
        5.23079         17.7514        0.997029 
        5.24649         17.5566        0.989446 
        5.26217         17.4863        0.981948 
        5.27788         17.2855        0.974517 
        5.29359         17.1975        0.967161 
        5.30933         17.0485        0.959871 
        5.32504         16.9193        0.952668 
        5.34073         16.7654        0.945548 
        5.35646         16.6769        0.938485 
        5.37218          16.477        0.931494 
        5.38789         16.4368        0.924585 
        5.40357         16.2968        0.917754 
        5.41929         16.1592        0.910977 
        5.43502         16.0649        0.904267 
         5.4507         15.9049        0.897642 
        5.46639          15.808        0.891081 
        5.48212         15.7045        0.884571 
        5.49786         15.5818        0.878119 
        5.51353          15.468        0.871762 
        5.52921         15.3633        0.865463 
        5.54495         15.2192        0.859207 
        5.56066          15.111        0.853019 
        5.57637           15.02        0.846894 
        5.59207         14.9299        0.840834 
        5.60778         14.7697        0.834831 
        5.62346         14.7102        0.828895 
        5.63916         14.5685        0.823012 
        5.65487         14.4369        0.817182 
         5.6706         14.3448        0.811402 
        5.68633         14.2713        0.805676 
        5.70203         14.1332        0.800017 
        5.71773         14.0357        0.794413 
        5.73344         13.9445         0.78886 
        5.74916         13.8497        0.783355 
        5.76486         13.7365         0.77791 
        5.78054         13.6536        0.772525 
        5.79626         13.5327        0.767176 
          5.812         13.4648        0.761873 
         5.8277         13.3654        0.756635 
        5.84339         13.2843        0.751446 
        5.85911         13.1505        0.746296 
        5.87484         13.0488        0.741196 
        5.89053         12.9888        0.736153 
        5.90623         12.8746        0.731154 
        5.92195         12.7797        0.726194 
        5.93767         12.7001        0.721282 
        5.95336         12.5888        0.716424 
        5.96905         12.5154        0.711612 
        5.98476         12.4204        0.706838 
        6.00048         12.3255        0.702106 
        6.01617         12.2487        0.697424 
        6.03185         12.1516         0.69279 
        6.04756         12.0921        0.688187 
        6.06331         11.9926        0.683616 
        6.07903         11.9056        0.679097 
        6.09473         11.8441        0.674622 
        6.11044         11.7481        0.670184 
        6.12616         11.6661        0.665786 
        6.14186         11.5745        0.661432 
        6.15755         11.4827        0.657118 
        6.17326         11.4054        0.652838 
        6.18898         11.3265        0.648595 
        6.20467         11.2802        0.644397 
        6.22036         11.1753        0.640236 
         6.2361          11.104        0.636101 
         6.2518         11.0437         0.63201 
        6.26748         10.9595        0.627963 
        6.28319         10.8791        0.623941 
        6.29893         10.7867         0.61995 
        6.31463         10.7347        0.616001 
        6.33033         10.6602        0.612088 
        6.34604         10.5802        0.608206 
        6.36177         10.5039        0.604354 
        6.37747         10.4455        0.600542 
