# k  (h/Mpc)    Pcb(k)  (Mpc/h)^3    Pcb_linear(k) (Mpc/h)^3   ShotnoiseSubtracted = true
      0.0200456         22949.1         23506.5 
      0.0350414         16272.7         17088.5 
      0.0492313         12133.5         12416.2 
      0.0637834         10519.8         10321.4 
      0.0800726         8297.68         8191.87 
       0.096163         5748.49         5943.91 
       0.111083         4629.83         4741.02 
       0.126058         4260.98         4201.51 
       0.142273         3691.36          3559.6 
       0.158546         3248.33         2811.34 
        0.17375         2601.78         2368.55 
       0.188953         2547.24         2144.67 
       0.204907         2393.96          1897.6 
       0.220756         2079.33         1605.48 
        0.23588          1863.4         1396.63 
         0.2514         1624.74         1268.82 
       0.267535         1628.09         1148.07 
       0.283568         1477.31         1012.44 
       0.299022         1400.27         902.032 
       0.314451         1335.61         824.396 
       0.330372         1224.99         756.291 
       0.346141         1181.01         686.449 
       0.361624         1135.84         623.889 
       0.377134          1059.6         574.076 
       0.392932         1016.56         531.181 
       0.408854         1000.53         489.646 
       0.424564         924.443         451.314 
       0.440253          908.23          418.42 
       0.455999         880.843         389.818 
       0.471626         849.688         363.533 
        0.48727         815.437         338.945 
       0.502856         792.148         316.856 
       0.518488         786.162         297.147 
       0.534347         738.121         278.824 
       0.550082         722.068          261.93 
       0.565732         717.634         246.474 
       0.581496         679.816         232.318 
       0.597222         666.307         219.336 
       0.612804         655.897         207.398 
       0.628434          638.14         196.271 
       0.644267         622.227         185.869 
       0.660051         605.356         176.281 
       0.675724         599.229         167.428 
       0.691403         580.078         159.175 
       0.707174         561.769         151.433 
       0.722871         554.887         144.236 
        0.73838         544.651         137.583 
       0.754018         534.238         131.301 
       0.769845         525.409         125.342 
        0.78569         515.581         119.748 
       0.801365         503.038         114.551 
       0.817031         490.614         109.667 
       0.832809         486.476         105.038 
       0.848511         476.164         100.699 
       0.864097         461.829         96.6356 
       0.879701         456.009         92.7937 
       0.895507         454.159         89.1163 
       0.911279          441.88         85.6468 
        0.92691         435.903         82.3916 
       0.942635         425.028         79.2883 
       0.958396         414.696         76.3391 
       0.974128          409.39         73.5458 
       0.989692         407.245         70.9205 
        1.00528          395.38         68.4201 
        1.02113         393.871         66.0015 
        1.03692         382.751         63.7092 
        1.05264         380.276         61.5368 
        1.06832         370.066         59.4694 
        1.08405         365.805          57.492 
        1.09979         360.219         55.6036 
        1.11537         353.429         53.8191 
        1.13105         348.171         52.1026 
        1.14679         339.223         50.4546 
        1.16256         332.862          48.875 
        1.17828         332.759         47.3684 
        1.19395         324.662         45.9306 
         1.2097         319.219         44.5455 
        1.22537         313.163         43.2243 
          1.241         310.017         41.9609 
        1.25666         305.361          40.745 
        1.27241         300.886         39.5718 
        1.28819         296.103         38.4429 
        1.30392         289.879         37.3615 
        1.31957         288.788         36.3267 
        1.33529         283.821         35.3273 
        1.35108         277.886         34.3618 
        1.36674         273.433         33.4393 
         1.3824         272.005         32.5517 
        1.39811         267.281         31.6934 
        1.41389           264.4         30.8628 
        1.42964         261.372         30.0635 
        1.44531         257.491         29.2966 
        1.46101         252.799         28.5548 
        1.47667          250.06         27.8409 
        1.49229         247.321         27.1535 
        1.50793         241.309         26.4885 
        1.52367         240.123         25.8416 
        1.53953          236.36          25.212 
        1.55526         232.142         24.6085 
        1.57092         230.339         24.0272 
        1.58662         227.819         23.4634 
        1.60235         223.691         22.9167 
        1.61809         221.404         22.3871 
        1.63369         218.478          21.879 
        1.64941         214.334         21.3831 
        1.66519         212.758         20.9008 
        1.68085         209.796         20.4368 
        1.69652         206.781         19.9868 
        1.71228         201.999         19.5478 
        1.72806         200.333         19.1217 
        1.74368         197.432         18.7126 
        1.75933         194.424         18.3147 
        1.77505         193.251         17.9265 
        1.79081           191.1         17.5489 
         1.8065         187.407         17.1838 
        1.82218         185.688         16.8294 
        1.83797         184.229         16.4826 
        1.85367         181.088         16.1476 
        1.86928         178.105         15.8238 
        1.88497         176.058         15.5072 
        1.90073         174.068         15.1981 
        1.91647         172.715         14.8977 
        1.93218         170.317         14.6061 
        1.94787         166.553         14.3227 
        1.96363         164.548         14.0457 
        1.97935         163.757         13.7767 
        1.99499         161.198         13.5162 
        2.01064         159.333         13.2621 
         2.0264          157.82         13.0129 
        2.04216         155.682         12.7703 
        2.05781         153.742         12.5354 
        2.07353         152.191         12.3055 
        2.08928         149.645          12.081 
        2.10499         148.333         11.8626 
        2.12065         145.834         11.6503 
        2.13633         144.363         11.4431 
        2.15211         142.078         11.2395 
        2.16785          140.88         11.0415 
        2.18349         139.573         10.8494 
        2.19916         137.524         10.6616 
        2.21489         136.376         10.4776 
        2.23063         133.994         10.2978 
         2.2463         132.564          10.123 
        2.26194         130.549         9.95275 
        2.27765         129.436         9.78553 
        2.29341         127.998         9.62171 
        2.30914         126.741         9.46199 
        2.32486         124.765         9.30599 
        2.34061         123.431         9.15325 
        2.35635         122.012         9.00408 
        2.37203         120.801         8.85875 
        2.38768          119.01         8.71693 
        2.40339         117.908          8.5777 
        2.41914         116.317         8.44119 
        2.43483         115.137         8.30814 
         2.4505         113.949         8.17818 
        2.46622         112.731         8.05056 
        2.48195         111.029         7.92565 
        2.49759         109.745         7.80407 
        2.51328         109.111         7.68471 
        2.52906          107.51          7.5671 
        2.54479         106.524          7.4524 
        2.56049         105.183         7.34029 
        2.57618         104.125         7.23059 
        2.59189         103.087         7.12296 
        2.60758         101.877          7.0177 
        2.62325         100.394         6.91469 
        2.63898         99.2256         6.81339 
        2.65468         98.2133         6.71434 
        2.67044         97.5139         6.61683 
        2.68618         96.3007         6.52148 
        2.70184         95.6481          6.4284 
        2.71755         94.0194          6.3369 
        2.73329         93.2764         6.24704 
        2.74897         92.3668         6.15922 
        2.76462          91.096         6.07328 
        2.78034         90.3732         5.98862 
        2.79607         88.9148         5.90549 
        2.81179         88.1441         5.82404 
        2.82749         87.2626         5.74421 
        2.84321         86.3867         5.66579 
        2.85893          85.522         5.58886 
        2.87462         84.5277         5.51349 
        2.89033         83.4844         5.43944 
        2.90605         82.6022         5.36668 
        2.92176         81.6277          5.2953 
        2.93747          81.122         5.22524 
        2.95318         79.9516         5.15645 
        2.96891         79.4527         5.08886 
        2.98456         78.6309         5.02278 
        3.00023         77.6959         4.95777 
        3.01596         76.7565         4.89372 
        3.03164         76.0696         4.83098 
        3.04738         75.0866         4.76916 
         3.0631         74.3368         4.70844 
        3.07883         73.8876         4.64877 
        3.09456         73.2921         4.59015 
        3.11026         72.2776         4.53263 
        3.12596          71.432          4.4761 
        3.14163          70.985         4.42067 
        3.15734         69.9033         4.36604 
        3.17308         69.2341         4.31221 
        3.18879         68.7414         4.25943 
        3.20447         67.8969         4.20761 
         3.2202          67.414         4.15649 
         3.2359         66.5365         4.10632 
        3.25157         65.9405         4.05709 
        3.26729         65.3891         4.00851 
        3.28304         64.8944         3.96064 
        3.29877         64.1635         3.91362 
        3.31446         63.1773         3.86746 
        3.33014          62.942         3.82208 
        3.34585         62.0152         3.77736 
        3.36158         61.6199         3.73329 
        3.37727         61.1337         3.69007 
        3.39294         60.2234         3.64756 
        3.40867         59.7837         3.60558 
        3.42439         59.2959         3.56427 
        3.44008          58.616          3.5237 
        3.45578         57.9905         3.48372 
        3.47153         57.4771         3.44428 
        3.48724         57.0021         3.40551 
        3.50292         56.6087         3.36744 
        3.51859          55.918         3.32996 
        3.53431         55.5793         3.29294 
        3.55007         54.9027         3.25639 
        3.56577         54.5429         3.22054 
        3.58146         53.9229         3.18524 
        3.59719         53.2979         3.15039 
        3.61292         52.8646         3.11608 
        3.62859         52.3336          3.0824 
        3.64429         51.8093         3.04916 
        3.66003          51.506         3.01631 
        3.67578         50.9486         2.98395 
        3.69146         50.4703         2.95219 
        3.70712         49.8725         2.92094 
        3.72284         49.4895         2.89004 
        3.73853         49.0251         2.85963 
        3.75422         48.4703         2.82966 
        3.76993         48.0103         2.80008 
        3.78564         47.6171         2.77094 
        3.80137         47.2074         2.74217 
        3.81707          46.703         2.71386 
        3.83279         46.3056         2.68593 
        3.84853         46.0569         2.65835 
        3.86424         45.4677         2.63122 
        3.87992          45.115         2.60449 
        3.89561         44.7581         2.57814 
        3.91134         44.2689          2.5521 
        3.92704         43.8519         2.52645 
        3.94273         43.4827         2.50118 
        3.95845         43.2554         2.47621 
        3.97418         42.8304         2.45157 
        3.98988         42.4649          2.4273 
        4.00554         42.0394         2.40343 
        4.02125         41.7569          2.3798 
        4.03698         41.2788         2.35646 
        4.05268          41.036         2.33349 
        4.06839         40.6333          2.3108 
         4.0841         40.2342         2.28842 
        4.09983         39.9408         2.26631 
        4.11555         39.6289          2.2445 
        4.13124         39.3087         2.22303 
        4.14693         38.9556         2.20183 
        4.16266         38.6395         2.18085 
        4.17839         38.1787         2.16016 
        4.19408         37.8886         2.13979 
        4.20977         37.5938         2.11967 
        4.22551         37.2487         2.09976 
        4.24123         36.9868         2.08012 
        4.25691         36.6707         2.06079 
        4.27259         36.3147          2.0417 
        4.28831         36.0062         2.02282 
        4.30404         35.7501         2.00415 
        4.31974          35.429         1.98576 
        4.33543         35.0377         1.96761 
        4.35116         34.8692         1.94965 
        4.36688         34.5552         1.93191 
        4.38255         34.2452         1.91446 
        4.39825         34.0124         1.89719 
        4.41398         33.7756          1.8801 
         4.4297         33.3884         1.86324 
        4.44541         33.1954         1.84658 
        4.46111          32.827         1.83014 
        4.47683         32.5965         1.81389 
        4.49251         32.2841         1.79788 
        4.50819         32.0991         1.78205 
         4.5239         31.8635          1.7664 
        4.53962         31.5641         1.75091 
        4.55535         31.3531         1.73561 
        4.57106         31.0562          1.7205 
        4.58678         30.8843         1.70558 
         4.6025          30.498         1.69082 
        4.61821         30.3539         1.67625 
        4.63391         30.0777         1.66186 
         4.6496         29.8056         1.64765 
        4.66532         29.5841         1.63358 
        4.68103         29.3575         1.61969 
        4.69673         29.1292         1.60597 
        4.71241          28.976         1.59242 
        4.72811         28.6515           1.579 
        4.74384         28.5101         1.56572 
        4.75955         28.2073         1.55262 
        4.77525         28.0004         1.53967 
        4.79096         27.8274         1.52686 
        4.80669         27.5291         1.51418 
         4.8224         27.3646         1.50166 
        4.83809         27.1878          1.4893 
        4.85379         26.9198         1.47706 
         4.8695         26.6986         1.46496 
        4.88521         26.4771           1.453 
        4.90093          26.265         1.44116 
        4.91663          26.034         1.42947 
        4.93234         25.8529          1.4179 
        4.94807         25.7213         1.40645 
        4.96377         25.4942         1.39514 
        4.97943         25.2323         1.38399 
        4.99514         25.1081         1.37292 
        5.01086         24.9456         1.36197 
        5.02654         24.7034         1.35117 
        5.04227         24.5494         1.34045 
          5.058         24.3863         1.32984 
        5.07371          24.187         1.31937 
        5.08942         23.9294         1.30901 
        5.10513         23.8286         1.29876 
        5.12084         23.6578         1.28861 
        5.13656         23.4817         1.27858 
        5.15225         23.2728         1.26867 
        5.16796         23.1029         1.25885 
        5.18369          22.888         1.24912 
         5.1994         22.7515         1.23951 
        5.21509         22.5774         1.23001 
        5.23079         22.4248          1.2206 
        5.24649         22.2886          1.2113 
        5.26217         22.1194          1.2021 
        5.27788         21.9569         1.19298 
        5.29359         21.7824         1.18396 
        5.30933         21.5356         1.17501 
        5.32504         21.4421         1.16617 
        5.34073         21.2963         1.15744 
        5.35646         21.1319         1.14877 
        5.37218         20.9612          1.1402 
        5.38789         20.8257         1.13172 
        5.40357         20.6919         1.12334 
        5.41929         20.4772         1.11502 
        5.43502         20.3916         1.10679 
         5.4507         20.1999         1.09866 
        5.46639         20.0709         1.09062 
        5.48212          19.954         1.08263 
        5.49786         19.7568         1.07471 
        5.51353         19.6256         1.06692 
        5.52921          19.504         1.05919 
        5.54495         19.3608         1.05151 
        5.56066         19.2263         1.04392 
        5.57637          19.074         1.03641 
        5.59207         18.9232         1.02897 
        5.60778         18.7635         1.02161 
        5.62346          18.666         1.01433 
        5.63916         18.5624         1.00711 
        5.65487          18.433        0.999962 
         5.6706         18.2851        0.992872 
        5.68633          18.165        0.985848 
        5.70203         17.9952        0.978907 
        5.71773         17.9282        0.972033 
        5.73344         17.7675        0.965222 
        5.74916         17.6636         0.95847 
        5.76486           17.56        0.951791 
        5.78054         17.4156        0.945187 
        5.79626         17.2677        0.938626 
          5.812         17.2013        0.932121 
         5.8277         17.0293        0.925697 
        5.84339         16.9189        0.919334 
        5.85911         16.8395        0.913017 
        5.87484         16.6875        0.906762 
        5.89053         16.5709        0.900577 
        5.90623         16.4882        0.894447 
        5.92195         16.3634        0.888363 
        5.93767         16.2324         0.88234 
        5.95336         16.1292        0.876382 
        5.96905          16.026        0.870481 
        5.98476         15.9172        0.864626 
        6.00048         15.7931        0.858823 
        6.01617         15.7212        0.853082 
        6.03185         15.5676        0.847399 
        6.04756         15.4668        0.841755 
        6.06331         15.3762         0.83615 
        6.07903         15.2771        0.830608 
        6.09473         15.1632        0.825121 
        6.11044         15.0549        0.819678 
        6.12616         14.9605        0.814286 
        6.14186          14.814        0.808947 
        6.15755         14.7405        0.803657 
        6.17326         14.6699         0.79841 
        6.18898         14.5784        0.793207 
        6.20467         14.4804         0.78806 
        6.22036         14.3733        0.782958 
         6.2361         14.2731        0.777889 
         6.2518         14.1801        0.772872 
        6.26748         14.0836         0.76791 
        6.28319         13.9932        0.762979 
        6.29893         13.8877        0.758086 
        6.31463         13.8096        0.753245 
        6.33033         13.7438        0.748447 
        6.34604         13.6412        0.743688 
        6.36177         13.5293        0.738965 
        6.37747         13.4634        0.734292 
