# k  (h/Mpc)    Pcb(k)  (Mpc/h)^3    Pcb_linear(k) (Mpc/h)^3   ShotnoiseSubtracted = true
      0.0200456          701.96         710.974 
      0.0350414          522.33         516.854 
      0.0492313         376.914         375.536 
      0.0637834         309.671          312.18 
      0.0800726         245.203         247.769 
       0.096163         182.225         179.778 
       0.111083         146.005         143.396 
       0.126058         126.478         127.078 
       0.142273         106.881         107.663 
       0.158546         85.5405         85.0311 
        0.17375          72.769         71.6386 
       0.188953         65.3332         64.8672 
       0.204907         56.5504         57.3942 
       0.220756         48.9336          48.559 
        0.23588         42.6289         42.2421 
         0.2514         38.6871         38.3765 
       0.267535         35.2223         34.7242 
       0.283568         31.0315          30.622 
       0.299022         27.8347         27.2827 
       0.314451          25.861         24.9345 
       0.330372         23.4136         22.8746 
       0.346141         21.2903         20.7622 
       0.361624          19.345           18.87 
       0.377134         17.7303         17.3634 
       0.392932         16.8896          16.066 
       0.408854         15.2634         14.8097 
       0.424564         14.4133         13.6503 
       0.440253         13.1898         12.6554 
       0.455999         12.1139         11.7904 
       0.471626         11.3386         10.9953 
        0.48727          10.839         10.2516 
       0.502856         10.1518         9.58354 
       0.518488         9.35264         8.98743 
       0.534347         8.74018         8.43325 
       0.550082         8.36253         7.92227 
       0.565732         7.97716         7.45479 
       0.581496         7.48026         7.02664 
       0.597222         7.04452         6.63398 
       0.612804         6.63862         6.27292 
       0.628434         6.36534         5.93638 
       0.644267         6.05041         5.62174 
       0.660051         5.73062         5.33176 
       0.675724         5.40436         5.06399 
       0.691403         5.18714         4.81438 
       0.707174         4.93167          4.5802 
       0.722871         4.80639         4.36252 
        0.73838         4.48252         4.16132 
       0.754018         4.28171         3.97129 
       0.769845         4.05828         3.79106 
        0.78569          3.9485         3.62186 
       0.801365         3.77556         3.46467 
       0.817031         3.63926         3.31696 
       0.832809         3.44884         3.17696 
       0.848511         3.34116         3.04571 
       0.864097         3.21988         2.92282 
       0.879701         3.12327         2.80662 
       0.895507         2.97296         2.69539 
       0.911279         2.87508         2.59045 
        0.92691         2.79052           2.492 
       0.942635         2.65314         2.39814 
       0.958396         2.56885         2.30893 
       0.974128         2.49113         2.22445 
       0.989692          2.3881         2.14505 
        1.00528          2.3156         2.06942 
        1.02113         2.25242         1.99626 
        1.03692         2.18992         1.92693 
        1.05264         2.09054         1.86123 
        1.06832         2.03505          1.7987 
        1.08405          1.9621         1.73889 
        1.09979         1.91521         1.68177 
        1.11537         1.84968          1.6278 
        1.13105         1.77987         1.57588 
        1.14679         1.73744         1.52604 
        1.16256         1.68128         1.47826 
        1.17828          1.6501         1.43269 
        1.19395         1.58998         1.38921 
         1.2097         1.54255         1.34731 
        1.22537         1.49054         1.30735 
          1.241         1.45789         1.26914 
        1.25666         1.42997         1.23236 
        1.27241         1.38769         1.19688 
        1.28819         1.33673         1.16274 
        1.30392         1.30467         1.13003 
        1.31957          1.2777         1.09873 
        1.33529          1.2282          1.0685 
        1.35108         1.20347          1.0393 
        1.36674         1.16905          1.0114 
         1.3824         1.15302         0.98455 
        1.39811         1.11748         0.95859 
        1.41389         1.08942         0.93347 
        1.42964         1.06175        0.909295 
        1.44531         1.03959        0.886097 
        1.46101         1.00801         0.86366 
        1.47667        0.990263         0.84207 
        1.49229        0.956408        0.821278 
        1.50793        0.936653        0.801165 
        1.52367        0.912802        0.781599 
        1.53953        0.890982        0.762557 
        1.55526        0.878829        0.744302 
        1.57092        0.863946        0.726722 
        1.58662        0.847845        0.709669 
        1.60235        0.820116        0.693132 
        1.61809        0.802911        0.677115 
        1.63369        0.779641        0.661747 
        1.64941        0.768138        0.646747 
        1.66519        0.754837         0.63216 
        1.68085        0.733804        0.618127 
        1.69652        0.719175        0.604516 
        1.71228        0.702573        0.591239 
        1.72806        0.689401        0.578351 
        1.74368        0.676055        0.565978 
        1.75933        0.663767        0.553942 
        1.77505        0.652226          0.5422 
        1.79081        0.631011        0.530779 
         1.8065        0.626016        0.519737 
        1.82218        0.608513        0.509019 
        1.83797         0.59344         0.49853 
        1.85367        0.587757        0.488395 
        1.86928        0.575402        0.478603 
        1.88497        0.560747        0.469027 
        1.90073        0.555132        0.459678 
        1.91647        0.540684        0.450593 
        1.93218        0.532174        0.441772 
        1.94787        0.522092        0.433201 
        1.96363        0.513452        0.424824 
        1.97935        0.502347        0.416686 
        1.99499        0.494247        0.408808 
        2.01064        0.485553        0.401122 
         2.0264        0.473263        0.393586 
        2.04216        0.466465        0.386247 
        2.05781        0.459597        0.379142 
        2.07353        0.450502        0.372191 
        2.08928        0.443605        0.365398 
        2.10499        0.434566        0.358794 
        2.12065        0.427344        0.352373 
        2.13633         0.42078        0.346104 
        2.15211        0.411702        0.339947 
        2.16785        0.406459        0.333958 
        2.18349        0.399823         0.32815 
        2.19916        0.392429        0.322468 
        2.21489        0.384876        0.316902 
        2.23063        0.378195        0.311464 
         2.2463        0.373069        0.306178 
        2.26194         0.36785        0.301028 
        2.27765        0.360746        0.295971 
        2.29341        0.355139        0.291016 
        2.30914        0.347628        0.286185 
        2.32486        0.342913        0.281467 
        2.34061        0.336456        0.276847 
        2.35635        0.331953        0.272335 
        2.37203        0.328934         0.26794 
        2.38768        0.322579         0.26365 
        2.40339        0.317316        0.259439 
        2.41914        0.312993         0.25531 
        2.43483        0.307391        0.251286 
         2.4505        0.302895        0.247355 
        2.46622         0.29862        0.243495 
        2.48195        0.292747        0.239717 
        2.49759        0.291708         0.23604 
        2.51328        0.284527         0.23243 
        2.52906        0.280051        0.228873 
        2.54479        0.276336        0.225403 
        2.56049        0.271579        0.222013 
        2.57618        0.269351        0.218695 
        2.59189         0.26376        0.215439 
        2.60758        0.261802        0.212256 
        2.62325        0.257623         0.20914 
        2.63898        0.254793        0.206076 
        2.65468        0.248833         0.20308 
        2.67044        0.246271        0.200131 
        2.68618        0.242942        0.197247 
        2.70184        0.239504        0.194432 
        2.71755        0.235455        0.191664 
        2.73329         0.23432        0.188946 
        2.74897        0.228986         0.18629 
        2.76462        0.226999        0.183691 
        2.78034        0.223166         0.18113 
        2.79607        0.221135        0.178616 
        2.81179        0.216328        0.176152 
        2.82749        0.214832        0.173738 
        2.84321        0.212125        0.171366 
        2.85893        0.208823        0.169039 
        2.87462        0.205751         0.16676 
        2.89033        0.203363         0.16452 
        2.90605        0.200989        0.162319 
        2.92176        0.199374         0.16016 
        2.93747        0.195643        0.158042 
        2.95318        0.193481        0.155961 
        2.96891        0.191254        0.153916 
        2.98456        0.189409        0.151918 
        3.00023        0.186361        0.149952 
        3.01596        0.183935        0.148014 
        3.03164        0.181568        0.146117 
        3.04738        0.179989        0.144247 
         3.0631        0.177806         0.14241 
        3.07883        0.175471        0.140606 
        3.09456         0.17342        0.138833 
        3.11026        0.170797        0.137093 
        3.12596        0.168519        0.135383 
        3.14163        0.167198        0.133706 
        3.15734        0.165528        0.132054 
        3.17308        0.163336        0.130426 
        3.18879        0.161352         0.12883 
        3.20447        0.159167        0.127262 
         3.2202        0.158082        0.125716 
         3.2359        0.155805        0.124199 
        3.25157        0.153665         0.12271 
        3.26729        0.152611        0.121241 
        3.28304        0.150969        0.119793 
        3.29877        0.148841         0.11837 
        3.31446        0.147876        0.116974 
        3.33014        0.146063        0.115602 
        3.34585        0.143837        0.114249 
        3.36158        0.142635        0.112916 
        3.37727        0.141622        0.111609 
        3.39294          0.1401        0.110323 
        3.40867        0.138151        0.109053 
        3.42439        0.137166        0.107804 
        3.44008        0.135892        0.106577 
        3.45578        0.134234        0.105368 
        3.47153        0.133194        0.104175 
        3.48724        0.131804        0.103002 
        3.50292        0.130816        0.101851 
        3.51859        0.129189        0.100717 
        3.53431        0.127755       0.0995975 
        3.55007        0.126716        0.098492 
        3.56577        0.125941       0.0974076 
        3.58146        0.124388       0.0963401 
        3.59719        0.123151        0.095286 
        3.61292        0.122132       0.0942481 
        3.62859        0.121192       0.0932296 
        3.64429        0.119488       0.0922242 
        3.66003        0.119019       0.0912305 
        3.67578        0.117719       0.0902518 
        3.69146        0.116726       0.0892911 
        3.70712         0.11567       0.0883462 
        3.72284        0.114978       0.0874114 
        3.73853        0.114002       0.0864918 
        3.75422        0.112701       0.0855851 
        3.76993        0.111777       0.0846906 
        3.78564        0.110959       0.0838092 
        3.80137        0.110336       0.0829389 
        3.81707        0.108684       0.0820829 
        3.83279        0.108084       0.0812381 
        3.84853        0.107177       0.0804039 
        3.86424        0.106222       0.0795831 
        3.87992        0.105354       0.0787749 
        3.89561        0.104564       0.0779779 
        3.91134        0.103558       0.0771903 
        3.92704        0.102627       0.0764145 
        3.94273        0.101757       0.0756501 
        3.95845        0.100648       0.0748948 
        3.97418        0.100084       0.0741496 
        3.98988        0.098621       0.0734156 
        4.00554       0.0981185       0.0726934 
        4.02125       0.0969763        0.071979 
        4.03698       0.0955233        0.071273 
        4.05268       0.0948356       0.0705781 
        4.06839       0.0933798       0.0698919 
         4.0841       0.0921605       0.0692151 
        4.09983       0.0911095       0.0685462 
        4.11555       0.0898446       0.0678865 
        4.13124       0.0887889       0.0672373 
        4.14693       0.0877243        0.066596 
        4.16266       0.0866076       0.0659616 
        4.17839       0.0856482       0.0653358 
        4.19408        0.084498       0.0647196 
        4.20977       0.0837263        0.064111 
        4.22551       0.0829259       0.0635088 
        4.24123        0.081843       0.0629149 
        4.25691       0.0810833       0.0623303 
        4.27259       0.0802747       0.0617529 
        4.28831       0.0797977       0.0611816 
        4.30404       0.0784647       0.0606171 
        4.31974        0.078015       0.0600608 
        4.33543       0.0773111       0.0595119 
        4.35116       0.0768082       0.0589685 
        4.36688       0.0759915       0.0584321 
        4.38255       0.0754439       0.0579044 
        4.39825       0.0750372        0.057382 
        4.41398       0.0743323        0.056865 
         4.4297        0.073938        0.056355 
        4.44541       0.0733655       0.0558513 
        4.46111       0.0728164       0.0553541 
        4.47683        0.072361       0.0548626 
        4.49251       0.0720159       0.0543781 
        4.50819        0.071804       0.0538996 
         4.5239       0.0712539       0.0534261 
        4.53962       0.0709044       0.0529577 
        4.55535       0.0708331       0.0524947 
        4.57106        0.070404       0.0520379 
        4.58678       0.0702256       0.0515865 
         4.6025       0.0700222       0.0511403 
        4.61821       0.0698979       0.0506994 
        4.63391       0.0696948       0.0502643 
         4.6496       0.0695195       0.0498345 
        4.66532       0.0694339        0.049409 
        4.68103       0.0693907       0.0489887 
        4.69673       0.0692369       0.0485737 
        4.71241       0.0695424       0.0481639 
        4.72811       0.0692577       0.0477581 
        4.74384       0.0690867       0.0473565 
        4.75955       0.0691818       0.0469602 
        4.77525       0.0694101       0.0465685 
        4.79096       0.0694459       0.0461809 
        4.80669       0.0692647       0.0457975 
         4.8224        0.069663       0.0454189 
        4.83809       0.0697463       0.0450449 
        4.85379        0.069901        0.044675 
         4.8695       0.0701749       0.0443088 
        4.88521       0.0703864        0.043947 
        4.90093       0.0708738       0.0435891 
        4.91663       0.0709824       0.0432355 
        4.93234       0.0711674       0.0428855 
        4.94807       0.0715318       0.0425391 
        4.96377       0.0719419       0.0421972 
        4.97943       0.0726694       0.0418598 
        4.99514       0.0728071       0.0415251 
        5.01086       0.0730294       0.0411939 
        5.02654       0.0738754       0.0408671 
        5.04227       0.0742764        0.040543 
          5.058       0.0745936       0.0402221 
        5.07371       0.0752493       0.0399054 
        5.08942       0.0760941        0.039592 
        5.10513       0.0767078        0.039282 
        5.12084       0.0772476       0.0389751 
        5.13656       0.0778055       0.0386716 
        5.15225       0.0787626       0.0383718 
        5.16796       0.0794835       0.0380747 
        5.18369        0.080143       0.0377805 
         5.1994        0.080904       0.0374899 
        5.21509       0.0818591       0.0372027 
        5.23079       0.0826076       0.0369181 
        5.24649       0.0835838       0.0366367 
        5.26217       0.0845548       0.0363584 
        5.27788       0.0855513       0.0360826 
        5.29359       0.0865567       0.0358097 
        5.30933       0.0875077       0.0355391 
        5.32504       0.0886616       0.0352718 
        5.34073       0.0894229       0.0350076 
        5.35646       0.0908716       0.0347455 
        5.37218       0.0920623       0.0344861 
        5.38789       0.0933032       0.0342297 
        5.40357       0.0942164       0.0339762 
        5.41929        0.095485       0.0337247 
        5.43502       0.0972582       0.0334758 
         5.4507       0.0986456       0.0332299 
        5.46639       0.0997881       0.0329865 
        5.48212        0.101118       0.0327449 
        5.49786        0.102879       0.0325055 
        5.51353        0.105049       0.0322697 
        5.52921        0.105547       0.0320359 
        5.54495        0.108098       0.0318038 
        5.56066        0.109426       0.0315742 
        5.57637        0.111015        0.031347 
        5.59207        0.112213       0.0311221 
        5.60778        0.114466       0.0308994 
        5.62346        0.116059       0.0306792 
        5.63916        0.118027       0.0304609 
        5.65487        0.120481       0.0302446 
         5.6706        0.121595       0.0300302 
        5.68633        0.124216       0.0298177 
        5.70203        0.126282       0.0296078 
        5.71773        0.128508       0.0293999 
        5.73344         0.13094       0.0291939 
        5.74916        0.133379       0.0289897 
        5.76486        0.135343       0.0287877 
        5.78054         0.13729       0.0285879 
        5.79626        0.140285       0.0283895 
          5.812        0.142089       0.0281927 
         5.8277        0.144611       0.0279984 
        5.84339        0.147359       0.0278059 
        5.85911        0.149528       0.0276149 
        5.87484        0.152224       0.0274257 
        5.89053        0.154459       0.0272386 
        5.90623        0.158956       0.0270532 
        5.92195        0.160369       0.0268692 
        5.93767        0.163262        0.026687 
        5.95336        0.166369       0.0265068 
        5.96905        0.169637       0.0263284 
        5.98476        0.171661       0.0261513 
        6.00048        0.175431       0.0259758 
        6.01617        0.178293       0.0258021 
        6.03185        0.181337       0.0256302 
        6.04756        0.184104       0.0254595 
        6.06331        0.188712         0.02529 
        6.07903        0.192103       0.0251224 
        6.09473        0.194132       0.0249564 
        6.11044        0.199771       0.0247918 
        6.12616        0.200293       0.0246287 
        6.14186        0.204863       0.0244672 
        6.15755        0.208944       0.0243072 
        6.17326         0.21296       0.0241485 
        6.18898        0.215686       0.0239911 
        6.20467        0.219367       0.0238355 
        6.22036        0.222607       0.0236812 
         6.2361        0.224951       0.0235278 
         6.2518        0.230232       0.0233761 
        6.26748        0.234907        0.023226 
        6.28319        0.239414       0.0230769 
        6.29893        0.243525       0.0229289 
        6.31463        0.247246       0.0227825 
        6.33033        0.249885       0.0226373 
        6.34604        0.255283       0.0224934 
        6.36177        0.258838       0.0223506 
        6.37747        0.262854       0.0222092 
