# k  (h/Mpc)    Pcb(k)  (Mpc/h)^3    Pcb_linear(k) (Mpc/h)^3   ShotnoiseSubtracted = true
      0.0200456         24394.9         24802.4 
      0.0350414         17301.2         16664.5 
      0.0492313         11040.3         11207.3 
      0.0637834         8645.46         8988.63 
      0.0800726          6843.6         7260.71 
       0.096163          5453.5          5164.8 
       0.111083         4219.46         3862.12 
       0.126058         3424.28         3335.48 
       0.142273         3062.34          2939.1 
       0.158546         2505.61         2335.12 
        0.17375         2180.52         1858.37 
       0.188953         2044.28         1627.52 
       0.204907          1758.6         1485.04 
       0.220756         1596.58         1285.52 
        0.23588         1409.29         1082.19 
         0.2514         1264.06         946.184 
       0.267535         1217.37         864.926 
       0.283568         1082.03          781.03 
       0.299022         1023.86         687.637 
       0.314451         1065.33         610.961 
       0.330372         931.135         557.631 
       0.346141         852.541         513.412 
       0.361624         816.175          466.83 
       0.377134         781.944         422.745 
       0.392932         739.704         387.291 
       0.408854         709.865          358.45 
       0.424564         691.688         331.384 
       0.440253         636.468         305.131 
       0.455999         606.446         281.924 
       0.471626         617.888         262.499 
        0.48727         579.482         245.039 
       0.502856         555.932         228.504 
       0.518488          536.51         213.179 
       0.534347         515.758         199.382 
       0.550082         489.556         187.139 
       0.565732         481.969         175.865 
       0.581496         469.835         165.263 
       0.597222         459.126         155.568 
       0.612804         446.138         146.833 
       0.628434         427.376         138.757 
       0.644267         413.668         131.147 
       0.660051         409.135         124.088 
       0.675724         398.399         117.616 
       0.691403         388.126         111.627 
       0.707174         375.086          106.02 
       0.722871           371.9         100.815 
        0.73838         360.946          96.011 
       0.754018         350.633         91.4801 
       0.769845         347.976         87.1889 
        0.78569         338.839         83.1662 
       0.801365         326.791         79.4344 
       0.817031         324.816         75.9324 
       0.832809         318.382         72.6183 
       0.848511         313.098          69.516 
       0.864097         302.916          66.616 
       0.879701         303.073         63.8785 
       0.895507         291.563         61.2625 
       0.911279         285.853         58.7982 
        0.92691         283.347         56.4898 
       0.942635          278.46         54.2924 
       0.958396         269.921         52.2071 
       0.974128         266.551         50.2349 
       0.989692         258.545         48.3839 
        1.00528         255.676         46.6233 
        1.02113         252.639         44.9225 
        1.03692         247.726         43.3127 
        1.05264         243.904          41.789 
        1.06832         239.028         40.3407 
        1.08405         236.183          38.957 
        1.09979         231.172         37.6371 
        1.11537         226.875         36.3913 
        1.13105         222.995         35.1942 
        1.14679         220.103         34.0462 
        1.16256          218.02          32.947 
        1.17828         214.326         31.8998 
        1.19395          208.87         30.9014 
         1.2097         208.325         29.9406 
        1.22537         204.576          29.025 
          1.241         198.286         28.1504 
        1.25666         197.637         27.3096 
        1.27241         194.552          26.499 
        1.28819         190.758         25.7198 
        1.30392         190.321         24.9742 
        1.31957         184.593         24.2613 
        1.33529         181.273         23.5735 
        1.35108         180.905         22.9096 
        1.36674         175.353         22.2759 
         1.3824         173.919         21.6666 
        1.39811         172.553         21.0781 
        1.41389         168.447          20.509 
        1.42964         165.348         19.9619 
        1.44531         164.609         19.4373 
        1.46101         161.126         18.9304 
        1.47667           159.5          18.443 
        1.49229         157.426          17.974 
        1.50793         154.631         17.5207 
        1.52367         151.909         17.0801 
        1.53953         149.611         16.6516 
        1.55526         147.721         16.2412 
        1.57092         146.821         15.8462 
        1.58662         143.685         15.4634 
        1.60235         142.117         15.0924 
        1.61809         139.561         14.7334 
        1.63369         137.034         14.3891 
        1.64941         135.791         14.0534 
        1.66519         133.511         13.7271 
        1.68085         131.314         13.4135 
        1.69652         130.494         13.1095 
        1.71228         128.015         12.8132 
        1.72806         126.806         12.5257 
        1.74368         125.032         12.2499 
        1.75933         123.745         11.9818 
        1.77505         122.009         11.7205 
        1.79081         119.838         11.4664 
         1.8065         118.379          11.221 
        1.82218         115.637         10.9829 
        1.83797          114.96           10.75 
        1.85367         113.271         10.5252 
        1.86928         111.981         10.3081 
        1.88497         110.983         10.0959 
        1.90073         109.863         9.88884 
        1.91647         107.696         9.68777 
        1.93218         106.127         9.49269 
        1.94787         104.426         9.30325 
        1.96363         104.003         9.11819 
        1.97935         102.678         8.93853 
        1.99499          100.91         8.76469 
        2.01064         99.2732         8.59521 
         2.0264         98.2556         8.42912 
        2.04216         96.6845         8.26747 
        2.05781         95.4103         8.11107 
        2.07353         94.6169         7.95813 
        2.08928         93.0358         7.80878 
        2.10499         92.4768         7.66365 
        2.12065         90.9359         7.52262 
        2.13633         90.0515         7.38499 
        2.15211         88.5408         7.24991 
        2.16785         87.6164         7.11856 
        2.18349         86.1728         6.99128 
        2.19916         85.9104         6.86682 
        2.21489          84.468         6.74496 
        2.23063         83.0764         6.62597 
         2.2463         82.2718         6.51036 
        2.26194         81.3157         6.39778 
        2.27765         80.4658         6.28728 
        2.29341         79.2385         6.17908 
        2.30914         78.1796         6.07364 
        2.32486         77.2754          5.9707 
        2.34061         76.1036         5.86997 
        2.35635         75.5313         5.77163 
        2.37203         74.2084         5.67588 
        2.38768         73.3497         5.58248 
        2.40339         72.4268         5.49084 
        2.41914         71.7392         5.40103 
        2.43483         70.8819         5.31353 
         2.4505         69.8477         5.22811 
        2.46622         69.0421         5.14426 
        2.48195         68.4217         5.06224 
        2.49759         67.3015         4.98242 
        2.51328         66.7275         4.90412 
        2.52906         65.7932         4.82699 
        2.54479         64.9179          4.7518 
        2.56049         63.8499         4.67834 
        2.57618         63.2786          4.6065 
        2.59189         62.4041         4.53604 
        2.60758         61.4608         4.46716 
        2.62325         60.8704         4.39979 
        2.63898         60.5426         4.33356 
        2.65468         59.7585         4.26883 
        2.67044         58.9365         4.20514 
        2.68618         58.1968         4.14288 
        2.70184         57.6814         4.08212 
        2.71755         56.8628         4.02243 
        2.73329         56.2051         3.96383 
        2.74897         55.7835         3.90658 
        2.76462         55.0519         3.85058 
        2.78034         54.1789         3.79544 
        2.79607         53.6092         3.74132 
        2.81179         53.1662         3.68831 
        2.82749         52.8278         3.63638 
        2.84321         51.9004         3.58538 
        2.85893         51.4086         3.53537 
        2.87462         51.0024          3.4864 
        2.89033         50.1812          3.4383 
        2.90605         49.6613         3.39106 
        2.92176         49.1452         3.34473 
        2.93747         48.8253         3.29928 
        2.95318         48.1098         3.25467 
        2.96891         47.5391         3.21085 
        2.98456         46.9641         3.16803 
        3.00023         46.5747         3.12592 
        3.01596         45.9969         3.08444 
        3.03164         45.4469         3.04383 
        3.04738         45.1602         3.00382 
         3.0631         44.5072         2.96455 
        3.07883         44.0086         2.92597 
        3.09456         43.4532         2.88807 
        3.11026          43.065         2.85091 
        3.12596         42.5512          2.8144 
        3.14163         42.0899          2.7786 
        3.15734         41.5126         2.74335 
        3.17308         41.0958         2.70861 
        3.18879         40.8177         2.67457 
        3.20447         40.4143         2.64116 
         3.2202         39.9134         2.60821 
         3.2359         39.4289         2.57588 
        3.25157          39.155         2.54417 
        3.26729          38.723          2.5129 
        3.28304         38.2188         2.48208 
        3.29877         37.8589         2.45182 
        3.31446         37.4438         2.42213 
        3.33014         37.0765         2.39296 
        3.34585         36.6578         2.36421 
        3.36158         36.3098         2.33589 
        3.37727          35.899         2.30812 
        3.39294         35.5714         2.28083 
        3.40867         35.1995         2.25387 
        3.42439         34.9523         2.22737 
        3.44008         34.4932         2.20134 
        3.45578         34.1466          2.1757 
        3.47153         33.6809         2.15041 
        3.48724         33.4526         2.12556 
        3.50292         33.0765         2.10117 
        3.51859         32.7146         2.07716 
        3.53431          32.346         2.05346 
        3.55007         32.0986         2.03006 
        3.56577         31.8313         2.00712 
        3.58146         31.4643         1.98454 
        3.59719         31.2132         1.96225 
        3.61292         30.8233         1.94031 
        3.62859         30.5548         1.91879 
        3.64429         30.2591         1.89755 
        3.66003         29.9951         1.87656 
        3.67578          29.704          1.8559 
        3.69146         29.3541         1.83562 
        3.70712         29.1561         1.81568 
        3.72284         28.8295         1.79596 
        3.73853         28.5607         1.77657 
        3.75422         28.2377         1.75745 
        3.76993         28.1029          1.7386 
        3.78564         27.7673         1.72003 
        3.80137         27.5813          1.7017 
        3.81707         27.1511         1.68367 
        3.83279         27.0581         1.66589 
        3.84853           26.73         1.64834 
        3.86424         26.4388         1.63107 
        3.87992         26.2582         1.61407 
        3.89561         26.0102         1.59731 
        3.91134         25.7743         1.58075 
        3.92704         25.5024         1.56445 
        3.94273          25.288         1.54839 
        3.95845         25.0135         1.53252 
        3.97418         24.8305         1.51687 
        3.98988         24.5417         1.50146 
        4.00554          24.344         1.48631 
        4.02125         24.1117         1.47132 
        4.03698         23.8706         1.45651 
        4.05268         23.7123         1.44194 
        4.06839         23.4347         1.42755 
         4.0841         23.2053         1.41337 
        4.09983         22.9758         1.39935 
        4.11555         22.7035         1.38553 
        4.13124         22.6152         1.37194 
        4.14693         22.3808         1.35851 
        4.16266         22.1674         1.34523 
        4.17839         21.9473         1.33213 
        4.19408         21.7713         1.31924 
        4.20977         21.5977         1.30651 
        4.22551         21.3553         1.29392 
        4.24123         21.1728         1.28151 
        4.25691         21.0024         1.26929 
        4.27259         20.8548         1.25723 
        4.28831         20.6412         1.24529 
        4.30404         20.4194          1.2335 
        4.31974         20.3296         1.22189 
        4.33543         20.0875         1.21043 
        4.35116         19.9475         1.19909 
        4.36688         19.7672          1.1879 
        4.38255         19.5587          1.1769 
        4.39825         19.4069           1.166 
        4.41398         19.2729         1.15523 
         4.4297         19.1095          1.1446 
        4.44541         18.9306          1.1341 
        4.46111         18.7729         1.12374 
        4.47683         18.6148         1.11351 
        4.49251         18.4345         1.10342 
        4.50819         18.3213         1.09346 
         4.5239         18.0779          1.0836 
        4.53962          17.972         1.07386 
        4.55535         17.8314         1.06423 
        4.57106         17.6813         1.05473 
        4.58678         17.4959         1.04534 
         4.6025         17.3918         1.03606 
        4.61821         17.1944          1.0269 
        4.63391          17.063         1.01786 
         4.6496         16.9554         1.00893 
        4.66532         16.8114          1.0001 
        4.68103         16.7201        0.991372 
        4.69673         16.4982        0.982756 
        4.71241         16.3748        0.974251 
        4.72811         16.2445        0.965832 
        4.74384         16.1194        0.957502 
        4.75955         15.9527        0.949281 
        4.77525         15.8356        0.941161 
        4.79096         15.7258        0.933125 
        4.80669           15.61        0.925179 
         4.8224          15.464        0.917334 
        4.83809         15.3274        0.909587 
        4.85379         15.2236        0.901924 
         4.8695         15.1139        0.894343 
        4.88521         14.9428        0.886852 
        4.90093         14.8332        0.879445 
        4.91663         14.7344        0.872128 
        4.93234         14.5994        0.864886 
        4.94807         14.5061        0.857721 
        4.96377         14.3276        0.850651 
        4.97943         14.2557        0.843674 
        4.99514         14.1594        0.836757 
        5.01086         14.0207        0.829912 
        5.02654         13.9407         0.82316 
        5.04227         13.8361        0.816463 
          5.058         13.6742        0.809837 
        5.07371         13.5811        0.803297 
        5.08942          13.503        0.796827 
        5.10513         13.3866        0.790428 
        5.12084         13.2879        0.784096 
        5.13656         13.1854        0.777833 
        5.15225         13.1166        0.771649 
        5.16796         12.9932        0.765523 
        5.18369         12.8883        0.759456 
         5.1994         12.7749        0.753466 
        5.21509         12.7027        0.747545 
        5.23079         12.5963        0.741681 
        5.24649         12.4708        0.735884 
        5.26217         12.3869        0.730152 
        5.27788         12.2552        0.724473 
        5.29359         12.1991        0.718852 
        5.30933         12.1067        0.713283 
        5.32504          12.032        0.707782 
        5.34073         11.9282        0.702345 
        5.35646         11.8432        0.696953 
        5.37218         11.7384        0.691616 
        5.38789         11.6946        0.686344 
        5.40357         11.5953        0.681132 
        5.41929          11.497        0.675963 
        5.43502         11.4064        0.670846 
         5.4507          11.315        0.665794 
        5.46639         11.2401        0.660793 
        5.48212          11.164        0.655831 
        5.49786         11.0474        0.650914 
        5.51353         11.0117        0.646071 
        5.52921         10.9258        0.641273 
        5.54495         10.8484        0.636508 
        5.56066          10.737        0.631797 
        5.57637         10.6763        0.627134 
        5.59207         10.6043        0.622522 
        5.60778         10.5231        0.617954 
        5.62346         10.4555        0.613438 
        5.63916         10.3643        0.608963 
        5.65487         10.2826         0.60453 
         5.6706         10.2058        0.600135 
        5.68633         10.1556        0.595782 
        5.70203         10.0838        0.591481 
        5.71773         10.0003        0.587223 
        5.73344         9.92306        0.583004 
        5.74916         9.86069        0.578823 
        5.76486         9.78917        0.574687 
        5.78054         9.70968        0.570599 
        5.79626         9.65656        0.566538 
          5.812          9.5948        0.562513 
         5.8277         9.54733        0.558538 
        5.84339         9.45651        0.554602 
        5.85911         9.37255        0.550695 
        5.87484          9.3055        0.546827 
        5.89053         9.25267        0.543003 
        5.90623         9.18028        0.539213 
        5.92195         9.11138        0.535453 
        5.93767         9.04404        0.531731 
        5.95336         8.98564         0.52805 
        5.96905         8.91269        0.524405 
        5.98476         8.86517        0.520789 
        6.00048          8.7916        0.517206 
        6.01617         8.74803        0.513661 
        6.03185         8.68509        0.510153 
        6.04756         8.63345         0.50667 
        6.06331         8.56796        0.503211 
        6.07903         8.49936        0.499792 
        6.09473         8.46521        0.496407 
        6.11044         8.38965         0.49305 
        6.12616           8.336        0.489725 
        6.14186         8.27523        0.486434 
        6.15755         8.21759        0.483173 
        6.17326         8.16121        0.479939 
        6.18898          8.1226        0.476732 
        6.20467         8.05871        0.473561 
        6.22036         7.99018        0.470419 
         6.2361         7.94359        0.467296 
         6.2518          7.9075        0.464207 
        6.26748         7.83135        0.461152 
        6.28319         7.79366        0.458116 
        6.29893         7.72427        0.455105 
        6.31463         7.69489        0.452125 
        6.33033         7.63281        0.449173 
        6.34604         7.58097        0.446245 
        6.36177         7.54028        0.443341 
        6.37747         7.48506        0.440467 
