# k  (h/Mpc)    Pcb(k)  (Mpc/h)^3    Pcb_linear(k) (Mpc/h)^3   ShotnoiseSubtracted = true
      0.0200456         25304.5         25732.6 
      0.0350414         17957.1         17289.5 
      0.0492313         11445.4         11627.7 
      0.0637834         8962.68         9325.75 
      0.0800726         7092.14         7533.03 
       0.096163         5661.88         5358.51 
       0.111083         4382.41         4006.97 
       0.126058         3556.45         3460.57 
       0.142273         3182.52         3049.33 
       0.158546         2602.64          2422.7 
        0.17375         2270.49         1928.07 
       0.188953         2132.79         1688.56 
       0.204907         1834.54         1540.74 
       0.220756         1666.65         1333.73 
        0.23588         1471.56         1122.78 
         0.2514         1322.22         981.671 
       0.267535          1272.1         897.366 
       0.283568         1132.53         810.323 
       0.299022          1070.9         713.428 
       0.314451         1115.91         633.875 
       0.330372         978.478         578.546 
       0.346141         895.585         532.668 
       0.361624          857.44         484.339 
       0.377134         822.587           438.6 
       0.392932          776.99         401.816 
       0.408854         746.417         371.894 
       0.424564         727.729         343.813 
       0.440253           670.9         316.575 
       0.455999         639.104         292.497 
       0.471626         651.035         272.344 
        0.48727          610.58          254.23 
       0.502856         587.904         237.074 
       0.518488         565.785         221.174 
       0.534347         545.395          206.86 
       0.550082         517.651         194.158 
       0.565732         509.032         182.461 
       0.581496         496.602         171.461 
       0.597222         485.753         161.403 
       0.612804          471.91          152.34 
       0.628434          451.93         143.961 
       0.644267         437.888         136.066 
       0.660051         433.225         128.742 
       0.675724         421.977         122.028 
       0.691403         410.268         115.813 
       0.707174         397.067         109.996 
       0.722871         394.513         104.596 
        0.73838         382.033          99.612 
       0.754018         371.777         94.9111 
       0.769845         368.556          90.459 
        0.78569         359.111         86.2854 
       0.801365         346.361         82.4136 
       0.817031         343.789         78.7803 
       0.832809         337.527         75.3418 
       0.848511         332.059         72.1233 
       0.864097         321.344         69.1144 
       0.879701         321.917         66.2743 
       0.895507          309.19         63.5601 
       0.911279         303.494         61.0035 
        0.92691         300.727         58.6084 
       0.942635          295.42         56.3286 
       0.958396          286.28         54.1651 
       0.974128         282.281          52.119 
       0.989692         274.597         50.1985 
        1.00528         270.778         48.3719 
        1.02113         267.586         46.6074 
        1.03692         262.629         44.9372 
        1.05264          258.99         43.3563 
        1.06832         253.046         41.8537 
        1.08405         250.763         40.4181 
        1.09979         245.064         39.0487 
        1.11537         240.148         37.7562 
        1.13105         236.392         36.5142 
        1.14679         232.909         35.3231 
        1.16256         231.062         34.1827 
        1.17828         227.106         33.0962 
        1.19395         221.341         32.0604 
         1.2097         220.414         31.0635 
        1.22537         216.561         30.1136 
          1.241         210.136         29.2062 
        1.25666         209.233         28.3338 
        1.27241         206.181         27.4928 
        1.28819         201.633         26.6845 
        1.30392         201.641         25.9108 
        1.31957         195.517         25.1712 
        1.33529         191.926         24.4576 
        1.35108         191.693         23.7688 
        1.36674         185.941         23.1113 
         1.3824         184.074         22.4792 
        1.39811         182.325         21.8686 
        1.41389         178.358         21.2782 
        1.42964          175.06         20.7106 
        1.44531         174.227         20.1663 
        1.46101         170.478         19.6404 
        1.47667         168.502         19.1347 
        1.49229         166.512         18.6481 
        1.50793         163.567         18.1778 
        1.52367         160.525         17.7207 
        1.53953         158.309         17.2761 
        1.55526         156.096         16.8503 
        1.57092         155.143         16.4405 
        1.58662         151.842         16.0433 
        1.60235          150.12         15.6585 
        1.61809          147.59         15.2859 
        1.63369         144.825         14.9288 
        1.64941         143.418         14.5805 
        1.66519         141.005          14.242 
        1.68085         138.601         13.9166 
        1.69652          137.82         13.6012 
        1.71228         135.321         13.2937 
        1.72806         133.928         12.9955 
        1.74368          131.93         12.7093 
        1.75933         130.631         12.4312 
        1.77505         128.814         12.1601 
        1.79081         126.539         11.8965 
         1.8065         125.216         11.6418 
        1.82218         121.982         11.3948 
        1.83797         121.324         11.1532 
        1.85367         119.426         10.9199 
        1.86928         118.046         10.6947 
        1.88497         117.184         10.4745 
        1.90073         115.862         10.2597 
        1.91647         113.609         10.0511 
        1.93218         111.779         9.84872 
        1.94787         110.096         9.65217 
        1.96363         109.678         9.46017 
        1.97935         108.388         9.27377 
        1.99499         106.342         9.09341 
        2.01064         104.688         8.91757 
         2.0264         103.686         8.74525 
        2.04216         101.806         8.57755 
        2.05781         100.506         8.41528 
        2.07353         99.5988          8.2566 
        2.08928         97.8942         8.10165 
        2.10499          97.344         7.95107 
        2.12065         95.8084         7.80475 
        2.13633         94.6849         7.66197 
        2.15211         93.1134         7.52182 
        2.16785         92.1602         7.38555 
        2.18349         90.7791         7.25349 
        2.19916         90.3825         7.12436 
        2.21489         88.6618         6.99794 
        2.23063         87.3056         6.87447 
         2.2463         86.4101         6.75453 
        2.26194         85.4694         6.63773 
        2.27765         84.5912         6.52308 
        2.29341         83.2696         6.41083 
        2.30914         82.2809         6.30143 
        2.32486         81.4032         6.19463 
        2.34061         80.1531         6.09012 
        2.35635         79.4387          5.9881 
        2.37203           78.04         5.88875 
        2.38768         77.1645         5.79186 
        2.40339          76.193         5.69678 
        2.41914         75.4016          5.6036 
        2.43483         74.5455         5.51282 
         2.4505         73.5453         5.42419 
        2.46622         72.6843          5.3372 
        2.48195         71.8976          5.2521 
        2.49759         70.7517         5.16929 
        2.51328         70.2983         5.08805 
        2.52906         69.3645         5.00803 
        2.54479         68.3576         4.93002 
        2.56049         67.2443         4.85381 
        2.57618         66.6877         4.77927 
        2.59189         65.6547         4.70617 
        2.60758         64.6709         4.63471 
        2.62325          64.075         4.56481 
        2.63898          63.658         4.49609 
        2.65468         62.8274         4.42893 
        2.67044         61.9544         4.36285 
        2.68618         61.0902         4.29826 
        2.70184          60.595         4.23522 
        2.71755         59.8686         4.17329 
        2.73329         59.1532         4.11249 
        2.74897          58.653          4.0531 
        2.76462         57.9052           3.995 
        2.78034         56.9833         3.93779 
        2.79607          56.348         3.88164 
        2.81179         55.8428         3.82664 
        2.82749         55.5104         3.77276 
        2.84321         54.4747         3.71985 
        2.85893          53.985         3.66797 
        2.87462         53.6214         3.61716 
        2.89033         52.6687         3.56725 
        2.90605         52.1725         3.51825 
        2.92176          51.647         3.47018 
        2.93747         51.2248         3.42303 
        2.95318         50.5442         3.37673 
        2.96891         49.9293         3.33127 
        2.98456         49.2812         3.28684 
        3.00023         48.8503         3.24316 
        3.01596         48.3413         3.20012 
        3.03164         47.7567         3.15799 
        3.04738         47.4511         3.11648 
         3.0631         46.7052         3.07573 
        3.07883         46.2272         3.03571 
        3.09456         45.6671         2.99639 
        3.11026         45.3399         2.95783 
        3.12596         44.7457         2.91995 
        3.14163         44.2295         2.88282 
        3.15734          43.632         2.84624 
        3.17308         43.1663          2.8102 
        3.18879         42.8335         2.77488 
        3.20447         42.4678         2.74022 
         3.2202         41.9311         2.70603 
         3.2359         41.3518         2.67249 
        3.25157         41.1831         2.63959 
        3.26729         40.7348         2.60714 
        3.28304         40.1547         2.57518 
        3.29877         39.8185         2.54378 
        3.31446         39.2773         2.51298 
        3.33014         38.9271          2.4827 
        3.34585         38.5363         2.45288 
        3.36158         38.1951          2.4235 
        3.37727          37.753         2.39469 
        3.39294         37.3427         2.36637 
        3.40867          36.947         2.33841 
        3.42439         36.6208         2.31091 
        3.44008         36.2909          2.2839 
        3.45578         35.8349          2.2573 
        3.47153         35.3814         2.23106 
        3.48724         35.1442         2.20528 
        3.50292         34.8202         2.17997 
        3.51859         34.3636         2.15507 
        3.53431         33.9363         2.13047 
        3.55007         33.7019          2.1062 
        3.56577         33.4318         2.08239 
        3.58146         33.0161         2.05897 
        3.59719         32.7662         2.03584 
        3.61292         32.3552         2.01308 
        3.62859         32.0704         1.99075 
        3.64429         31.7452         1.96871 
        3.66003         31.4711         1.94694 
        3.67578         31.1932          1.9255 
        3.69146         30.7918         1.90447 
        3.70712         30.6125         1.88378 
        3.72284         30.2839         1.86332 
        3.73853          29.953          1.8432 
        3.75422         29.6396         1.82337 
        3.76993         29.4503         1.80381 
        3.78564         29.1127         1.78454 
        3.80137         28.9225         1.76552 
        3.81707         28.4768         1.74682 
        3.83279         28.3217         1.72837 
        3.84853         28.0277         1.71016 
        3.86424         27.7277         1.69224 
        3.87992         27.5026          1.6746 
        3.89561          27.311         1.65722 
        3.91134         27.0453         1.64004 
        3.92704         26.7816         1.62312 
        3.94273         26.5532         1.60646 
        3.95845         26.2722            1.59 
        3.97418         26.0646         1.57376 
        3.98988         25.7618         1.55778 
        4.00554         25.5379         1.54205 
        4.02125         25.3211          1.5265 
        4.03698          25.054         1.51114 
        4.05268         24.8707         1.49602 
        4.06839          24.608         1.48109 
         4.0841          24.373         1.46637 
        4.09983         24.1575         1.45183 
        4.11555         23.8775          1.4375 
        4.13124         23.7263         1.42339 
        4.14693         23.5087         1.40946 
        4.16266         23.3111         1.39568 
        4.17839         23.0344          1.3821 
        4.19408         22.8486         1.36872 
        4.20977         22.6884         1.35552 
        4.22551         22.4103         1.34245 
        4.24123         22.1791         1.32957 
        4.25691         22.0775          1.3169 
        4.27259         21.8725         1.30438 
        4.28831          21.676           1.292 
        4.30404         21.4331         1.27977 
        4.31974         21.3135         1.26772 
        4.33543         21.0726         1.25583 
        4.35116         20.9631         1.24407 
        4.36688         20.7176         1.23246 
        4.38255         20.5334         1.22104 
        4.39825         20.3688         1.20973 
        4.41398          20.245         1.19855 
         4.4297         20.0608         1.18752 
        4.44541         19.8864         1.17664 
        4.46111         19.6637         1.16589 
        4.47683         19.5544         1.15527 
        4.49251         19.3547          1.1448 
        4.50819         19.2387         1.13447 
         4.5239         18.9757         1.12424 
        4.53962         18.8794         1.11413 
        4.55535         18.7323         1.10414 
        4.57106         18.5632         1.09429 
        4.58678         18.3645         1.08455 
         4.6025         18.2544         1.07492 
        4.61821          18.053         1.06542 
        4.63391         17.9424         1.05604 
         4.6496         17.7985         1.04677 
        4.66532         17.6552         1.03761 
        4.68103         17.5393         1.02855 
        4.69673         17.3548         1.01961 
        4.71241         17.2035         1.01079 
        4.72811         17.0812         1.00206 
        4.74384           16.96        0.993413 
        4.75955         16.7599        0.984884 
        4.77525         16.6466         0.97646 
        4.79096         16.5036        0.968123 
        4.80669          16.391        0.959878 
         4.8224         16.2396        0.951739 
        4.83809         16.1044        0.943701 
        4.85379          15.994        0.935751 
         4.8695         15.8728        0.927886 
        4.88521         15.6981        0.920113 
        4.90093          15.587        0.912428 
        4.91663         15.4691        0.904837 
        4.93234         15.3344        0.897324 
        4.94807         15.2414         0.88989 
        4.96377         15.0635        0.882554 
        4.97943         14.9781        0.875316 
        4.99514         14.8748         0.86814 
        5.01086         14.7477        0.861038 
        5.02654         14.6481        0.854033 
        5.04227         14.5145        0.847085 
          5.058         14.3937         0.84021 
        5.07371          14.258        0.833425 
        5.08942         14.1612        0.826713 
        5.10513         14.0502        0.820074 
        5.12084         13.9344        0.813503 
        5.13656         13.8472        0.807006 
        5.15225         13.7578         0.80059 
        5.16796         13.6627        0.794234 
        5.18369         13.5425         0.78794 
         5.1994         13.4171        0.781725 
        5.21509         13.3372        0.775582 
        5.23079          13.246        0.769498 
        5.24649         13.0932        0.763483 
        5.26217         13.0199        0.757536 
        5.27788         12.8813        0.751644 
        5.29359         12.8287        0.745813 
        5.30933         12.7202        0.740035 
        5.32504         12.6139        0.734328 
        5.34073         12.5204        0.728686 
        5.35646         12.4408        0.723092 
        5.37218         12.2974        0.717556 
        5.38789          12.278        0.712085 
        5.40357          12.178        0.706678 
        5.41929          12.068        0.701315 
        5.43502         11.9705        0.696006 
         5.4507         11.8949        0.690764 
        5.46639         11.7986        0.685576 
        5.48212          11.718        0.680428 
        5.49786         11.6121        0.675326 
        5.51353         11.5513        0.670302 
        5.52921         11.4758        0.665324 
        5.54495         11.3792        0.660381 
        5.56066         11.2696        0.655493 
        5.57637         11.2287        0.650655 
        5.59207         11.1549         0.64587 
        5.60778         11.0437        0.641131 
        5.62346         10.9638        0.636446 
        5.63916          10.883        0.631802 
        5.65487         10.8076        0.627203 
         5.6706         10.7215        0.622643 
        5.68633         10.6593        0.618127 
        5.70203         10.5902        0.613665 
        5.71773         10.5008        0.609247 
        5.73344         10.4248         0.60487 
        5.74916         10.3543        0.600531 
        5.76486         10.2774        0.596241 
        5.78054         10.1863        0.591999 
        5.79626         10.1399        0.587786 
          5.812         10.0708         0.58361 
         5.8277         10.0189        0.579486 
        5.84339         9.94167        0.575402 
        5.85911         9.84979        0.571349 
        5.87484         9.75969        0.567336 
        5.89053         9.71502        0.563368 
        5.90623         9.64122        0.559437 
        5.92195         9.57949        0.555536 
        5.93767         9.50812        0.551674 
        5.95336          9.4279        0.547855 
        5.96905         9.34916        0.544073 
        5.98476         9.30405        0.540322 
        6.00048         9.22144        0.536604 
        6.01617         9.18901        0.532926 
        6.03185          9.1119        0.529287 
        6.04756         9.04117        0.525672 
        6.06331         8.98721        0.522084 
        6.07903         8.92666        0.518536 
        6.09473         8.88082        0.515025 
        6.11044         8.80706        0.511542 
        6.12616         8.75995        0.508093 
        6.14186         8.67508        0.504678 
        6.15755         8.62513        0.501294 
        6.17326         8.57393        0.497939 
        6.18898         8.49986        0.494612 
        6.20467         8.45835        0.491322 
        6.22036         8.38874        0.488062 
         6.2361         8.33414        0.484822 
         6.2518         8.28376        0.481617 
        6.26748         8.22312        0.478448 
        6.28319         8.16562        0.475298 
        6.29893         8.10762        0.472173 
        6.31463         8.05891        0.469082 
        6.33033         8.01687         0.46602 
        6.34604         7.93728        0.462982 
        6.36177         7.89718        0.459968 
        6.37747          7.8517        0.456987 
