# k  (h/Mpc)    Pcb(k)  (Mpc/h)^3    Pcb_linear(k) (Mpc/h)^3   ShotnoiseSubtracted = true
      0.0200456         5540.85         5622.36 
      0.0350414         3717.48         3777.61 
      0.0492313         2546.85         2540.55 
      0.0637834         2087.38          2037.6 
      0.0800726         1672.28          1645.9 
       0.096163         1158.69         1170.79 
       0.111083          869.91          875.49 
       0.126058         773.949         756.106 
       0.142273         686.411         666.253 
       0.158546         558.378         529.339 
        0.17375         433.444         421.268 
       0.188953         398.434         368.936 
       0.204907         377.217         336.639 
       0.220756         319.494         291.409 
        0.23588          273.36         245.319 
         0.2514         235.724         214.487 
       0.267535         222.237         196.067 
       0.283568         202.192         177.049 
       0.299022         184.026         155.878 
       0.314451         164.367         138.496 
       0.330372         151.855         126.407 
       0.346141         136.985         116.383 
       0.361624         129.083         105.824 
       0.377134         120.258         95.8304 
       0.392932         107.767         87.7935 
       0.408854         103.322         81.2556 
       0.424564         98.4675         75.1202 
       0.440253         91.5271         69.1689 
       0.455999         85.4692         63.9082 
       0.471626         79.1745          59.505 
        0.48727         76.0504          55.547 
       0.502856          72.126         51.7987 
       0.518488         69.2039         48.3246 
       0.534347         66.3444         45.1971 
       0.550082          60.709         42.4219 
       0.565732         57.4602         39.8661 
       0.581496         55.5633         37.4628 
       0.597222         53.5486         35.2652 
       0.612804          50.412          33.285 
       0.628434         48.9132         31.4542 
       0.644267         47.2853         29.7292 
       0.660051         45.4331          28.129 
       0.675724         43.2378          26.662 
       0.691403         41.8613         25.3042 
       0.707174         40.4113         24.0332 
       0.722871         39.0291         22.8534 
        0.73838         37.8095         21.7644 
       0.754018         35.9334         20.7373 
       0.769845         35.0235         19.7645 
        0.78569         34.0083         18.8526 
       0.801365         32.6544         18.0067 
       0.817031         31.8597         17.2128 
       0.832809          31.224         16.4616 
       0.848511         29.4325         15.7583 
       0.864097         28.8953         15.1009 
       0.879701         28.2085         14.4804 
       0.895507         27.6938         13.8874 
       0.911279         26.7156         13.3287 
        0.92691          26.117         12.8054 
       0.942635         25.0378         12.3073 
       0.958396         24.7654         11.8346 
       0.974128          23.972         11.3876 
       0.989692         23.6155          10.968 
        1.00528         23.0432         10.5689 
        1.02113         22.2028         10.1833 
        1.03692         21.6797          9.8184 
        1.05264         21.4326         9.47299 
        1.06832         20.7092         9.14468 
        1.08405         20.2968         8.83101 
        1.09979         19.8858         8.53182 
        1.11537         19.3766          8.2494 
        1.13105         19.1942         7.97804 
        1.14679         18.8692          7.7178 
        1.16256         18.1784         7.46863 
        1.17828         17.9885         7.23123 
        1.19395         17.5395         7.00492 
         1.2097         17.3644         6.78711 
        1.22537          17.005         6.57957 
          1.241         16.5852         6.38131 
        1.25666         16.1682          6.1907 
        1.27241         15.8908         6.00695 
        1.28819         15.5217         5.83033 
        1.30392         15.3767         5.66129 
        1.31957         15.1961         5.49969 
        1.33529         14.9535         5.34378 
        1.35108         14.5923         5.19328 
        1.36674         14.3798         5.04963 
         1.3824         14.0449         4.91152 
        1.39811         13.8737          4.7781 
        1.41389         13.7193         4.64911 
        1.42964         13.4195         4.52509 
        1.44531         13.3488         4.40617 
        1.46101         12.9599         4.29126 
        1.47667         12.7995         4.18078 
        1.49229         12.6464         4.07446 
        1.50793         12.4691         3.97171 
        1.52367         12.2713         3.87182 
        1.53953         12.1227         3.77469 
        1.55526         11.9012         3.68165 
        1.57092         11.6663         3.59211 
        1.58662         11.5986         3.50533 
        1.60235         11.3961         3.42124 
        1.61809         11.2433         3.33985 
        1.63369         11.0947         3.26182 
        1.64941         10.8819         3.18571 
        1.66519         10.8112         3.11175 
        1.68085         10.6333         3.04065 
        1.69652         10.4841         2.97174 
        1.71228         10.3596         2.90456 
        1.72806         10.2378          2.8394 
        1.74368         10.0731         2.77689 
        1.75933         9.96491         2.71612 
        1.77505         9.85076         2.65687 
        1.79081         9.68148         2.59928 
         1.8065         9.62717         2.54364 
        1.82218         9.42582         2.48967 
        1.83797          9.3099         2.43688 
        1.85367         9.20756         2.38591 
        1.86928         9.15323          2.3367 
        1.88497         8.98977         2.28859 
        1.90073         8.96616         2.24166 
        1.91647         8.81168         2.19608 
        1.93218         8.74057         2.15186 
        1.94787         8.62486         2.10892 
        1.96363         8.54878         2.06697 
        1.97935         8.41521         2.02624 
        1.99499         8.28212         1.98683 
        2.01064         8.22846         1.94841 
         2.0264         8.14747         1.91076 
        2.04216         8.04342         1.87412 
        2.05781         7.91623         1.83867 
        2.07353         7.87631           1.804 
        2.08928         7.77773         1.77014 
        2.10499         7.70835         1.73724 
        2.12065         7.59802         1.70527 
        2.13633         7.57872         1.67408 
        2.15211         7.44605         1.64345 
        2.16785         7.39794         1.61368 
        2.18349         7.34398         1.58483 
        2.19916          7.2558         1.55661 
        2.21489         7.17412         1.52899 
        2.23063         7.08843         1.50201 
         2.2463         7.00844         1.47581 
        2.26194          6.9363         1.45029 
        2.27765         6.91139         1.42524 
        2.29341         6.81911         1.40071 
        2.30914         6.70986         1.37681 
        2.32486         6.67098         1.35348 
        2.34061         6.61862         1.33064 
        2.35635         6.55005         1.30835 
        2.37203         6.51581         1.28664 
        2.38768         6.37579         1.26547 
        2.40339         6.36029          1.2447 
        2.41914         6.27771         1.22434 
        2.43483         6.25968          1.2045 
         2.4505         6.19571         1.18514 
        2.46622         6.12161         1.16613 
        2.48195         6.08094         1.14754 
        2.49759         6.01301         1.12945 
        2.51328         5.96022          1.1117 
        2.52906         5.92123         1.09421 
        2.54479         5.85206         1.07717 
        2.56049         5.83586         1.06052 
        2.57618         5.77501         1.04423 
        2.59189         5.69001         1.02826 
        2.60758         5.68118         1.01264 
        2.62325         5.61417        0.997371 
        2.63898         5.53736        0.982359 
        2.65468         5.46945        0.967685 
        2.67044         5.45465        0.953246 
        2.68618         5.39981        0.939133 
        2.70184         5.36969        0.925361 
        2.71755         5.31579        0.911829 
        2.73329         5.25583        0.898545 
        2.74897         5.23348        0.885567 
        2.76462         5.20201        0.872873 
        2.78034         5.12291        0.860374 
        2.79607         5.09913        0.848106 
        2.81179         5.05362        0.836088 
        2.82749         5.02843        0.824316 
        2.84321         4.99281        0.812756 
        2.85893         4.94983         0.80142 
        2.87462         4.89646        0.790318 
        2.89033         4.85136        0.779415 
        2.90605         4.80593        0.768707 
        2.92176         4.77551        0.758204 
        2.93747         4.73983        0.747902 
        2.95318         4.71133        0.737788 
        2.96891         4.66335        0.727855 
        2.98456         4.60536        0.718148 
        3.00023         4.57873        0.708602 
        3.01596          4.5499          0.6992 
        3.03164         4.52677        0.689993 
        3.04738         4.49436        0.680925 
         3.0631         4.44293        0.672022 
        3.07883         4.41676        0.663276 
        3.09456         4.37321        0.654687 
        3.11026         4.34972        0.646261 
        3.12596         4.32116        0.637985 
        3.14163         4.27649        0.629871 
        3.15734          4.2492        0.621878 
        3.17308         4.21115        0.614005 
        3.18879         4.18115        0.606288 
        3.20447         4.16404        0.598714 
         3.2202         4.10509        0.591245 
         3.2359         4.09187        0.583916 
        3.25157         4.05929        0.576729 
        3.26729         4.04444        0.569639 
        3.28304         4.00086        0.562654 
        3.29877         3.97187        0.555795 
        3.31446         3.94046        0.549064 
        3.33014          3.9177         0.54245 
        3.34585         3.90232        0.535934 
        3.36158          3.8489        0.529514 
        3.37727         3.84056         0.52322 
        3.39294         3.81727        0.517032 
        3.40867         3.77359        0.510922 
        3.42439         3.75963        0.504913 
        3.44008         3.72508        0.499012 
        3.45578         3.69479        0.493201 
        3.47153         3.67029        0.487468 
        3.48724         3.64329        0.481836 
        3.50292         3.62626        0.476306 
        3.51859         3.59807        0.470864 
        3.53431         3.56926         0.46549 
        3.55007         3.54808        0.460186 
        3.56577         3.52747        0.454986 
        3.58146         3.50991        0.449867 
        3.59719         3.47628        0.444815 
        3.61292         3.46093        0.439841 
        3.62859         3.43278        0.434962 
        3.64429         3.40521        0.430147 
        3.66003         3.37936         0.42539 
        3.67578         3.36624        0.420706 
        3.69146         3.32429         0.41611 
        3.70712         3.31894         0.41159 
        3.72284          3.2932         0.40712 
        3.73853         3.26559        0.402724 
        3.75422         3.24413        0.398391 
        3.76993         3.23149        0.394117 
        3.78564         3.20917        0.389907 
        3.80137         3.19548        0.385752 
        3.81707         3.16616        0.381666 
        3.83279         3.13893        0.377635 
        3.84853         3.12193        0.373655 
        3.86424         3.09466         0.36974 
        3.87992         3.07888        0.365887 
        3.89561         3.07281        0.362087 
        3.91134         3.03276        0.358334 
        3.92704         3.01961        0.354638 
        3.94273         3.00005        0.350998 
        3.95845         2.98165        0.347401 
        3.97418         2.95998        0.343854 
        3.98988         2.94687        0.340361 
        4.00554         2.92437        0.336925 
        4.02125          2.9082        0.333527 
        4.03698         2.88096         0.33017 
        4.05268         2.86113        0.326867 
        4.06839         2.84786        0.323606 
         4.0841         2.82454         0.32039 
        4.09983         2.80128        0.317214 
        4.11555         2.78199        0.314081 
        4.13124         2.76402        0.310999 
        4.14693         2.74731        0.307955 
        4.16266         2.73119        0.304945 
        4.17839         2.70862        0.301977 
        4.19408         2.68622        0.299054 
        4.20977         2.67562        0.296169 
        4.22551         2.65293        0.293314 
        4.24123         2.63631          0.2905 
        4.25691         2.62232        0.287731 
        4.27259         2.61007        0.284996 
        4.28831         2.58775        0.282291 
        4.30404         2.57289        0.279618 
        4.31974           2.553        0.276986 
        4.33543         2.53615        0.274388 
        4.35116         2.52386        0.271818 
        4.36688         2.50568        0.269281 
        4.38255         2.49229        0.266786 
        4.39825         2.47349        0.264317 
        4.41398         2.46561        0.261874 
         4.4297         2.44506        0.259464 
        4.44541         2.43714        0.257085 
        4.46111         2.41648        0.254737 
        4.47683         2.39335        0.252417 
        4.49251         2.39174         0.25013 
        4.50819         2.37072        0.247872 
         4.5239         2.35813        0.245638 
        4.53962         2.34907        0.243429 
        4.55535          2.3289        0.241246 
        4.57106         2.31883        0.239092 
        4.58678         2.30325        0.236964 
         4.6025         2.28966        0.234862 
        4.61821         2.27944        0.232785 
        4.63391         2.26451        0.230735 
         4.6496         2.25197        0.228711 
        4.66532         2.23434        0.226708 
        4.68103         2.21978         0.22473 
        4.69673         2.21021        0.222777 
        4.71241         2.19422        0.220849 
        4.72811         2.18581        0.218941 
        4.74384         2.17456        0.217052 
        4.75955         2.16488        0.215189 
        4.77525         2.15341        0.213348 
        4.79096         2.13524        0.211527 
        4.80669         2.12205        0.209725 
         4.8224         2.11618        0.207947 
        4.83809          2.1047        0.206191 
        4.85379         2.09576        0.204454 
         4.8695         2.08287        0.202735 
        4.88521         2.06527        0.201037 
        4.90093         2.06022        0.199358 
        4.91663         2.04627        0.197699 
        4.93234          2.0351        0.196058 
        4.94807         2.02718        0.194434 
        4.96377         2.01286        0.192831 
        4.97943         2.00431        0.191249 
        4.99514         1.98907        0.189681 
        5.01086         1.98112        0.188129 
        5.02654         1.96726        0.186599 
        5.04227         1.96599        0.185081 
          5.058         1.95177        0.183579 
        5.07371         1.94303        0.182096 
        5.08942         1.93018         0.18063 
        5.10513         1.92254        0.179179 
        5.12084         1.91132        0.177744 
        5.13656         1.90181        0.176324 
        5.15225         1.88821        0.174922 
        5.16796         1.87951        0.173533 
        5.18369         1.86842        0.172158 
         5.1994         1.86644          0.1708 
        5.21509         1.85391        0.169458 
        5.23079         1.84413        0.168129 
        5.24649         1.83669        0.166815 
        5.26217         1.82838        0.165515 
        5.27788         1.81631        0.164228 
        5.29359         1.80745        0.162954 
        5.30933         1.79935        0.161691 
        5.32504         1.78746        0.160444 
        5.34073         1.77968        0.159212 
        5.35646         1.76967         0.15799 
        5.37218          1.7615         0.15678 
        5.38789         1.75718        0.155585 
        5.40357         1.74707        0.154403 
        5.41929         1.74024        0.153231 
        5.43502          1.7347        0.152071 
         5.4507         1.72562        0.150926 
        5.46639         1.71597        0.149793 
        5.48212         1.70858        0.148668 
        5.49786         1.70048        0.147553 
        5.51353         1.69242        0.146455 
        5.52921         1.68111        0.145368 
        5.54495         1.67666        0.144288 
        5.56066         1.67019         0.14322 
        5.57637         1.65957        0.142163 
        5.59207         1.65446        0.141117 
        5.60778         1.65171        0.140082 
        5.62346         1.64056        0.139058 
        5.63916         1.62978        0.138043 
        5.65487         1.62302        0.137039 
         5.6706         1.61557        0.136042 
        5.68633         1.61282        0.135056 
        5.70203         1.59889        0.134081 
        5.71773         1.59421        0.133115 
        5.73344          1.5897        0.132159 
        5.74916         1.57918        0.131211 
        5.76486         1.57561        0.130274 
        5.78054         1.56525        0.129347 
        5.79626         1.56307        0.128426 
          5.812         1.55349        0.127514 
         5.8277          1.5474        0.126613 
        5.84339         1.53912         0.12572 
        5.85911         1.53383        0.124835 
        5.87484         1.52675        0.123958 
        5.89053         1.52092        0.123091 
        5.90623          1.5175        0.122232 
        5.92195         1.50975         0.12138 
        5.93767         1.50511        0.120536 
        5.95336         1.49405        0.119702 
        5.96905         1.48897        0.118875 
        5.98476         1.47993        0.118056 
        6.00048         1.47596        0.117243 
        6.01617         1.46921         0.11644 
        6.03185         1.46582        0.115645 
        6.04756         1.45831        0.114855 
        6.06331         1.45367        0.114071 
        6.07903         1.44832        0.113296 
        6.09473         1.44449        0.112529 
        6.11044         1.43482        0.111768 
        6.12616         1.43233        0.111014 
        6.14186         1.42445        0.110268 
        6.15755         1.41767        0.109529 
        6.17326         1.41583        0.108795 
        6.18898         1.40732        0.108069 
        6.20467           1.401         0.10735 
        6.22036         1.39577        0.106637 
         6.2361         1.39103         0.10593 
         6.2518         1.38658        0.105229 
        6.26748          1.3803        0.104537 
        6.28319         1.37451        0.103849 
        6.29893         1.37326        0.103166 
        6.31463          1.3641        0.102491 
        6.33033          1.3586        0.101821 
        6.34604         1.35229        0.101158 
        6.36177         1.34895        0.100499 
        6.37747         1.34526       0.0998477 
