# k  (h/Mpc)    Pcb(k)  (Mpc/h)^3    Pcb_linear(k) (Mpc/h)^3   ShotnoiseSubtracted = true
      0.0200456         178.644         180.847 
      0.0350414         121.769         121.509 
      0.0492313          82.232         81.7183 
      0.0637834         66.0683         65.5405 
      0.0800726         52.9356         52.9414 
       0.096163         37.7051         37.6591 
       0.111083         28.2542         28.1607 
       0.126058         24.4052         24.3206 
       0.142273         21.4118         21.4304 
       0.158546          17.088         17.0265 
        0.17375         13.5747         13.5503 
       0.188953         11.9106          11.867 
       0.204907         10.9301         10.8282 
       0.220756         9.39829         9.37335 
        0.23588         7.93929         7.89081 
         0.2514         6.92371          6.8991 
       0.267535         6.31739          6.3066 
       0.283568         5.70343         5.69487 
       0.299022         5.04304          5.0139 
       0.314451         4.44545         4.45482 
       0.330372         4.07242         4.06597 
       0.346141         3.74488         3.74354 
       0.361624         3.41419         3.40389 
       0.377134         3.10565         3.08244 
       0.392932         2.80052         2.82393 
       0.408854         2.62839         2.61364 
       0.424564         2.41476         2.41628 
       0.440253         2.22857         2.22486 
       0.455999         2.06827         2.05564 
       0.471626         1.93049         1.91401 
        0.48727         1.79091          1.7867 
       0.502856         1.66488         1.66613 
       0.518488         1.56964         1.55439 
       0.534347         1.47648         1.45379 
       0.550082         1.36606         1.36452 
       0.565732         1.27051         1.28232 
       0.581496         1.21091         1.20501 
       0.597222         1.14241         1.13433 
       0.612804         1.07351         1.07063 
       0.628434         1.02191         1.01174 
       0.644267        0.961103        0.956257 
       0.660051        0.906411        0.904786 
       0.675724        0.861873          0.8576 
       0.691403        0.820874        0.813925 
       0.707174        0.776644        0.773042 
       0.722871        0.734817        0.735092 
        0.73838        0.704814        0.700064 
       0.754018        0.675159        0.667026 
       0.769845         0.64144        0.635737 
        0.78569        0.610662        0.606406 
       0.801365        0.581752        0.579195 
       0.817031        0.557357        0.553661 
       0.832809        0.532881        0.529496 
       0.848511         0.50867        0.506876 
       0.864097        0.485131         0.48573 
       0.879701        0.464826         0.46577 
       0.895507        0.449251        0.446695 
       0.911279        0.431453        0.428727 
        0.92691         0.41318        0.411895 
       0.942635         0.39755        0.395872 
       0.958396        0.380879        0.380667 
       0.974128        0.366249        0.366288 
       0.989692        0.354012        0.352791 
        1.00528        0.341615        0.339953 
        1.02113        0.326188        0.327552 
        1.03692        0.316206        0.315815 
        1.05264        0.305207        0.304704 
        1.06832         0.29484        0.294144 
        1.08405        0.282924        0.284055 
        1.09979        0.273296        0.274431 
        1.11537        0.266322        0.265347 
        1.13105        0.257085        0.256618 
        1.14679        0.249664        0.248248 
        1.16256        0.239254        0.240233 
        1.17828        0.231583        0.232597 
        1.19395        0.223919        0.225317 
         1.2097        0.216395        0.218311 
        1.22537         0.21172        0.211636 
          1.241        0.204615        0.205259 
        1.25666        0.199451        0.199128 
        1.27241        0.192353        0.193217 
        1.28819        0.186527        0.187536 
        1.30392        0.181156        0.182099 
        1.31957        0.176188        0.176901 
        1.33529        0.170568        0.171886 
        1.35108        0.165651        0.167045 
        1.36674        0.159923        0.162424 
         1.3824        0.157515        0.157982 
        1.39811        0.152296        0.153691 
        1.41389        0.148338        0.149542 
        1.42964        0.144809        0.145552 
        1.44531        0.139816        0.141727 
        1.46101        0.136663        0.138031 
        1.47667        0.132222        0.134477 
        1.49229        0.129595        0.131057 
        1.50793        0.125597        0.127752 
        1.52367        0.122792        0.124539 
        1.53953        0.119925        0.121415 
        1.55526         0.11689        0.118422 
        1.57092        0.113107        0.115542 
        1.58662        0.111027        0.112751 
        1.60235        0.108725        0.110046 
        1.61809        0.104928        0.107428 
        1.63369        0.103343        0.104918 
        1.64941         0.10077         0.10247 
        1.66519       0.0979774        0.100091 
        1.68085       0.0955656       0.0978043 
        1.69652       0.0932208       0.0955877 
        1.71228       0.0916858        0.093427 
        1.72806       0.0887333       0.0913311 
        1.74368       0.0873343       0.0893202 
        1.75933       0.0853785       0.0873655 
        1.77505       0.0832463       0.0854599 
        1.79081       0.0817473       0.0836075 
         1.8065       0.0793938       0.0818176 
        1.82218       0.0779121       0.0800815 
        1.83797       0.0760949       0.0783837 
        1.85367       0.0744811       0.0767442 
        1.86928       0.0731206       0.0751612 
        1.88497       0.0717039        0.073614 
        1.90073       0.0698987       0.0721044 
        1.91647       0.0682961       0.0706383 
        1.93218       0.0668826       0.0692159 
        1.94787       0.0653969       0.0678346 
        1.96363       0.0642621       0.0664852 
        1.97935       0.0626921       0.0651752 
        1.99499       0.0616372       0.0639077 
        2.01064       0.0604957       0.0626719 
         2.0264       0.0592652       0.0614608 
        2.04216        0.058051       0.0602822 
        2.05781       0.0569669       0.0591418 
        2.07353       0.0554532       0.0580267 
        2.08928        0.054507       0.0569377 
        2.10499       0.0532992       0.0558794 
        2.12065       0.0526113       0.0548511 
        2.13633       0.0512275       0.0538476 
        2.15211        0.050703       0.0528627 
        2.16785       0.0496084        0.051905 
        2.18349       0.0483765       0.0509769 
        2.19916       0.0479069       0.0500694 
        2.21489       0.0470273       0.0491809 
        2.23063       0.0460823       0.0483132 
         2.2463       0.0450672       0.0474702 
        2.26194       0.0441752       0.0466494 
        2.27765       0.0433888       0.0458436 
        2.29341       0.0428229       0.0450547 
        2.30914       0.0418776       0.0442859 
        2.32486       0.0411489       0.0435353 
        2.34061       0.0404894       0.0428008 
        2.35635       0.0396632       0.0420838 
        2.37203        0.039062       0.0413856 
        2.38768       0.0382893       0.0407046 
        2.40339       0.0376097       0.0400364 
        2.41914       0.0371175       0.0393816 
        2.43483       0.0363065       0.0387436 
         2.4505       0.0356385       0.0381207 
        2.46622       0.0351018       0.0375093 
        2.48195       0.0344107       0.0369113 
        2.49759       0.0340444       0.0363293 
        2.51328       0.0335258       0.0357583 
        2.52906       0.0328987        0.035196 
        2.54479       0.0323422       0.0346477 
        2.56049       0.0317896       0.0341121 
        2.57618       0.0312913       0.0335882 
        2.59189       0.0308024       0.0330745 
        2.60758       0.0303803       0.0325723 
        2.62325       0.0297959        0.032081 
        2.63898       0.0293309       0.0315981 
        2.65468       0.0287359       0.0311261 
        2.67044       0.0285156       0.0306617 
        2.68618       0.0279521       0.0302078 
        2.70184       0.0275138       0.0297648 
        2.71755       0.0269964       0.0293295 
        2.73329       0.0266575       0.0289022 
        2.74897        0.026317       0.0284848 
        2.76462       0.0258232       0.0280765 
        2.78034       0.0254847       0.0276744 
        2.79607       0.0251041       0.0272798 
        2.81179       0.0247432       0.0268933 
        2.82749       0.0242841       0.0265146 
        2.84321       0.0239779       0.0261428 
        2.85893       0.0236034       0.0257781 
        2.87462        0.023334        0.025421 
        2.89033       0.0229694       0.0250703 
        2.90605       0.0225409       0.0247259 
        2.92176         0.02232       0.0243881 
        2.93747       0.0219759       0.0240567 
        2.95318       0.0215934       0.0237314 
        2.96891       0.0213532       0.0234119 
        2.98456       0.0211165       0.0230996 
        3.00023       0.0207241       0.0227926 
        3.01596       0.0203696       0.0224902 
        3.03164       0.0202151        0.022194 
        3.04738       0.0199045       0.0219024 
         3.0631       0.0195381        0.021616 
        3.07883       0.0192827       0.0213347 
        3.09456       0.0191273       0.0210584 
        3.11026       0.0187826       0.0207874 
        3.12596       0.0186191       0.0205211 
        3.14163       0.0183381       0.0202602 
        3.15734       0.0180856       0.0200031 
        3.17308       0.0178365       0.0197498 
        3.18879       0.0175785       0.0195016 
        3.20447       0.0174191        0.019258 
         3.2202       0.0171699       0.0190178 
         3.2359       0.0169726        0.018782 
        3.25157       0.0167094       0.0185508 
        3.26729       0.0165392       0.0183228 
        3.28304       0.0163108       0.0180981 
        3.29877       0.0161222       0.0178775 
        3.31446       0.0158848        0.017661 
        3.33014       0.0156857       0.0174482 
        3.34585       0.0155268       0.0172386 
        3.36158       0.0152742       0.0170321 
        3.37727       0.0151447       0.0168297 
        3.39294       0.0149615       0.0166306 
        3.40867       0.0148073       0.0164341 
        3.42439       0.0146235       0.0162408 
        3.44008       0.0144402        0.016051 
        3.45578       0.0142945       0.0158641 
        3.47153       0.0141041       0.0156797 
        3.48724       0.0140226       0.0154985 
        3.50292        0.013754       0.0153207 
        3.51859         0.01359       0.0151456 
        3.53431       0.0135109       0.0149728 
        3.55007       0.0133523       0.0148022 
        3.56577       0.0132437       0.0146349 
        3.58146        0.013011       0.0144702 
        3.59719       0.0129237       0.0143077 
        3.61292        0.012722       0.0141478 
        3.62859       0.0126043       0.0139908 
        3.64429       0.0125167       0.0138359 
        3.66003       0.0123636       0.0136829 
        3.67578       0.0122193       0.0135323 
        3.69146       0.0121358       0.0133844 
        3.70712       0.0120185        0.013239 
        3.72284       0.0118566       0.0130953 
        3.73853        0.011734       0.0129539 
        3.75422       0.0116795       0.0128145 
        3.76993       0.0115108        0.012677 
        3.78564       0.0114374       0.0125416 
        3.80137       0.0113118       0.0124079 
        3.81707       0.0111757       0.0122765 
        3.83279       0.0110897       0.0121468 
        3.84853       0.0109852       0.0120188 
        3.86424       0.0108622       0.0118929 
        3.87992       0.0107809        0.011769 
        3.89561       0.0106998       0.0116468 
        3.91134        0.010616        0.011526 
        3.92704       0.0104722       0.0114071 
        3.94273       0.0103857         0.01129 
        3.95845       0.0102743       0.0111744 
        3.97418       0.0102056       0.0110603 
        3.98988       0.0100994       0.0109479 
        4.00554      0.00997813       0.0108374 
        4.02125      0.00986245       0.0107281 
        4.03698      0.00976373       0.0106201 
        4.05268      0.00962562       0.0105139 
        4.06839      0.00949469        0.010409 
         4.0841       0.0093808       0.0103055 
        4.09983       0.0092346       0.0102034 
        4.11555      0.00914652       0.0101026 
        4.13124      0.00902204       0.0100035 
        4.14693      0.00890683      0.00990556 
        4.16266      0.00878322      0.00980873 
        4.17839      0.00869271      0.00971325 
        4.19408      0.00861063      0.00961925 
        4.20977       0.0084996      0.00952644 
        4.22551      0.00839831      0.00943463 
        4.24123      0.00830455      0.00934411 
        4.25691      0.00823524      0.00925502 
        4.27259      0.00815304      0.00916706 
        4.28831      0.00809692      0.00908005 
        4.30404       0.0080227      0.00899408 
        4.31974      0.00792406      0.00890941 
        4.33543      0.00787693      0.00882586 
        4.35116      0.00782369      0.00874318 
        4.36688       0.0077556      0.00866159 
        4.38255      0.00771354      0.00858133 
        4.39825      0.00767446      0.00850191 
        4.41398      0.00764103      0.00842332 
         4.4297      0.00759957      0.00834581 
        4.44541      0.00755213      0.00826929 
        4.46111      0.00750917      0.00819377 
        4.47683      0.00748687      0.00811913 
        4.49251      0.00745623      0.00804557 
        4.50819      0.00741956      0.00797294 
         4.5239      0.00742432      0.00790109 
        4.53962      0.00740469      0.00783003 
        4.55535      0.00738379      0.00775981 
        4.57106      0.00741594      0.00769054 
        4.58678      0.00736507      0.00762209 
         4.6025       0.0073867      0.00755446 
        4.61821      0.00739155      0.00748766 
        4.63391      0.00740305      0.00742174 
         4.6496      0.00740314      0.00735664 
        4.66532      0.00740736      0.00729221 
        4.68103      0.00744127      0.00722858 
        4.69673      0.00744114      0.00716576 
        4.71241      0.00748565      0.00710375 
        4.72811      0.00749531      0.00704236 
        4.74384      0.00752756      0.00698162 
        4.75955      0.00757016      0.00692168 
        4.77525      0.00760937      0.00686247 
        4.79096      0.00767242      0.00680388 
        4.80669      0.00768108      0.00674594 
         4.8224      0.00776421      0.00668873 
        4.83809      0.00778543      0.00663225 
        4.85379      0.00787044      0.00657637 
         4.8695      0.00790335       0.0065211 
        4.88521       0.0079576      0.00646647 
        4.90093      0.00803698      0.00641246 
        4.91663       0.0081456      0.00635911 
        4.93234      0.00819395      0.00630631 
        4.94807      0.00827629      0.00625407 
        4.96377      0.00834834      0.00620251 
        4.97943      0.00846117      0.00615164 
        4.99514      0.00851143      0.00610121 
        5.01086      0.00862206      0.00605129 
        5.02654      0.00875423      0.00600206 
        5.04227      0.00884199      0.00595323 
          5.058      0.00893617      0.00590492 
        5.07371       0.0090803      0.00585723 
        5.08942      0.00924268      0.00581006 
        5.10513       0.0093169       0.0057634 
        5.12084      0.00940081      0.00571723 
        5.13656      0.00956659      0.00567157 
        5.15225      0.00971345      0.00562648 
        5.16796      0.00989044       0.0055818 
        5.18369      0.00999014      0.00553757 
         5.1994       0.0101416      0.00549389 
        5.21509       0.0103131      0.00545072 
        5.23079       0.0104465      0.00540796 
        5.24649       0.0106376      0.00536569 
        5.26217       0.0107918       0.0053239 
        5.27788       0.0110063      0.00528249 
        5.29359       0.0111797      0.00524151 
        5.30933       0.0113937       0.0052009 
        5.32504       0.0115474      0.00516079 
        5.34073       0.0118144      0.00512114 
        5.35646       0.0119999      0.00508183 
        5.37218       0.0122077      0.00504292 
        5.38789       0.0124886      0.00500447 
        5.40357       0.0126616      0.00496647 
        5.41929       0.0128371      0.00492878 
        5.43502       0.0131467      0.00489147 
         5.4507       0.0134338      0.00485463 
        5.46639       0.0137112      0.00481816 
        5.48212       0.0138567      0.00478199 
        5.49786       0.0141829      0.00474613 
        5.51353       0.0145205      0.00471082 
        5.52921       0.0148472      0.00467583 
        5.54495        0.015145       0.0046411 
        5.56066       0.0154275      0.00460675 
        5.57637       0.0157953      0.00457275 
        5.59207       0.0160736      0.00453912 
        5.60778       0.0164054      0.00450581 
        5.62346       0.0167782      0.00447288 
        5.63916        0.017097      0.00444025 
        5.65487       0.0175487      0.00440792 
         5.6706       0.0178527      0.00437588 
        5.68633       0.0183202      0.00434414 
        5.70203        0.018683      0.00431278 
        5.71773       0.0191492      0.00428173 
        5.73344       0.0195602      0.00425097 
        5.74916       0.0200745      0.00422048 
        5.76486       0.0204681      0.00419033 
        5.78054       0.0208003      0.00416052 
        5.79626       0.0214733      0.00413091 
          5.812       0.0218673      0.00410156 
         5.8277       0.0225226      0.00407258 
        5.84339       0.0229059      0.00404387 
        5.85911       0.0235898      0.00401539 
        5.87484       0.0241192      0.00398718 
        5.89053       0.0246627       0.0039593 
        5.90623       0.0252413      0.00393167 
        5.92195       0.0260287      0.00390426 
        5.93767       0.0265787      0.00387712 
        5.95336       0.0272386      0.00385027 
        5.96905       0.0278698       0.0038237 
        5.98476       0.0283818      0.00379733 
        6.00048       0.0292201       0.0037712 
        6.01617       0.0298763      0.00374536 
        6.03185       0.0307006      0.00371978 
        6.04756       0.0314809      0.00369438 
        6.06331       0.0323362      0.00366916 
        6.07903       0.0331833      0.00364423 
        6.09473       0.0339796      0.00361955 
        6.11044       0.0350037      0.00359507 
        6.12616       0.0360199      0.00357083 
        6.14186       0.0368028      0.00354683 
        6.15755       0.0377483      0.00352305 
        6.17326       0.0384824      0.00349947 
        6.18898       0.0398104      0.00347609 
        6.20467       0.0411435      0.00345297 
        6.22036       0.0420277      0.00343005 
         6.2361       0.0431111      0.00340729 
         6.2518         0.04446      0.00338476 
        6.26748        0.045281      0.00336249 
        6.28319       0.0469095      0.00334035 
        6.29893       0.0481054      0.00331839 
        6.31463       0.0494512      0.00329667 
        6.33033       0.0507386      0.00327514 
        6.34604       0.0521765      0.00325379 
        6.36177       0.0538225      0.00323261 
        6.37747       0.0551524      0.00321166 
