# k  (h/Mpc)    Pcb(k)  (Mpc/h)^3    Pcb_linear(k) (Mpc/h)^3   ShotnoiseSubtracted = true
      0.0200456         26204.7         26653.5 
      0.0350414         18606.7         17908.3 
      0.0492313         11845.9         12043.8 
      0.0637834         9276.43         9659.49 
      0.0800726          7337.8         7802.62 
       0.096163         5868.38         5550.28 
       0.111083         4543.92         4150.37 
       0.126058         3687.63         3584.42 
       0.142273         3301.82         3158.46 
       0.158546         2698.89          2509.4 
        0.17375         2360.09         1997.07 
       0.188953         2221.17         1748.99 
       0.204907         1910.34         1595.88 
       0.220756          1736.7         1381.46 
        0.23588         1533.83         1162.96 
         0.2514         1380.51          1016.8 
       0.267535         1326.86          929.48 
       0.283568         1183.23         839.322 
       0.299022         1118.06         738.959 
       0.314451          1166.5          656.56 
       0.330372         1026.13          599.25 
       0.346141         939.037          551.73 
       0.361624         899.046         501.672 
       0.377134         863.613         454.296 
       0.392932         814.532         416.196 
       0.408854         783.342         385.203 
       0.424564         764.105         356.117 
       0.440253          705.78         327.904 
       0.455999         672.179         302.965 
       0.471626          684.43         282.091 
        0.48727         641.997         263.328 
       0.502856         620.299         245.558 
       0.518488         595.478         229.089 
       0.534347         575.462         214.263 
       0.550082         546.274         201.106 
       0.565732         536.542          188.99 
       0.581496         523.795         177.597 
       0.597222         512.835         167.179 
       0.612804         498.052         157.792 
       0.628434          476.97         149.113 
       0.644267         462.543         140.935 
       0.660051         457.719         133.349 
       0.675724         446.052         126.395 
       0.691403         432.742         119.958 
       0.707174         419.448         113.932 
       0.722871         417.623         108.339 
        0.73838         403.523         103.177 
       0.754018         393.425         98.3077 
       0.769845         389.556         93.6963 
        0.78569         379.796         89.3733 
       0.801365         366.476          85.363 
       0.817031         363.152         81.5997 
       0.832809         357.064         78.0382 
       0.848511         351.313         74.7044 
       0.864097         340.202         71.5879 
       0.879701         341.249         68.6461 
       0.895507         327.401         65.8348 
       0.911279         321.732         63.1867 
        0.92691         318.539         60.7059 
       0.942635         312.825         58.3445 
       0.958396         303.217         56.1035 
       0.974128         298.488         53.9842 
       0.989692         291.185          51.995 
        1.00528         286.365          50.103 
        1.02113         282.974         48.2753 
        1.03692         277.908         46.5454 
        1.05264         274.448         44.9079 
        1.06832         267.577         43.3515 
        1.08405         265.724         41.8645 
        1.09979         259.411         40.4462 
        1.11537         253.875         39.1074 
        1.13105          250.19         37.8209 
        1.14679         246.152         36.5872 
        1.16256         244.403          35.406 
        1.17828         240.318         34.2806 
        1.19395         234.274         33.2077 
         1.2097         232.721         32.1752 
        1.22537         228.974         31.1913 
          1.241         222.395         30.2515 
        1.25666         221.193         29.3478 
        1.27241         218.206         28.4767 
        1.28819         212.917         27.6394 
        1.30392          213.17         26.8381 
        1.31957         206.793          26.072 
        1.33529         202.939         25.3329 
        1.35108         202.818         24.6194 
        1.36674         197.046         23.9384 
         1.3824         194.568         23.2837 
        1.39811         192.336         22.6512 
        1.41389         188.634         22.0397 
        1.42964         185.169         21.4518 
        1.44531         184.189          20.888 
        1.46101         180.178         20.3433 
        1.47667         177.808         19.8195 
        1.49229         175.975         19.3155 
        1.50793         172.789         18.8284 
        1.52367         169.495         18.3549 
        1.53953         167.329         17.8944 
        1.55526         164.768         17.4533 
        1.57092         163.754         17.0289 
        1.58662         160.289         16.6175 
        1.60235         158.347         16.2188 
        1.61809         155.926          15.833 
        1.63369         152.898         15.4631 
        1.64941         151.341         15.1023 
        1.66519         148.791         14.7517 
        1.68085         146.167         14.4146 
        1.69652         145.297         14.0879 
        1.71228          142.83         13.7695 
        1.72806         141.286         13.4606 
        1.74368         139.151         13.1642 
        1.75933         137.751         12.8761 
        1.77505         135.824         12.5952 
        1.79081         133.474         12.3222 
         1.8065         132.278         12.0585 
        1.82218         128.661         11.8026 
        1.83797         127.933         11.5523 
        1.85367         125.926         11.3107 
        1.86928         124.406         11.0774 
        1.88497         123.578         10.8494 
        1.90073         122.042         10.6269 
        1.91647         119.777         10.4108 
        1.93218         117.687         10.2012 
        1.94787         115.985         9.99759 
        1.96363         115.569         9.79873 
        1.97935          114.25         9.60565 
        1.99499         112.064         9.41885 
        2.01064          110.37         9.23671 
         2.0264         109.442         9.05822 
        2.04216         107.255         8.88452 
        2.05781         105.916         8.71644 
        2.07353         104.887         8.55209 
        2.08928         103.079         8.39159 
        2.10499         102.513         8.23562 
        2.12065         101.053         8.08407 
        2.13633         99.6717         7.93617 
        2.15211         98.0486         7.79101 
        2.16785         97.0278         7.64986 
        2.18349         95.6601         7.51307 
        2.19916         95.1061         7.37932 
        2.21489         93.1397         7.24837 
        2.23063         91.7827          7.1205 
         2.2463         90.7803         6.99626 
        2.26194         89.9172         6.87528 
        2.27765         88.8407         6.75653 
        2.29341         87.5054         6.64026 
        2.30914         86.5536         6.52694 
        2.32486         85.6769         6.41632 
        2.34061         84.3895         6.30807 
        2.35635         83.5066          6.2024 
        2.37203         82.0423          6.0995 
        2.38768         81.1709         5.99913 
        2.40339         80.1285         5.90065 
        2.41914         79.2227         5.80414 
        2.43483         78.3534         5.71011 
         2.4505         77.4047         5.61831 
        2.46622         76.4225          5.5282 
        2.48195         75.4866         5.44006 
        2.49759         74.3652         5.35429 
        2.51328          73.949         5.27014 
        2.52906         73.0143         5.18725 
        2.54479         71.9612         5.10645 
        2.56049         70.8014         5.02751 
        2.57618         70.2213          4.9503 
        2.59189          69.164         4.87459 
        2.60758         68.0632         4.80057 
        2.62325         67.4919         4.72817 
        2.63898         66.9345           4.657 
        2.65468          66.094         4.58743 
        2.67044         65.1519         4.51899 
        2.68618         64.2182         4.45208 
        2.70184         63.6424         4.38679 
        2.71755         63.0409         4.32264 
        2.73329         62.2439         4.25967 
        2.74897         61.6561         4.19815 
        2.76462         60.9037         4.13797 
        2.78034         60.0146         4.07872 
        2.79607         59.3138         4.02055 
        2.81179         58.7317         3.96359 
        2.82749         58.3685         3.90778 
        2.84321         57.2559         3.85298 
        2.85893         56.7337         3.79924 
        2.87462         56.3889         3.74661 
        2.89033         55.3812         3.69492 
        2.90605         54.8572         3.64416 
        2.92176         54.3188         3.59437 
        2.93747          53.758         3.54553 
        2.95318         53.1532         3.49758 
        2.96891          52.526         3.45049 
        2.98456         51.7331         3.40447 
        3.00023         51.2853         3.35922 
        3.01596         50.8666         3.31465 
        3.03164         50.1941           3.271 
        3.04738         49.8596         3.22801 
         3.0631         49.0588         3.18581 
        3.07883          48.568         3.14435 
        3.09456         47.9835         3.10363 
        3.11026         47.7755         3.06369 
        3.12596         47.0294         3.02445 
        3.14163         46.5023         2.98598 
        3.15734          45.849          2.9481 
        3.17308         45.4296         2.91077 
        3.18879         45.0131         2.87419 
        3.20447         44.6688         2.83828 
         3.2202         44.0162         2.80288 
         3.2359         43.4348         2.76813 
        3.25157         43.3097         2.73406 
        3.26729         42.8432         2.70045 
        3.28304          42.259         2.66734 
        3.29877         41.9079         2.63482 
        3.31446         41.2521         2.60291 
        3.33014         40.8945         2.57155 
        3.34585         40.5273         2.54066 
        3.36158          40.214         2.51023 
        3.37727         39.7685         2.48039 
        3.39294         39.2955         2.45106 
        3.40867          38.874         2.42209 
        3.42439         38.4554         2.39361 
        3.44008         38.1783         2.36563 
        3.45578           37.62         2.33808 
        3.47153         37.2351         2.31091 
        3.48724         36.9236         2.28421 
        3.50292          36.641         2.25799 
        3.51859         36.1827         2.23219 
        3.53431         35.7115         2.20672 
        3.55007         35.4539         2.18157 
        3.56577         35.1534         2.15692 
        3.58146          34.701         2.13265 
        3.59719         34.4496          2.1087 
        3.61292         34.0441         2.08513 
        3.62859         33.7442         2.06199 
        3.64429         33.3947         2.03917 
        3.66003         33.0937         2.01662 
        3.67578           32.78         1.99441 
        3.69146         32.3638         1.97262 
        3.70712         32.2054          1.9512 
        3.72284         31.8867         1.93001 
        3.73853         31.5213         1.90917 
        3.75422         31.1856         1.88862 
        3.76993         30.9457         1.86836 
        3.78564         30.6259         1.84841 
        3.80137         30.3847         1.82871 
        3.81707         29.9349         1.80934 
        3.83279         29.7648         1.79023 
        3.84853         29.4664         1.77136 
        3.86424         29.1615          1.7528 
        3.87992          28.882         1.73453 
        3.89561         28.6928         1.71652 
        3.91134         28.4128         1.69873 
        3.92704         28.1406         1.68121 
        3.94273         27.9283         1.66395 
        3.95845         27.6394          1.6469 
        3.97418         27.3774         1.63008 
        3.98988         27.0793         1.61353 
        4.00554         26.8375         1.59724 
        4.02125         26.6343         1.58113 
        4.03698         26.3296         1.56522 
        4.05268         26.1131         1.54956 
        4.06839         25.8882          1.5341 
         4.0841         25.6482         1.51885 
        4.09983         25.4177         1.50379 
        4.11555         25.1822         1.48894 
        4.13124         24.9464         1.47433 
        4.14693         24.7533          1.4599 
        4.16266         24.5395         1.44563 
        4.17839         24.2278         1.43156 
        4.19408          24.065          1.4177 
        4.20977         23.8886         1.40403 
        4.22551         23.5969         1.39049 
        4.24123         23.3208         1.37715 
        4.25691         23.2491         1.36402 
        4.27259         22.9975         1.35106 
        4.28831         22.7982         1.33824 
        4.30404         22.5868         1.32557 
        4.31974         22.4045         1.31309 
        4.33543         22.1954         1.30077 
        4.35116         22.0523         1.28859 
        4.36688         21.7939         1.27656 
        4.38255          21.644         1.26473 
        4.39825         21.4505         1.25303 
        4.41398         21.3278         1.24145 
         4.4297         21.1033         1.23002 
        4.44541         20.9323         1.21874 
        4.46111         20.6567         1.20761 
        4.47683          20.585         1.19661 
        4.49251         20.3547         1.18577 
        4.50819         20.2366         1.17507 
         4.5239         19.9822         1.16448 
        4.53962          19.864         1.15401 
        4.55535         19.7234         1.14366 
        4.57106         19.5478         1.13345 
        4.58678         19.3208         1.12336 
         4.6025         19.1797         1.11339 
        4.61821         19.0178         1.10355 
        4.63391         18.9156         1.09383 
         4.6496         18.7053         1.08424 
        4.66532         18.5676         1.07474 
        4.68103         18.4076         1.06536 
        4.69673         18.2667          1.0561 
        4.71241         18.1175         1.04696 
        4.72811         17.9894         1.03792 
        4.74384         17.8523         1.02896 
        4.75955         17.6505         1.02013 
        4.77525         17.5323          1.0114 
        4.79096         17.3669         1.00277 
        4.80669         17.2456         0.99423 
         4.8224         17.0849        0.985799 
        4.83809         16.9483        0.977474 
        4.85379         16.8452         0.96924 
         4.8695         16.6983        0.961092 
        4.88521         16.5257        0.953042 
        4.90093         16.3897        0.945082 
        4.91663         16.2881        0.937219 
        4.93234         16.1305        0.929437 
        4.94807         16.0335        0.921738 
        4.96377         15.8495        0.914139 
        4.97943         15.7611        0.906641 
        4.99514         15.6669        0.899208 
        5.01086         15.5256        0.891852 
        5.02654         15.3915        0.884597 
        5.04227         15.2455          0.8774 
          5.058         15.1749        0.870279 
        5.07371         14.9911        0.863251 
        5.08942         14.8972        0.856299 
        5.10513         14.7835        0.849422 
        5.12084         14.6421        0.842617 
        5.13656         14.5605        0.835887 
        5.15225         14.4547        0.829242 
        5.16796         14.3566        0.822657 
        5.18369         14.2325        0.816138 
         5.1994          14.086        0.809701 
        5.21509         14.0145        0.803338 
        5.23079         13.9207        0.797036 
        5.24649         13.7607        0.790806 
        5.26217         13.7068        0.784647 
        5.27788         13.5736        0.778544 
        5.29359         13.4899        0.772504 
        5.30933         13.3888        0.766519 
        5.32504         13.2505        0.760608 
        5.34073         13.1423        0.754764 
        5.35646         13.0717         0.74897 
        5.37218          12.915        0.743235 
        5.38789         12.8649        0.737569 
        5.40357         12.7865        0.731969 
        5.41929         12.6816        0.726413 
        5.43502         12.5762        0.720914 
         5.4507         12.4948        0.715485 
        5.46639         12.3937        0.710111 
        5.48212          12.277        0.704779 
        5.49786         12.2125        0.699495 
        5.51353         12.1227        0.694291 
        5.52921         12.0412        0.689134 
        5.54495          11.936        0.684014 
        5.56066         11.8426        0.678952 
        5.57637         11.8004        0.673941 
        5.59207         11.6991        0.668984 
        5.60778         11.5911        0.664076 
        5.62346         11.5209        0.659223 
        5.63916         11.4392        0.654413 
        5.65487         11.3413        0.649649 
         5.6706          11.246        0.644926 
        5.68633         11.1702        0.640248 
        5.70203         11.1077        0.635626 
        5.71773          11.024         0.63105 
        5.73344         10.9352        0.626517 
        5.74916         10.8528        0.622023 
        5.76486         10.7782        0.617579 
        5.78054         10.7003        0.613186 
        5.79626         10.6334        0.608822 
          5.812         10.5576        0.604496 
         5.8277         10.4949        0.600225 
        5.84339         10.4171        0.595994 
        5.85911         10.3504        0.591796 
        5.87484         10.2388        0.587639 
        5.89053         10.1845         0.58353 
        5.90623         10.1015        0.579458 
        5.92195         10.0531        0.575417 
        5.93767         9.97492        0.571417 
        5.95336         9.89201        0.567461 
        5.96905          9.8142        0.563544 
        5.98476         9.76203        0.559658 
        6.00048         9.68178        0.555808 
        6.01617         9.63422        0.551998 
        6.03185         9.54179        0.548229 
        6.04756          9.4869        0.544485 
        6.06331         9.42359        0.540768 
        6.07903         9.36002        0.537094 
        6.09473           9.303        0.533456 
        6.11044         9.23425        0.529849 
        6.12616         9.18426        0.526276 
        6.14186         9.10734        0.522739 
        6.15755         9.05224        0.519234 
        6.17326         8.97981        0.515759 
        6.18898         8.90848        0.512313 
        6.20467         8.87153        0.508905 
        6.22036         8.80564        0.505528 
         6.2361         8.74329        0.502173 
         6.2518         8.67719        0.498853 
        6.26748         8.63754         0.49557 
        6.28319         8.55411        0.492308 
        6.29893         8.51239        0.489071 
        6.31463         8.44679         0.48587 
        6.33033         8.40336        0.482697 
        6.34604          8.3394        0.479551 
        6.36177         8.27556        0.476429 
        6.37747         8.23523        0.473341 
