# k  (h/Mpc)    Pcb(k)  (Mpc/h)^3    Pcb_linear(k) (Mpc/h)^3   ShotnoiseSubtracted = true
      0.0200456         30372.8         31084.7 
      0.0350414           19820         20885.5 
      0.0492313         13785.8         14046.1 
      0.0637834         11698.1         11265.4 
      0.0800726         9303.05         9099.79 
       0.096163         6331.44         6473.01 
       0.111083         4925.01         4840.37 
       0.126058         4419.56         4180.33 
       0.142273         3914.55         3683.55 
       0.158546         3478.94         2926.58 
        0.17375         2729.34         2329.09 
       0.188953          2644.3         2039.76 
       0.204907         2487.26         1861.19 
       0.220756         2163.32         1611.13 
        0.23588         1944.83         1356.31 
         0.2514         1685.24         1185.85 
       0.267535         1678.22         1084.01 
       0.283568         1520.81         978.859 
       0.299022         1447.14         861.811 
       0.314451         1369.41         765.713 
       0.330372         1248.22         698.875 
       0.346141         1214.79         643.455 
       0.361624         1167.21         585.075 
       0.377134         1092.66         529.823 
       0.392932         1031.91         485.389 
       0.408854         1023.67         449.243 
       0.424564         936.877         415.321 
       0.440253         917.842         382.418 
       0.455999         892.655         353.333 
       0.471626         862.479         328.988 
        0.48727         823.404         307.106 
       0.502856         795.802         286.382 
       0.518488         792.346         267.175 
       0.534347         743.194         249.884 
       0.550082         728.897          234.54 
       0.565732         720.351          220.41 
       0.581496         682.121         207.123 
       0.597222         664.036         194.973 
       0.612804          654.24         184.025 
       0.628434         635.589         173.903 
       0.644267         619.782         164.365 
       0.660051         607.248         155.518 
       0.675724         594.943         147.408 
       0.691403         577.486         139.901 
       0.707174         555.471         132.874 
       0.722871         545.256         126.351 
        0.73838         536.792          120.33 
       0.754018         524.547         114.651 
       0.769845         516.449         109.273 
        0.78569         507.767         104.232 
       0.801365         493.172         99.5545 
       0.817031         483.175         95.1655 
       0.832809         475.763         91.0119 
       0.848511         467.445         87.1239 
       0.864097         450.624         83.4893 
       0.879701         442.911         80.0584 
       0.895507         441.066         76.7798 
       0.911279         431.379         73.6914 
        0.92691         422.962         70.7982 
       0.942635         410.672         68.0442 
       0.958396         403.047         65.4307 
       0.974128         397.499          62.959 
       0.989692         394.522         60.6392 
        1.00528         384.036         58.4326 
        1.02113         378.074         56.3011 
        1.03692         372.711         54.2835 
        1.05264         364.901         52.3738 
        1.06832          357.61         50.5587 
        1.08405         349.742         48.8245 
        1.09979         345.402         47.1703 
        1.11537         339.755         45.6089 
        1.13105         334.232         44.1086 
        1.14679         323.163         42.6698 
        1.16256         318.523         41.2922 
        1.17828         316.651         39.9797 
        1.19395         310.368         38.7285 
         1.2097         302.393         37.5243 
        1.22537         296.571         36.3769 
          1.241         291.245         35.2807 
        1.25666         289.958         34.2269 
        1.27241         283.755          33.211 
        1.28819         277.873         32.2345 
        1.30392         272.877         31.2999 
        1.31957         268.291         30.4064 
        1.33529         266.478         29.5445 
        1.35108         260.617         28.7124 
        1.36674          256.71         27.9182 
         1.3824         252.394         27.1546 
        1.39811         247.676          26.417 
        1.41389         244.907         25.7038 
        1.42964         241.371         25.0181 
        1.44531         238.477         24.3607 
        1.46101         233.717         23.7253 
        1.47667         229.512         23.1145 
        1.49229         226.749         22.5267 
        1.50793         222.471         21.9586 
        1.52367          220.55         21.4063 
        1.53953         215.429         20.8693 
        1.55526         213.584         20.3549 
        1.57092         209.917         19.8599 
        1.58662         207.022         19.3801 
        1.60235          204.37         18.9152 
        1.61809         200.648         18.4652 
        1.63369         198.927         18.0338 
        1.64941         194.731          17.613 
        1.66519         193.106         17.2041 
        1.68085         189.752          16.811 
        1.69652         188.054           16.43 
        1.71228         183.599         16.0586 
        1.72806         179.964         15.6984 
        1.74368          177.45         15.3527 
        1.75933         176.932         15.0167 
        1.77505         173.801         14.6892 
        1.79081         171.894         14.3708 
         1.8065         167.858         14.0632 
        1.82218         165.375         13.7647 
        1.83797          163.91         13.4729 
        1.85367         162.082         13.1911 
        1.86928         158.392          12.919 
        1.88497         157.894         12.6531 
        1.90073         155.119         12.3936 
        1.91647         153.384         12.1416 
        1.93218         151.234         11.8971 
        1.94787         148.293         11.6597 
        1.96363         146.423         11.4278 
        1.97935         144.325         11.2026 
        1.99499         142.587         10.9847 
        2.01064          140.21         10.7723 
         2.0264         138.864         10.5641 
        2.04216         137.102         10.3616 
        2.05781         135.403         10.1655 
        2.07353         134.002         9.97386 
        2.08928         131.123         9.78669 
        2.10499         130.059         9.60479 
        2.12065         128.353         9.42804 
        2.13633         125.967         9.25556 
        2.15211         124.403         9.08626 
        2.16785         123.195         8.92164 
        2.18349         121.788         8.76211 
        2.19916         119.872         8.60613 
        2.21489         118.696         8.45341 
        2.23063         116.408         8.30427 
         2.2463         115.544         8.15938 
        2.26194         113.365         8.01829 
        2.27765         112.371         7.87979 
        2.29341         110.562         7.74419 
        2.30914         109.635         7.61204 
        2.32486         108.245         7.48303 
        2.34061         106.337         7.35678 
        2.35635         105.542         7.23354 
        2.37203         104.038         7.11354 
        2.38768         102.829         6.99648 
        2.40339         101.384         6.88163 
        2.41914         100.213         6.76907 
        2.43483         98.6788         6.65941 
         2.4505         97.4822         6.55235 
        2.46622         96.7349         6.44726 
        2.48195         94.7495         6.34446 
        2.49759          94.023         6.24443 
        2.51328         92.8967         6.14629 
        2.52906         92.4473         6.04963 
        2.54479         90.5574         5.95539 
        2.56049         89.2042         5.86333 
        2.57618         88.2473         5.77329 
        2.59189         87.6741         5.68499 
        2.60758         86.3388         5.59866 
        2.62325         85.3456         5.51422 
        2.63898         84.4589         5.43122 
        2.65468         83.1089         5.35009 
        2.67044         82.3135         5.27026 
        2.68618         81.2635         5.19224 
        2.70184         80.3805         5.11609 
        2.71755         79.7078         5.04128 
        2.73329         78.6425         4.96784 
        2.74897         77.7786         4.89609 
        2.76462         77.2761          4.8259 
        2.78034         75.8415          4.7568 
        2.79607         74.7293         4.68897 
        2.81179         74.0126         4.62253 
        2.82749         73.4763         4.55744 
        2.84321         72.2804         4.49353 
        2.85893         71.5297         4.43086 
        2.87462         71.0111         4.36948 
        2.89033         69.9348         4.30919 
        2.90605         69.2619         4.24999 
        2.92176         68.4329         4.19193 
        2.93747         67.6377         4.13497 
        2.95318         66.9541         4.07905 
        2.96891         66.3228         4.02413 
        2.98456           65.64         3.97046 
        3.00023         64.6704         3.91769 
        3.01596         63.8594          3.8657 
        3.03164         63.2775          3.8148 
        3.04738         62.3752         3.76467 
         3.0631         62.1263         3.71544 
        3.07883          61.019         3.66709 
        3.09456         60.2585          3.6196 
        3.11026         60.0347         3.57302 
        3.12596         59.2892         3.52726 
        3.14163         58.6316          3.4824 
        3.15734         57.9726         3.43821 
        3.17308         57.3253         3.39468 
        3.18879         56.6271         3.35202 
        3.20447         56.1459         3.31014 
         3.2202         55.5217         3.26885 
         3.2359         54.8758         3.22833 
        3.25157         54.4112         3.18859 
        3.26729         53.9243         3.14939 
        3.28304         53.3842         3.11078 
        3.29877         52.5399         3.07285 
        3.31446         52.1137         3.03564 
        3.33014         51.5322         2.99907 
        3.34585         51.0487         2.96305 
        3.36158         50.5517         2.92756 
        3.37727         49.9372         2.89275 
        3.39294         49.5137         2.85854 
        3.40867         48.8466         2.82476 
        3.42439         48.5469         2.79154 
        3.44008         47.9097         2.75892 
        3.45578         47.6098         2.72679 
        3.47153         46.9867         2.69509 
        3.48724         46.5816         2.66395 
        3.50292         46.1967         2.63338 
        3.51859         45.6749         2.60329 
        3.53431         45.2585         2.57358 
        3.55007         44.9065         2.54426 
        3.56577         44.4702          2.5155 
        3.58146         43.8845          2.4872 
        3.59719         43.5785         2.45927 
        3.61292         43.1515         2.43178 
        3.62859         42.5798          2.4048 
        3.64429         42.2482         2.37818 
        3.66003         41.8927         2.35188 
        3.67578         41.4637         2.32598 
        3.69146         40.8941         2.30057 
        3.70712          40.619         2.27558 
        3.72284          40.327         2.25087 
        3.73853         39.8553         2.22656 
        3.75422         39.3432          2.2026 
        3.76993         38.9475         2.17898 
        3.78564         38.6396          2.1557 
        3.80137         38.3871         2.13273 
        3.81707         37.9024         2.11014 
        3.83279         37.6117         2.08785 
        3.84853         37.1669         2.06585 
        3.86424         36.7954          2.0442 
        3.87992         36.4863          2.0229 
        3.89561          36.123         2.00189 
        3.91134         35.8041         1.98114 
        3.92704          35.452         1.96071 
        3.94273         35.0996         1.94058 
        3.95845         34.8305          1.9207 
        3.97418          34.529         1.90109 
        3.98988         34.1473         1.88177 
        4.00554         33.8596         1.86278 
        4.02125         33.5006         1.84399 
        4.03698         33.1851         1.82543 
        4.05268         33.0226         1.80717 
        4.06839         32.6133         1.78914 
         4.0841         32.3113         1.77136 
        4.09983         32.0262          1.7538 
        4.11555         31.8243         1.73648 
        4.13124         31.5403         1.71944 
        4.14693          31.236         1.70261 
        4.16266         30.9071         1.68597 
        4.17839         30.6748         1.66955 
        4.19408         30.3989          1.6534 
        4.20977         30.0953         1.63744 
        4.22551         29.8261         1.62166 
        4.24123         29.4943          1.6061 
        4.25691         29.2398         1.59079 
        4.27259         29.0598         1.57567 
        4.28831         28.8037         1.56072 
        4.30404         28.5998         1.54594 
        4.31974         28.3383         1.53139 
        4.33543         28.0272         1.51703 
        4.35116         27.7955         1.50281 
        4.36688         27.4991         1.48879 
        4.38255         27.3171         1.47499 
        4.39825         27.0715         1.46134 
        4.41398         26.7291         1.44784 
         4.4297         26.5762         1.43451 
        4.44541         26.2749         1.42136 
        4.46111         26.1634         1.40838 
        4.47683         25.8949         1.39555 
        4.49251         25.6235         1.38291 
        4.50819         25.4698         1.37042 
         4.5239         25.3026         1.35807 
        4.53962         25.0694         1.34586 
        4.55535         24.8708         1.33379 
        4.57106         24.6153         1.32188 
        4.58678           24.45         1.31012 
         4.6025         24.1923         1.29849 
        4.61821         23.9474         1.28701 
        4.63391         23.8033         1.27568 
         4.6496         23.5504         1.26449 
        4.66532          23.435         1.25342 
        4.68103         23.2311         1.24248 
        4.69673         23.0044         1.23168 
        4.71241         22.8135         1.22102 
        4.72811         22.6671         1.21047 
        4.74384         22.4297         1.20003 
        4.75955          22.246         1.18973 
        4.77525         22.0766         1.17955 
        4.79096         21.9388         1.16948 
        4.80669         21.6856         1.15952 
         4.8224         21.5483         1.14969 
        4.83809         21.4142         1.13998 
        4.85379         21.1494         1.13037 
         4.8695         21.0217         1.12087 
        4.88521         20.8706         1.11148 
        4.90093         20.6691          1.1022 
        4.91663         20.4748         1.09303 
        4.93234         20.3899         1.08396 
        4.94807         20.1772         1.07498 
        4.96377         20.0441         1.06611 
        4.97943         19.8718         1.05737 
        4.99514         19.7111          1.0487 
        5.01086         19.5243         1.04012 
        5.02654         19.4338         1.03166 
        5.04227         19.2558         1.02327 
          5.058         19.0482         1.01496 
        5.07371         18.9265         1.00677 
        5.08942         18.8031        0.998658 
        5.10513         18.6084        0.990638 
        5.12084         18.4967        0.982701 
        5.13656          18.365        0.974853 
        5.15225         18.2245        0.967102 
        5.16796         18.0784        0.959424 
        5.18369         17.9321         0.95182 
         5.1994         17.7876        0.944313 
        5.21509          17.646        0.936893 
        5.23079         17.4849        0.929543 
        5.24649         17.3942        0.922277 
        5.26217          17.226        0.915094 
        5.27788          17.096        0.907976 
        5.29359         16.9939        0.900932 
        5.30933          16.869        0.893953 
        5.32504         16.7375        0.887058 
        5.34073          16.619        0.880243 
        5.35646         16.4773        0.873486 
        5.37218         16.3203        0.866798 
        5.38789         16.2128         0.86019 
        5.40357         16.0864        0.853658 
        5.41929         15.9664        0.847179 
        5.43502         15.8511        0.840766 
         5.4507         15.7383        0.834434 
        5.46639         15.6227        0.828166 
        5.48212         15.5051        0.821948 
        5.49786         15.3959        0.815785 
        5.51353         15.2512        0.809716 
        5.52921         15.1592        0.803702 
        5.54495          15.045        0.797731 
        5.56066          14.931        0.791827 
        5.57637         14.8095        0.785983 
        5.59207         14.7305        0.780202 
        5.60778         14.6025        0.774478 
        5.62346         14.4874        0.768818 
        5.63916         14.3813        0.763209 
        5.65487         14.2795        0.757652 
         5.6706         14.1994        0.752145 
        5.68633         14.0339        0.746689 
        5.70203         13.9657        0.741299 
        5.71773         13.8907        0.735962 
        5.73344         13.7773        0.730675 
        5.74916         13.6637        0.725434 
        5.76486         13.5617        0.720251 
        5.78054          13.482        0.715127 
        5.79626         13.3649        0.710038 
          5.812         13.2938        0.704993 
         5.8277         13.1883        0.700012 
        5.84339         13.1082        0.695078 
        5.85911         12.9848        0.690182 
        5.87484          12.907        0.685334 
        5.89053         12.8248        0.680541 
        5.90623         12.7361        0.675792 
        5.92195         12.6292         0.67108 
        5.93767         12.5525        0.666415 
        5.95336         12.4636        0.661801 
        5.96905         12.3553        0.657233 
        5.98476         12.2723        0.652701 
        6.00048         12.1919         0.64821 
        6.01617         12.0853        0.643767 
        6.03185         12.0104        0.639371 
        6.04756         11.9307        0.635005 
        6.06331          11.843         0.63067 
        6.07903         11.7621        0.626385 
        6.09473         11.6975        0.622143 
        6.11044         11.5717        0.617936 
        6.12616         11.5078        0.613769 
        6.14186         11.4238        0.609644 
        6.15755         11.3871        0.605556 
        6.17326         11.2832        0.601503 
        6.18898         11.1909        0.597485 
        6.20467         11.1269        0.593511 
        6.22036         11.0364        0.589572 
         6.2361         10.9771        0.585659 
         6.2518         10.8847        0.581787 
        6.26748         10.8282        0.577958 
        6.28319         10.7626        0.574153 
        6.29893         10.6824        0.570379 
        6.31463         10.6147        0.566645 
        6.33033         10.5299        0.562945 
        6.34604         10.4372        0.559276 
        6.36177         10.3858        0.555635 
        6.37747         10.3186        0.552034 
