# k  (h/Mpc)    Pcb(k)  (Mpc/h)^3    Pcb_linear(k) (Mpc/h)^3   ShotnoiseSubtracted = true
      0.0200456         178.716         180.847 
      0.0350414          122.64         121.509 
      0.0492313         82.2191         81.7183 
      0.0637834         65.5773         65.5405 
      0.0800726         52.5115         52.9414 
       0.096163         37.9991         37.6591 
       0.111083         28.5634         28.1607 
       0.126058         24.3119         24.3206 
       0.142273         21.2576         21.4304 
       0.158546         17.0352         17.0265 
        0.17375         13.6857         13.5503 
       0.188953         11.9149          11.867 
       0.204907         10.6991         10.8282 
       0.220756         9.35544         9.37335 
        0.23588         7.90357         7.89081 
         0.2514         6.92408          6.8991 
       0.267535         6.31341          6.3066 
       0.283568         5.68988         5.69487 
       0.299022         5.02273          5.0139 
       0.314451         4.50688         4.45482 
       0.330372         4.08494         4.06597 
       0.346141         3.75376         3.74354 
       0.361624         3.40867         3.40389 
       0.377134         3.08426         3.08244 
       0.392932         2.86653         2.82393 
       0.408854         2.61586         2.61364 
       0.424564         2.44398         2.41628 
       0.440253           2.237         2.22486 
       0.455999         2.05457         2.05564 
       0.471626         1.91144         1.91401 
        0.48727         1.80232          1.7867 
       0.502856         1.68421         1.66613 
       0.518488         1.55277         1.55439 
       0.534347         1.44627         1.45379 
       0.550082          1.3722         1.36452 
       0.565732         1.29996         1.28232 
       0.581496         1.21221         1.20501 
       0.597222         1.14026         1.13433 
       0.612804         1.07446         1.07063 
       0.628434         1.01541         1.01174 
       0.644267        0.963411        0.956257 
       0.660051         0.91176        0.904786 
       0.675724        0.859444          0.8576 
       0.691403        0.816161        0.813925 
       0.707174        0.774966        0.773042 
       0.722871          0.7465        0.735092 
        0.73838        0.700532        0.700064 
       0.754018        0.666949        0.667026 
       0.769845         0.63208        0.635737 
        0.78569        0.608366        0.606406 
       0.801365        0.582081        0.579195 
       0.817031        0.556741        0.553661 
       0.832809        0.529656        0.529496 
       0.848511        0.507843        0.506876 
       0.864097        0.488558         0.48573 
       0.879701        0.470417         0.46577 
       0.895507          0.4457        0.446695 
       0.911279        0.430596        0.428727 
        0.92691        0.416118        0.411895 
       0.942635        0.395547        0.395872 
       0.958396        0.381747        0.380667 
       0.974128        0.367552        0.366288 
       0.989692        0.353715        0.352791 
        1.00528        0.338606        0.339953 
        1.02113        0.329555        0.327552 
        1.03692        0.318414        0.315815 
        1.05264        0.304919        0.304704 
        1.06832        0.294867        0.294144 
        1.08405        0.283483        0.284055 
        1.09979        0.274927        0.274431 
        1.11537        0.264046        0.265347 
        1.13105        0.254579        0.256618 
        1.14679         0.24776        0.248248 
        1.16256         0.24041        0.240233 
        1.17828        0.232818        0.232597 
        1.19395        0.225533        0.225317 
         1.2097        0.217582        0.218311 
        1.22537        0.210164        0.211636 
          1.241        0.204126        0.205259 
        1.25666        0.198978        0.199128 
        1.27241        0.192178        0.193217 
        1.28819         0.18609        0.187536 
        1.30392        0.181583        0.182099 
        1.31957        0.175571        0.176901 
        1.33529        0.171224        0.171886 
        1.35108        0.165471        0.167045 
        1.36674        0.161466        0.162424 
         1.3824        0.156868        0.157982 
        1.39811         0.15174        0.153691 
        1.41389        0.148514        0.149542 
        1.42964        0.144268        0.145552 
        1.44531        0.140056        0.141727 
        1.46101        0.136047        0.138031 
        1.47667        0.132919        0.134477 
        1.49229        0.129352        0.131057 
        1.50793        0.126162        0.127752 
        1.52367        0.122667        0.124539 
        1.53953        0.119251        0.121415 
        1.55526        0.116374        0.118422 
        1.57092        0.114231        0.115542 
        1.58662        0.111121        0.112751 
        1.60235        0.108321        0.110046 
        1.61809        0.105356        0.107428 
        1.63369        0.102787        0.104918 
        1.64941        0.100457         0.10247 
        1.66519       0.0983603        0.100091 
        1.68085       0.0955834       0.0978043 
        1.69652       0.0935956       0.0955877 
        1.71228       0.0911185        0.093427 
        1.72806       0.0894834       0.0913311 
        1.74368        0.087233       0.0893202 
        1.75933       0.0854119       0.0873655 
        1.77505       0.0836692       0.0854599 
        1.79081       0.0814347       0.0836075 
         1.8065       0.0799515       0.0818176 
        1.82218       0.0777388       0.0800815 
        1.83797       0.0760516       0.0783837 
        1.85367       0.0744869       0.0767442 
        1.86928       0.0725733       0.0751612 
        1.88497       0.0712178        0.073614 
        1.90073       0.0695595       0.0721044 
        1.91647       0.0685414       0.0706383 
        1.93218       0.0673762       0.0692159 
        1.94787       0.0653343       0.0678346 
        1.96363       0.0641287       0.0664852 
        1.97935        0.062803       0.0651752 
        1.99499       0.0615552       0.0639077 
        2.01064       0.0602265       0.0626719 
         2.0264       0.0592985       0.0614608 
        2.04216       0.0579112       0.0602822 
        2.05781       0.0566973       0.0591418 
        2.07353       0.0556666       0.0580267 
        2.08928       0.0547101       0.0569377 
        2.10499       0.0535103       0.0558794 
        2.12065       0.0525052       0.0548511 
        2.13633       0.0515068       0.0538476 
        2.15211       0.0506797       0.0528627 
        2.16785       0.0493391        0.051905 
        2.18349       0.0486127       0.0509769 
        2.19916        0.047564       0.0500694 
        2.21489       0.0466772       0.0491809 
        2.23063        0.045975       0.0483132 
         2.2463       0.0450878       0.0474702 
        2.26194       0.0442969       0.0466494 
        2.27765       0.0435796       0.0458436 
        2.29341       0.0424872       0.0450547 
        2.30914       0.0418735       0.0442859 
        2.32486       0.0410434       0.0435353 
        2.34061        0.040323       0.0428008 
        2.35635       0.0396754       0.0420838 
        2.37203        0.039246       0.0413856 
        2.38768       0.0385407       0.0407046 
        2.40339       0.0377792       0.0400364 
        2.41914       0.0370202       0.0393816 
        2.43483       0.0365398       0.0387436 
         2.4505       0.0357988       0.0381207 
        2.46622       0.0351611       0.0375093 
        2.48195       0.0346028       0.0369113 
        2.49759       0.0339891       0.0363293 
        2.51328       0.0332777       0.0357583 
        2.52906         0.03288        0.035196 
        2.54479       0.0323713       0.0346477 
        2.56049       0.0317733       0.0341121 
        2.57618       0.0313628       0.0335882 
        2.59189       0.0306605       0.0330745 
        2.60758       0.0303586       0.0325723 
        2.62325       0.0296766        0.032081 
        2.63898       0.0293857       0.0315981 
        2.65468       0.0287874       0.0311261 
        2.67044       0.0283578       0.0306617 
        2.68618       0.0278778       0.0302078 
        2.70184       0.0276128       0.0297648 
        2.71755        0.027111       0.0293295 
        2.73329       0.0266973       0.0289022 
        2.74897       0.0262917       0.0284848 
        2.76462       0.0258348       0.0280765 
        2.78034       0.0254747       0.0276744 
        2.79607       0.0251225       0.0272798 
        2.81179         0.02464       0.0268933 
        2.82749        0.024408       0.0265146 
        2.84321       0.0239563       0.0261428 
        2.85893       0.0236078       0.0257781 
        2.87462       0.0232825        0.025421 
        2.89033        0.022927       0.0250703 
        2.90605       0.0225749       0.0247259 
        2.92176       0.0223538       0.0243881 
        2.93747       0.0219144       0.0240567 
        2.95318       0.0216944       0.0237314 
        2.96891       0.0213148       0.0234119 
        2.98456       0.0209787       0.0230996 
        3.00023        0.020828       0.0227926 
        3.01596       0.0204059       0.0224902 
        3.03164       0.0201843        0.022194 
        3.04738       0.0198824       0.0219024 
         3.0631       0.0194996        0.021616 
        3.07883       0.0193422       0.0213347 
        3.09456       0.0190877       0.0210584 
        3.11026       0.0187666       0.0207874 
        3.12596       0.0186173       0.0205211 
        3.14163       0.0183243       0.0202602 
        3.15734       0.0181128       0.0200031 
        3.17308       0.0178665       0.0197498 
        3.18879        0.017601       0.0195016 
        3.20447       0.0173534        0.019258 
         3.2202       0.0171418       0.0190178 
         3.2359       0.0169367        0.018782 
        3.25157       0.0166959       0.0185508 
        3.26729       0.0165183       0.0183228 
        3.28304       0.0163308       0.0180981 
        3.29877       0.0161167       0.0178775 
        3.31446       0.0158473        0.017661 
        3.33014       0.0157289       0.0174482 
        3.34585       0.0155046       0.0172386 
        3.36158       0.0152757       0.0170321 
        3.37727       0.0150879       0.0168297 
        3.39294       0.0149264       0.0166306 
        3.40867       0.0147994       0.0164341 
        3.42439       0.0145908       0.0162408 
        3.44008       0.0144356        0.016051 
        3.45578       0.0142592       0.0158641 
        3.47153       0.0141128       0.0156797 
        3.48724       0.0139216       0.0154985 
        3.50292       0.0138397       0.0153207 
        3.51859       0.0136612       0.0151456 
        3.53431       0.0134449       0.0149728 
        3.55007       0.0133398       0.0148022 
        3.56577       0.0131886       0.0146349 
        3.58146        0.013015       0.0144702 
        3.59719       0.0129304       0.0143077 
        3.61292       0.0127579       0.0141478 
        3.62859       0.0125977       0.0139908 
        3.64429       0.0124994       0.0138359 
        3.66003       0.0123745       0.0136829 
        3.67578       0.0122349       0.0135323 
        3.69146       0.0121346       0.0133844 
        3.70712       0.0120093        0.013239 
        3.72284       0.0118849       0.0130953 
        3.73853       0.0117504       0.0129539 
        3.75422       0.0116221       0.0128145 
        3.76993       0.0115427        0.012677 
        3.78564       0.0114097       0.0125416 
        3.80137       0.0113038       0.0124079 
        3.81707       0.0111873       0.0122765 
        3.83279       0.0110668       0.0121468 
        3.84853       0.0109843       0.0120188 
        3.86424       0.0109026       0.0118929 
        3.87992       0.0108108        0.011769 
        3.89561       0.0106818       0.0116468 
        3.91134       0.0106061        0.011526 
        3.92704       0.0104763       0.0114071 
        3.94273       0.0103872         0.01129 
        3.95845       0.0102941       0.0111744 
        3.97418       0.0102244       0.0110603 
        3.98988       0.0100745       0.0109479 
        4.00554      0.00999332       0.0108374 
        4.02125      0.00987794       0.0107281 
        4.03698      0.00974151       0.0106201 
        4.05268      0.00962208       0.0105139 
        4.06839       0.0095212        0.010409 
         4.0841      0.00936829       0.0103055 
        4.09983      0.00924298       0.0102034 
        4.11555      0.00913787       0.0101026 
        4.13124         0.00902       0.0100035 
        4.14693      0.00891518      0.00990556 
        4.16266      0.00879717      0.00980873 
        4.17839      0.00869834      0.00971325 
        4.19408      0.00857615      0.00961925 
        4.20977      0.00847816      0.00952644 
        4.22551      0.00840286      0.00943463 
        4.24123      0.00830103      0.00934411 
        4.25691      0.00825315      0.00925502 
        4.27259      0.00814761      0.00916706 
        4.28831      0.00808275      0.00908005 
        4.30404      0.00799873      0.00899408 
        4.31974      0.00794757      0.00890941 
        4.33543      0.00788592      0.00882586 
        4.35116      0.00780475      0.00874318 
        4.36688      0.00777684      0.00866159 
        4.38255      0.00772864      0.00858133 
        4.39825      0.00769189      0.00850191 
        4.41398      0.00764216      0.00842332 
         4.4297      0.00759649      0.00834581 
        4.44541      0.00753942      0.00826929 
        4.46111      0.00749026      0.00819377 
        4.47683      0.00751043      0.00811913 
        4.49251      0.00745975      0.00804557 
        4.50819      0.00746661      0.00797294 
         4.5239      0.00741539      0.00790109 
        4.53962      0.00740521      0.00783003 
        4.55535      0.00739205      0.00775981 
        4.57106      0.00740451      0.00769054 
        4.58678      0.00737739      0.00762209 
         4.6025      0.00739192      0.00755446 
        4.61821      0.00738489      0.00748766 
        4.63391      0.00739291      0.00742174 
         4.6496      0.00739676      0.00735664 
        4.66532      0.00739362      0.00729221 
        4.68103      0.00743448      0.00722858 
        4.69673      0.00744251      0.00716576 
        4.71241      0.00749949      0.00710375 
        4.72811      0.00748258      0.00704236 
        4.74384      0.00753117      0.00698162 
        4.75955      0.00755023      0.00692168 
        4.77525       0.0076065      0.00686247 
        4.79096      0.00765227      0.00680388 
        4.80669      0.00769768      0.00674594 
         4.8224      0.00772035      0.00668873 
        4.83809      0.00778898      0.00663225 
        4.85379       0.0078811      0.00657637 
         4.8695       0.0079109       0.0065211 
        4.88521      0.00796652      0.00646647 
        4.90093       0.0080273      0.00641246 
        4.91663      0.00813129      0.00635911 
        4.93234      0.00820356      0.00630631 
        4.94807      0.00823493      0.00625407 
        4.96377      0.00834141      0.00620251 
        4.97943      0.00849016      0.00615164 
        4.99514       0.0085371      0.00610121 
        5.01086       0.0086634      0.00605129 
        5.02654       0.0087269      0.00600206 
        5.04227      0.00881916      0.00595323 
          5.058      0.00897839      0.00590492 
        5.07371      0.00904296      0.00585723 
        5.08942      0.00922365      0.00581006 
        5.10513      0.00927915       0.0057634 
        5.12084      0.00939812      0.00571723 
        5.13656      0.00955113      0.00567157 
        5.15225      0.00971451      0.00562648 
        5.16796      0.00986921       0.0055818 
        5.18369      0.00999398      0.00553757 
         5.1994       0.0101637      0.00549389 
        5.21509       0.0102887      0.00545072 
        5.23079       0.0104708      0.00540796 
        5.24649       0.0106682      0.00536569 
        5.26217       0.0108051       0.0053239 
        5.27788       0.0109887      0.00528249 
        5.29359       0.0111538      0.00524151 
        5.30933       0.0113737       0.0052009 
        5.32504       0.0115734      0.00516079 
        5.34073       0.0117803      0.00512114 
        5.35646       0.0120195      0.00508183 
        5.37218       0.0122004      0.00504292 
        5.38789       0.0123716      0.00500447 
        5.40357       0.0126435      0.00496647 
        5.41929       0.0129202      0.00492878 
        5.43502       0.0131276      0.00489147 
         5.4507       0.0133884      0.00485463 
        5.46639       0.0136179      0.00481816 
        5.48212       0.0138898      0.00478199 
        5.49786       0.0142681      0.00474613 
        5.51353       0.0145681      0.00471082 
        5.52921       0.0147184      0.00467583 
        5.54495        0.015129       0.0046411 
        5.56066       0.0154551      0.00460675 
        5.57637       0.0157878      0.00457275 
        5.59207        0.016121      0.00453912 
        5.60778         0.01642      0.00450581 
        5.62346       0.0167194      0.00447288 
        5.63916       0.0171326      0.00444025 
        5.65487       0.0174529      0.00440792 
         5.6706       0.0178841      0.00437588 
        5.68633       0.0183726      0.00434414 
        5.70203       0.0187603      0.00431278 
        5.71773       0.0191505      0.00428173 
        5.73344       0.0194569      0.00425097 
        5.74916       0.0199147      0.00422048 
        5.76486       0.0204864      0.00419033 
        5.78054       0.0209544      0.00416052 
        5.79626       0.0213348      0.00413091 
          5.812        0.021924      0.00410156 
         5.8277        0.022299      0.00407258 
        5.84339       0.0229492      0.00404387 
        5.85911       0.0235617      0.00401539 
        5.87484       0.0240787      0.00398718 
        5.89053       0.0247161       0.0039593 
        5.90623       0.0252669      0.00393167 
        5.92195       0.0259199      0.00390426 
        5.93767       0.0265868      0.00387712 
        5.95336       0.0270711      0.00385027 
        5.96905       0.0279246       0.0038237 
        5.98476       0.0282445      0.00379733 
        6.00048        0.029378       0.0037712 
        6.01617       0.0298931      0.00374536 
        6.03185       0.0305998      0.00371978 
        6.04756       0.0314861      0.00369438 
        6.06331       0.0324448      0.00366916 
        6.07903       0.0331196      0.00364423 
        6.09473       0.0342298      0.00361955 
        6.11044       0.0351412      0.00359507 
        6.12616       0.0359279      0.00357083 
        6.14186       0.0366646      0.00354683 
        6.15755       0.0375634      0.00352305 
        6.17326       0.0387715      0.00349947 
        6.18898       0.0398869      0.00347609 
        6.20467       0.0410994      0.00345297 
        6.22036       0.0421122      0.00343005 
         6.2361       0.0431834      0.00340729 
         6.2518       0.0445832      0.00338476 
        6.26748        0.045287      0.00336249 
        6.28319       0.0470769      0.00334035 
        6.29893       0.0481744      0.00331839 
        6.31463       0.0497554      0.00329667 
        6.33033       0.0506565      0.00327514 
        6.34604       0.0523355      0.00325379 
        6.36177       0.0535493      0.00323261 
        6.37747       0.0552527      0.00321166 
