# k  (h/Mpc)    Pcb(k)  (Mpc/h)^3    Pcb_linear(k) (Mpc/h)^3   ShotnoiseSubtracted = true
      0.0200456         1950.97         1974.27 
      0.0350414         1349.01         1326.49 
      0.0492313         896.196         892.105 
      0.0637834         709.846         715.495 
      0.0800726         567.684         577.953 
       0.096163         419.252         411.118 
       0.111083         316.958         307.425 
       0.126058         265.449         265.504 
       0.142273         232.019         233.952 
       0.158546         187.757         185.875 
        0.17375         152.715         147.927 
       0.188953         133.474         129.551 
       0.204907         117.178         118.209 
       0.220756         104.327         102.327 
        0.23588         88.6505         86.1427 
         0.2514         77.7887         75.3163 
       0.267535         71.9324         68.8481 
       0.283568         64.2447           62.17 
       0.299022         57.7753         54.7359 
       0.314451         53.0194         48.6325 
       0.330372          47.321         44.3875 
       0.346141         43.4678         40.8676 
       0.361624         39.7092         37.1597 
       0.377134         35.9557         33.6505 
       0.392932         34.2737         30.8284 
       0.408854         31.1644         28.5326 
       0.424564         29.6596         26.3782 
       0.440253         26.9018         24.2884 
       0.455999         24.4276         22.4411 
       0.471626         22.9806         20.8949 
        0.48727         22.1636         19.5051 
       0.502856          20.698         18.1889 
       0.518488         19.0879          16.969 
       0.534347          17.847         15.8708 
       0.550082         17.0878         14.8963 
       0.565732         16.3332         13.9988 
       0.581496         15.2978         13.1549 
       0.597222         14.3937         12.3832 
       0.612804         13.5577         11.6879 
       0.628434         13.1996          11.045 
       0.644267         12.4674         10.4393 
       0.660051         11.7625          9.8774 
       0.675724         11.1341         9.36227 
       0.691403         10.8011         8.88548 
       0.707174         10.2592         8.43917 
       0.722871         9.94376         8.02488 
        0.73838         9.33212         7.64248 
       0.754018          8.8399         7.28182 
       0.769845         8.50861         6.94024 
        0.78569         8.26191         6.62003 
       0.801365         7.87952         6.32298 
       0.817031         7.57681         6.04422 
       0.832809         7.24522         5.78042 
       0.848511         7.01386         5.53348 
       0.864097         6.74366         5.30263 
       0.879701         6.58306         5.08473 
       0.895507         6.31299         4.87649 
       0.911279         6.03756         4.68034 
        0.92691         5.86955         4.49659 
       0.942635         5.65272         4.32167 
       0.958396         5.46304         4.15568 
       0.974128         5.31105          3.9987 
       0.989692         5.04564         3.85136 
        1.00528         4.97069         3.71121 
        1.02113         4.79451         3.57583 
        1.03692         4.67179          3.4477 
        1.05264         4.50358          3.3264 
        1.06832         4.38657         3.21112 
        1.08405         4.25554         3.10098 
        1.09979         4.13635         2.99592 
        1.11537         4.01513         2.89675 
        1.13105         3.89801         2.80146 
        1.14679         3.79902         2.71008 
        1.16256         3.68175         2.62258 
        1.17828          3.6158         2.53922 
        1.19395         3.48727         2.45975 
         1.2097         3.37858         2.38327 
        1.22537         3.28337         2.31039 
          1.241         3.20102         2.24078 
        1.25666          3.1698         2.17384 
        1.27241         3.09065         2.10932 
        1.28819         2.95979          2.0473 
        1.30392         2.89682         1.98794 
        1.31957         2.84284          1.9312 
        1.33529         2.75172         1.87645 
        1.35108         2.69659          1.8236 
        1.36674         2.61887         1.77316 
         1.3824         2.58792         1.72466 
        1.39811         2.51944         1.67781 
        1.41389         2.44909         1.63252 
        1.42964         2.40227         1.58897 
        1.44531         2.35003         1.54721 
        1.46101         2.31386         1.50686 
        1.47667         2.25739         1.46806 
        1.49229         2.18109         1.43073 
        1.50793         2.13125         1.39465 
        1.52367         2.09105         1.35958 
        1.53953          2.0423         1.32547 
        1.55526         2.03909          1.2928 
        1.57092          1.9788         1.26136 
        1.58662         1.95286         1.23089 
        1.60235          1.8966         1.20136 
        1.61809         1.86075         1.17278 
        1.63369         1.82126         1.14538 
        1.64941          1.7888         1.11865 
        1.66519          1.7642         1.09268 
        1.68085          1.7204         1.06771 
        1.69652         1.68922         1.04352 
        1.71228         1.65861         1.01993 
        1.72806         1.63213        0.997046 
        1.74368         1.59908        0.975093 
        1.75933         1.57402        0.953754 
        1.77505          1.5427        0.932951 
        1.79081         1.51051        0.912729 
         1.8065         1.49087         0.89319 
        1.82218          1.4535        0.874237 
        1.83797          1.4294        0.855702 
        1.85367         1.40725        0.837803 
        1.86928         1.38462        0.820522 
        1.88497          1.3569        0.803632 
        1.90073         1.34245        0.787152 
        1.91647         1.31345        0.771147 
        1.93218         1.29244        0.755619 
        1.94787         1.27653        0.740538 
        1.96363         1.25454        0.725808 
        1.97935          1.2322        0.711507 
        1.99499         1.21212         0.69767 
        2.01064         1.19404        0.684179 
         2.0264         1.17171        0.670958 
        2.04216         1.15721        0.658091 
        2.05781         1.13641        0.645641 
        2.07353         1.12467        0.633467 
        2.08928         1.10453        0.621579 
        2.10499         1.08296        0.610026 
        2.12065         1.07296          0.5988 
        2.13633         1.05568        0.587846 
        2.15211          1.0338        0.577093 
        2.16785         1.02368        0.566638 
        2.18349         1.00512        0.556506 
        2.19916        0.996591        0.546599 
        2.21489        0.984343        0.536899 
        2.23063        0.962702        0.527427 
         2.2463        0.946565        0.518225 
        2.26194        0.938866        0.509263 
        2.27765        0.918031        0.500467 
        2.29341        0.909298        0.491855 
        2.30914        0.894882        0.483462 
        2.32486        0.888213        0.475268 
        2.34061        0.873641        0.467249 
        2.35635        0.860781        0.459422 
        2.37203         0.85074          0.4518 
        2.38768        0.838121        0.444366 
        2.40339        0.828085        0.437071 
        2.41914        0.818751        0.429922 
        2.43483        0.807569        0.422957 
         2.4505        0.794767        0.416158 
        2.46622        0.784863        0.409483 
        2.48195        0.776321        0.402954 
        2.49759        0.763322        0.396601 
        2.51328        0.754972        0.390368 
        2.52906        0.747593        0.384228 
        2.54479        0.735207        0.378243 
        2.56049        0.728409        0.372396 
        2.57618        0.718566        0.366677 
        2.59189         0.71082        0.361069 
        2.60758        0.700805        0.355586 
        2.62325        0.692983        0.350223 
        2.63898         0.68475        0.344952 
        2.65468        0.672496        0.339799 
        2.67044        0.670021        0.334729 
        2.68618        0.662333        0.329773 
        2.70184        0.654432        0.324937 
        2.71755        0.647369        0.320185 
        2.73329        0.636217        0.315521 
        2.74897        0.630211        0.310964 
        2.76462        0.623061        0.306506 
        2.78034        0.617948        0.302117 
        2.79607        0.609328        0.297809 
        2.81179        0.602367        0.293589 
        2.82749        0.594928        0.289456 
        2.84321        0.587789        0.285396 
        2.85893        0.581888        0.281416 
        2.87462        0.576242        0.277517 
        2.89033        0.571001        0.273689 
        2.90605        0.564726        0.269929 
        2.92176        0.559689        0.266241 
        2.93747        0.552751        0.262623 
        2.95318        0.545876        0.259072 
        2.96891        0.543883        0.255584 
        2.98456        0.534139        0.252175 
        3.00023        0.529737        0.248823 
        3.01596         0.52407        0.245521 
        3.03164        0.519539        0.242289 
        3.04738        0.514461        0.239104 
         3.0631        0.508121        0.235978 
        3.07883        0.503309        0.232907 
        3.09456        0.498434        0.229891 
        3.11026        0.494752        0.226932 
        3.12596        0.489131        0.224026 
        3.14163        0.486699        0.221177 
        3.15734        0.479429         0.21837 
        3.17308        0.476375        0.215605 
        3.18879         0.47261        0.212896 
        3.20447        0.467766        0.210236 
         3.2202        0.460842        0.207614 
         3.2359        0.457461         0.20504 
        3.25157        0.452607        0.202516 
        3.26729        0.449893        0.200027 
        3.28304        0.446613        0.197574 
        3.29877        0.441861        0.195165 
        3.31446         0.43913        0.192802 
        3.33014        0.432787        0.190479 
        3.34585        0.430216        0.188191 
        3.36158        0.426305        0.185937 
        3.37727        0.424544        0.183727 
        3.39294         0.41859        0.181554 
        3.40867        0.415999        0.179408 
        3.42439        0.413288        0.177298 
        3.44008        0.408756        0.175226 
        3.45578          0.4058        0.173186 
        3.47153        0.402895        0.171173 
        3.48724        0.398953        0.169195 
        3.50292        0.395355        0.167253 
        3.51859        0.394893        0.165342 
        3.53431        0.388582        0.163455 
        3.55007        0.386344        0.161593 
        3.56577        0.383792        0.159767 
        3.58146        0.381276        0.157969 
        3.59719        0.378119        0.156195 
        3.61292        0.374551        0.154449 
        3.62859        0.372063        0.152735 
        3.64429        0.368451        0.151045 
        3.66003        0.365592        0.149374 
        3.67578        0.363486        0.147729 
        3.69146        0.361459        0.146115 
        3.70712        0.358689        0.144528 
        3.72284        0.356048        0.142959 
        3.73853        0.352607        0.141415 
        3.75422        0.350346        0.139893 
        3.76993        0.347822        0.138393 
        3.78564        0.344995        0.136915 
        3.80137        0.342451        0.135455 
        3.81707        0.339639         0.13402 
        3.83279        0.337429        0.132605 
        3.84853        0.334904        0.131208 
        3.86424        0.332394        0.129833 
        3.87992        0.331377         0.12848 
        3.89561         0.32869        0.127146 
        3.91134        0.324836        0.125828 
        3.92704        0.323737         0.12453 
        3.94273        0.321266        0.123252 
        3.95845         0.31901        0.121989 
        3.97418        0.316812        0.120743 
        3.98988        0.314916        0.119516 
        4.00554        0.311614         0.11831 
        4.02125        0.309848        0.117117 
        4.03698        0.306337        0.115938 
        4.05268        0.303761        0.114778 
        4.06839        0.301056        0.113633 
         4.0841        0.297717        0.112504 
        4.09983        0.295981        0.111388 
        4.11555        0.292777        0.110288 
        4.13124        0.290487        0.109206 
        4.14693        0.289213        0.108137 
        4.16266        0.284478         0.10708 
        4.17839        0.282003        0.106038 
        4.19408        0.281041        0.105012 
        4.20977        0.278392        0.103999 
        4.22551        0.276239        0.102996 
        4.24123        0.274403        0.102008 
        4.25691        0.272222        0.101036 
        4.27259        0.269754        0.100075 
        4.28831        0.268023       0.0991254 
        4.30404        0.266521       0.0981869 
        4.31974        0.264659       0.0972625 
        4.33543        0.262328       0.0963505 
        4.35116        0.260993       0.0954479 
        4.36688        0.258915       0.0945571 
        4.38255        0.257789       0.0936809 
        4.39825        0.255819       0.0928139 
        4.41398        0.254079        0.091956 
         4.4297        0.253657       0.0911099 
        4.44541          0.2517       0.0902744 
        4.46111        0.250207         0.08945 
        4.47683         0.24885       0.0886352 
        4.49251        0.247891       0.0878322 
        4.50819        0.246838       0.0870392 
         4.5239         0.24559       0.0862549 
        4.53962        0.243947       0.0854791 
        4.55535        0.243525       0.0847125 
        4.57106        0.242355       0.0839563 
        4.58678         0.24138       0.0832091 
         4.6025        0.240677       0.0824708 
        4.61821        0.239613       0.0817415 
        4.63391        0.240255       0.0810219 
         4.6496        0.237825       0.0803112 
        4.66532        0.237243       0.0796078 
        4.68103        0.236316       0.0789132 
        4.69673        0.235888       0.0782274 
        4.71241        0.235828       0.0775504 
        4.72811         0.23526       0.0768803 
        4.74384        0.234424       0.0762171 
        4.75955        0.234153       0.0755628 
        4.77525        0.233628       0.0749164 
        4.79096        0.233623       0.0742768 
        4.80669        0.232559       0.0736443 
         4.8224        0.232096       0.0730198 
        4.83809        0.232096       0.0724031 
        4.85379        0.232514       0.0717932 
         4.8695        0.232557       0.0711897 
        4.88521        0.232464       0.0705934 
        4.90093        0.232141       0.0700038 
        4.91663         0.23229       0.0694214 
        4.93234        0.231627       0.0688449 
        4.94807        0.231966       0.0682746 
        4.96377        0.232991       0.0677118 
        4.97943        0.232157       0.0671564 
        4.99514         0.23264       0.0666058 
        5.01086        0.232916        0.066061 
        5.02654        0.234131       0.0655235 
        5.04227        0.233226       0.0649905 
          5.058        0.234322        0.064463 
        5.07371        0.234532       0.0639424 
        5.08942        0.235714       0.0634275 
        5.10513        0.236009       0.0629181 
        5.12084        0.235887        0.062414 
        5.13656        0.236927       0.0619156 
        5.15225        0.237807       0.0614233 
        5.16796        0.238321       0.0609356 
        5.18369         0.23857       0.0604527 
         5.1994        0.239683       0.0599759 
        5.21509        0.240937       0.0595046 
        5.23079        0.240905       0.0590378 
        5.24649        0.242938       0.0585763 
        5.26217         0.24272       0.0581201 
        5.27788        0.244436        0.057668 
        5.29359        0.245696       0.0572207 
        5.30933        0.246473       0.0567774 
        5.32504        0.247749       0.0563395 
        5.34073        0.249261       0.0559066 
        5.35646        0.250122       0.0554775 
        5.37218        0.251466       0.0550527 
        5.38789        0.251845        0.054633 
        5.40357        0.253674       0.0542181 
        5.41929        0.255294       0.0538066 
        5.43502        0.257452       0.0533993 
         5.4507        0.258299       0.0529972 
        5.46639         0.25953       0.0525991 
        5.48212        0.260475       0.0522041 
        5.49786        0.262782       0.0518127 
        5.51353        0.264858       0.0514273 
        5.52921        0.265162       0.0510453 
        5.54495        0.267584       0.0506661 
        5.56066        0.269746       0.0502911 
        5.57637        0.270675       0.0499199 
        5.59207         0.27364       0.0495528 
        5.60778         0.27466       0.0491892 
        5.62346        0.275975       0.0488297 
        5.63916        0.278346       0.0484735 
        5.65487        0.279924       0.0481206 
         5.6706        0.281135       0.0477708 
        5.68633        0.285359       0.0474243 
        5.70203        0.285862       0.0470819 
        5.71773        0.287848       0.0467429 
        5.73344        0.290518       0.0464071 
        5.74916        0.292019       0.0460743 
        5.76486        0.294272       0.0457451 
        5.78054        0.297342       0.0454197 
        5.79626        0.297626       0.0450965 
          5.812        0.301588        0.044776 
         5.8277         0.30276       0.0444596 
        5.84339        0.305405       0.0441463 
        5.85911        0.307492       0.0438353 
        5.87484        0.309997       0.0435274 
        5.89053        0.313455        0.043223 
        5.90623        0.315485       0.0429214 
        5.92195         0.31673       0.0426221 
        5.93767         0.31949       0.0423258 
        5.95336        0.321512       0.0420328 
        5.96905        0.323495       0.0417427 
        5.98476        0.324967       0.0414548 
        6.00048        0.327285       0.0411696 
        6.01617        0.330401       0.0408874 
        6.03185        0.332564       0.0406082 
        6.04756        0.334835       0.0403309 
        6.06331         0.33714       0.0400556 
        6.07903        0.339087       0.0397834 
        6.09473        0.343174        0.039514 
        6.11044        0.343887       0.0392468 
        6.12616        0.346751       0.0389821 
        6.14186        0.348855       0.0387201 
        6.15755        0.352676       0.0384605 
        6.17326        0.354162       0.0382031 
        6.18898        0.355878       0.0379479 
        6.20467        0.360206       0.0376955 
        6.22036        0.359663       0.0374453 
         6.2361        0.363379       0.0371968 
         6.2518        0.366333       0.0369509 
        6.26748        0.367626       0.0367077 
        6.28319        0.371572        0.036466 
        6.29893        0.373226       0.0362263 
        6.31463        0.377822       0.0359892 
        6.33033         0.37764       0.0357542 
        6.34604        0.380795       0.0355211 
        6.36177        0.381257       0.0352899 
        6.37747        0.385237       0.0350612 
