# k  (h/Mpc)    Pcb(k)  (Mpc/h)^3    Pcb_linear(k) (Mpc/h)^3   ShotnoiseSubtracted = true
      0.0200456         8324.17         8455.34 
      0.0350414         5559.66         5681.06 
      0.0492313         3821.49         3820.68 
      0.0637834         3150.51          3064.3 
      0.0800726         2522.45         2475.24 
       0.096163         1738.51         1760.72 
       0.111083         1309.06         1316.63 
       0.126058         1171.18         1137.09 
       0.142273         1040.44         1001.96 
       0.158546         856.861         796.061 
        0.17375         662.631         633.535 
       0.188953          617.81         554.834 
       0.204907         586.075         506.263 
       0.220756         497.946         438.244 
        0.23588         428.781         368.929 
         0.2514         368.634         322.562 
       0.267535         352.316          294.86 
       0.283568          320.75         266.259 
       0.299022         294.683         234.421 
       0.314451         268.093         208.282 
       0.330372         246.955         190.101 
       0.346141         221.702         175.026 
       0.361624         211.609         159.146 
       0.377134         196.524         144.117 
       0.392932          179.99         132.031 
       0.408854         171.979         122.199 
       0.424564         164.308         112.971 
       0.440253         155.134         104.022 
       0.455999         145.032           96.11 
       0.471626         134.137         89.4882 
        0.48727         129.203         83.5359 
       0.502856         123.747         77.8988 
       0.518488         120.286         72.6743 
       0.534347         114.567         67.9709 
       0.550082          105.67         63.7973 
       0.565732         101.501         59.9537 
       0.581496         97.3503         56.3394 
       0.597222         93.9085         53.0345 
       0.612804         89.4532         50.0566 
       0.628434         87.0272         47.3033 
       0.644267         83.8355          44.709 
       0.660051         81.8545         42.3026 
       0.675724         78.7351         40.0964 
       0.691403         76.2037         38.0544 
       0.707174         73.2275          36.143 
       0.722871         71.7299         34.3687 
        0.73838         70.0792         32.7309 
       0.754018         66.4926         31.1863 
       0.769845         65.0588         29.7234 
        0.78569         63.3981          28.352 
       0.801365         61.1669         27.0798 
       0.817031         59.0902          25.886 
       0.832809          58.331         24.7562 
       0.848511           55.75         23.6986 
       0.864097         54.5053         22.7099 
       0.879701          53.441         21.7767 
       0.895507         52.5414         20.8849 
       0.911279         51.2258         20.0448 
        0.92691         50.0762         19.2578 
       0.942635         48.1944         18.5087 
       0.958396         47.9889         17.7978 
       0.974128         46.6329         17.1255 
       0.989692         45.7046         16.4945 
        1.00528         44.6219         15.8943 
        1.02113         43.5929         15.3145 
        1.03692         42.3242         14.7657 
        1.05264         42.2214         14.2462 
        1.06832         40.7226         13.7525 
        1.08405          40.241         13.2808 
        1.09979         39.7945         12.8308 
        1.11537         38.2278         12.4061 
        1.13105         38.4856          11.998 
        1.14679         37.5238         11.6066 
        1.16256         36.7442         11.2319 
        1.17828         35.8757         10.8749 
        1.19395         35.3683         10.5345 
         1.2097         34.7336          10.207 
        1.22537         34.6207         9.89487 
          1.241         33.5527         9.59671 
        1.25666         32.8715         9.31005 
        1.27241         32.4731         9.03372 
        1.28819         31.6707          8.7681 
        1.30392         31.2802         8.51389 
        1.31957         30.9815         8.27086 
        1.33529         30.5231         8.03639 
        1.35108         30.1142         7.81005 
        1.36674         29.6141         7.59402 
         1.3824         28.8067         7.38633 
        1.39811         28.7227         7.18568 
        1.41389         28.3047          6.9917 
        1.42964         27.7396         6.80518 
        1.44531         27.3906         6.62634 
        1.46101         26.7908         6.45353 
        1.47667          26.674         6.28737 
        1.49229         26.3497         6.12749 
        1.50793         25.9414         5.97296 
        1.52367         25.5513         5.82274 
        1.53953         25.4117         5.67667 
        1.55526         24.9051         5.53675 
        1.57092         24.5797          5.4021 
        1.58662         24.2494         5.27159 
        1.60235         23.9508         5.14513 
        1.61809         23.5904         5.02273 
        1.63369         23.3147         4.90538 
        1.64941           22.99         4.79092 
        1.66519         22.6885         4.67969 
        1.68085         22.4611         4.57276 
        1.69652          22.181         4.46913 
        1.71228         22.0115         4.36811 
        1.72806         21.6112         4.27011 
        1.74368         21.2494         4.17609 
        1.75933         21.0175         4.08471 
        1.77505         20.9784         3.99561 
        1.79081          20.603           3.909 
         1.8065         20.3811         3.82532 
        1.82218         20.1695         3.74415 
        1.83797         19.8554         3.66477 
        1.85367         19.6422         3.58812 
        1.86928          19.453          3.5141 
        1.88497         19.1763         3.44177 
        1.90073         19.0836         3.37119 
        1.91647         18.7663         3.30264 
        1.93218         18.6261         3.23614 
        1.94787         18.3647         3.17155 
        1.96363         18.2907         3.10847 
        1.97935         18.0281         3.04722 
        1.99499         17.8186         2.98795 
        2.01064         17.7135         2.93018 
         2.0264          17.362         2.87355 
        2.04216         17.2496         2.81845 
        2.05781         16.9774         2.76513 
        2.07353         16.8829         2.71299 
        2.08928         16.7955         2.66208 
        2.10499          16.602          2.6126 
        2.12065         16.2948         2.56452 
        2.13633         16.2126          2.5176 
        2.15211         15.9853         2.47155 
        2.16785         15.8389         2.42678 
        2.18349         15.6743         2.38338 
        2.19916         15.5547         2.34095 
        2.21489         15.3705         2.29941 
        2.23063         15.2274         2.25885 
         2.2463         15.0975         2.21943 
        2.26194          14.986         2.18106 
        2.27765          14.762         2.14338 
        2.29341         14.5864          2.1065 
        2.30914         14.5118         2.07055 
        2.32486         14.3783         2.03546 
        2.34061          14.238         2.00112 
        2.35635         14.0465          1.9676 
        2.37203         13.9179         1.93495 
        2.38768         13.7993         1.90311 
        2.40339         13.6665         1.87187 
        2.41914         13.5486         1.84125 
        2.43483         13.4254         1.81143 
         2.4505         13.2532         1.78231 
        2.46622         13.1322         1.75372 
        2.48195         13.0262         1.72576 
        2.49759         12.8651         1.69855 
        2.51328         12.7542         1.67185 
        2.52906         12.6868         1.64556 
        2.54479         12.5493         1.61993 
        2.56049          12.442         1.59489 
        2.57618         12.3362         1.57039 
        2.59189         12.2211         1.54637 
        2.60758         12.1174         1.52289 
        2.62325         12.0205         1.49992 
        2.63898         11.8966         1.47735 
        2.65468         11.7869         1.45528 
        2.67044         11.6583         1.43356 
        2.68618         11.5631         1.41234 
        2.70184         11.4762         1.39163 
        2.71755         11.3489         1.37128 
        2.73329         11.2708          1.3513 
        2.74897         11.1193         1.33178 
        2.76462         11.1118         1.31269 
        2.78034         10.9279          1.2939 
        2.79607           10.86         1.27545 
        2.81179         10.7311         1.25737 
        2.82749         10.6468         1.23967 
        2.84321         10.5656         1.22229 
        2.85893         10.4848         1.20524 
        2.87462         10.3729         1.18854 
        2.89033         10.2579         1.17214 
        2.90605         10.2146         1.15604 
        2.92176         10.0822         1.14025 
        2.93747         10.0472         1.12475 
        2.95318          9.9169         1.10954 
        2.96891         9.84229          1.0946 
        2.98456          9.7734         1.08001 
        3.00023         9.66849         1.06565 
        3.01596         9.62042         1.05151 
        3.03164         9.54071         1.03767 
        3.04738         9.41079         1.02403 
         3.0631         9.36829         1.01064 
        3.07883         9.25166        0.997486 
        3.09456         9.18925        0.984568 
        3.11026         9.11314        0.971898 
        3.12596          9.0446         0.95945 
        3.14163         8.96198        0.947248 
        3.15734          8.8738        0.935229 
        3.17308         8.80686        0.923388 
        3.18879         8.76758        0.911782 
        3.20447         8.65969        0.900392 
         3.2202         8.60491         0.88916 
         3.2359         8.55096        0.878139 
        3.25157         8.47396        0.867329 
        3.26729         8.39254        0.856667 
        3.28304          8.3382        0.846163 
        3.29877         8.24986        0.835847 
        3.31446         8.18609        0.825725 
        3.33014         8.11674        0.815778 
        3.34585         8.07836        0.805979 
        3.36158         8.01806        0.796325 
        3.37727         7.91082        0.786858 
        3.39294         7.87334        0.777553 
        3.40867         7.78914        0.768364 
        3.42439         7.72738        0.759328 
        3.44008         7.69783        0.750453 
        3.45578         7.61673        0.741713 
        3.47153         7.57905        0.733092 
        3.48724         7.51005        0.724622 
        3.50292           7.442        0.716305 
        3.51859         7.40103        0.708122 
        3.53431         7.33309         0.70004 
        3.55007         7.27588        0.692064 
        3.56577         7.22526        0.684243 
        3.58146         7.17596        0.676545 
        3.59719         7.10762        0.668947 
        3.61292         7.03143        0.661467 
        3.62859         6.99051         0.65413 
        3.64429         6.96726        0.646889 
        3.66003         6.87703        0.639734 
        3.67578         6.81161         0.63269 
        3.69146         6.77544        0.625778 
        3.70712          6.7194        0.618981 
        3.72284         6.67958        0.612258 
        3.73853         6.60639        0.605647 
        3.75422         6.59727        0.599131 
        3.76993         6.51578        0.592704 
        3.78564         6.47099        0.586373 
        3.80137         6.41442        0.580124 
        3.81707         6.37292        0.573978 
        3.83279         6.32592        0.567916 
        3.84853         6.26768        0.561931 
        3.86424         6.23012        0.556044 
        3.87992         6.17039        0.550248 
        3.89561         6.13264        0.544535 
        3.91134         6.07938        0.538891 
        3.92704         6.02912        0.533332 
        3.94273         6.00794        0.527857 
        3.95845         5.95613        0.522449 
        3.97418         5.88705        0.517114 
        3.98988         5.86195        0.511861 
        4.00554         5.82601        0.506695 
        4.02125         5.77086        0.501584 
        4.03698         5.71907        0.496536 
        4.05268         5.69167        0.491568 
        4.06839         5.63935        0.486664 
         4.0841         5.59908        0.481828 
        4.09983         5.55685         0.47705 
        4.11555         5.52744        0.472339 
        4.13124         5.48955        0.467704 
        4.14693         5.43807        0.463127 
        4.16266         5.39648          0.4586 
        4.17839         5.35078        0.454136 
        4.19408         5.31395        0.449741 
        4.20977         5.26807        0.445401 
        4.22551         5.22943        0.441109 
        4.24123         5.19193        0.436877 
        4.25691         5.14114        0.432711 
        4.27259         5.11394        0.428599 
        4.28831         5.07532        0.424531 
        4.30404         5.05164        0.420511 
        4.31974         5.00023        0.416552 
        4.33543         4.96497        0.412646 
        4.35116         4.91697        0.408781 
        4.36688         4.87745        0.404966 
        4.38255         4.85691        0.401213 
        4.39825         4.79982          0.3975 
        4.41398         4.79202        0.393826 
         4.4297         4.74367        0.390202 
        4.44541         4.70853        0.386624 
        4.46111         4.69461        0.383093 
        4.47683         4.65017        0.379604 
        4.49251         4.61807        0.376165 
        4.50819         4.57159        0.372769 
         4.5239         4.54949        0.369409 
        4.53962         4.52108        0.366087 
        4.55535         4.49126        0.362804 
        4.57106         4.45083        0.359565 
        4.58678          4.4241        0.356365 
         4.6025         4.38658        0.353203 
        4.61821         4.36002         0.35008 
        4.63391         4.33311        0.346998 
         4.6496         4.29937        0.343954 
        4.66532         4.28441        0.340942 
        4.68103         4.23593        0.337967 
        4.69673         4.22008         0.33503 
        4.71241         4.19041         0.33213 
        4.72811         4.15161         0.32926 
        4.74384         4.12289         0.32642 
        4.75955         4.08858        0.323618 
        4.77525         4.06402        0.320849 
        4.79096         4.04345         0.31811 
        4.80669         4.01593        0.315401 
         4.8224         3.99603        0.312727 
        4.83809         3.95543        0.310086 
        4.85379         3.93047        0.307473 
         4.8695         3.91452        0.304889 
        4.88521         3.88903        0.302335 
        4.90093         3.84669         0.29981 
        4.91663          3.8372        0.297315 
        4.93234         3.80874        0.294847 
        4.94807         3.77375        0.292404 
        4.96377         3.74478        0.289994 
        4.97943         3.72047        0.287615 
        4.99514         3.69829        0.285257 
        5.01086         3.67624        0.282924 
        5.02654         3.65703        0.280622 
        5.04227         3.62104        0.278339 
          5.058         3.60252         0.27608 
        5.07371         3.57956         0.27385 
        5.08942         3.55629        0.271645 
        5.10513         3.53518        0.269463 
        5.12084         3.51542        0.267305 
        5.13656         3.49308         0.26517 
        5.15225         3.46897        0.263062 
        5.16796         3.44319        0.260973 
        5.18369         3.42084        0.258905 
         5.1994         3.40219        0.256863 
        5.21509         3.37438        0.254844 
        5.23079         3.36313        0.252845 
        5.24649         3.33746        0.250869 
        5.26217         3.31253        0.248915 
        5.27788         3.29356        0.246979 
        5.29359         3.27116        0.245063 
        5.30933         3.24764        0.243164 
        5.32504         3.23733        0.241289 
        5.34073         3.20975        0.239435 
        5.35646         3.18687        0.237597 
        5.37218         3.17099        0.235778 
        5.38789         3.14813         0.23398 
        5.40357         3.13127        0.232204 
        5.41929           3.107        0.230441 
        5.43502         3.09069        0.228697 
         5.4507         3.07413        0.226974 
        5.46639         3.05414         0.22527 
        5.48212         3.03389        0.223578 
        5.49786         3.01576        0.221902 
        5.51353         2.99302        0.220251 
        5.52921         2.98047        0.218615 
        5.54495         2.96157        0.216991 
        5.56066         2.94575        0.215385 
        5.57637         2.92737        0.213795 
        5.59207         2.90809        0.212223 
        5.60778         2.88552        0.210666 
        5.62346         2.86927        0.209126 
        5.63916         2.85245          0.2076 
        5.65487         2.83644        0.206089 
         5.6706         2.81899        0.204591 
        5.68633         2.80739        0.203107 
        5.70203         2.78448        0.201641 
        5.71773         2.77202        0.200189 
        5.73344         2.75996        0.198751 
        5.74916         2.73905        0.197325 
        5.76486         2.72685        0.195916 
        5.78054         2.70724        0.194522 
        5.79626          2.6924        0.193137 
          5.812         2.67605        0.191765 
         5.8277         2.66306         0.19041 
        5.84339          2.6447        0.189068 
        5.85911         2.63561        0.187736 
        5.87484         2.61721        0.186418 
        5.89053         2.59698        0.185114 
        5.90623         2.58448        0.183822 
        5.92195         2.57019         0.18254 
        5.93767         2.55739        0.181272 
        5.95336         2.54478        0.180017 
        5.96905         2.52822        0.178774 
        5.98476         2.51631        0.177541 
        6.00048          2.4974         0.17632 
        6.01617         2.48489        0.175111 
        6.03185         2.46712        0.173915 
        6.04756         2.45287        0.172728 
        6.06331         2.44032        0.171549 
        6.07903         2.42704        0.170383 
        6.09473         2.41891        0.169229 
        6.11044         2.40029        0.168085 
        6.12616         2.38811        0.166951 
        6.14186         2.37841        0.165829 
        6.15755         2.36359        0.164717 
        6.17326          2.3495        0.163615 
        6.18898         2.33446        0.162522 
        6.20467         2.32774        0.161441 
        6.22036         2.30935         0.16037 
         6.2361         2.29503        0.159305 
         6.2518          2.2858        0.158252 
        6.26748          2.2798         0.15721 
        6.28319         2.26068        0.156175 
        6.29893         2.24879        0.155149 
        6.31463         2.23548        0.154133 
        6.33033         2.22604        0.153127 
        6.34604         2.21304        0.152129 
        6.36177         2.20468        0.151138 
        6.37747         2.18835        0.150159 
