# k  (h/Mpc)    Pcb(k)  (Mpc/h)^3    Pcb_linear(k) (Mpc/h)^3   ShotnoiseSubtracted = true
      0.0200456         27972.5         28463.2 
      0.0350414         19884.2         19124.1 
      0.0492313         12631.3         12861.5 
      0.0637834         9892.16         10315.3 
      0.0800726         7819.52         8332.37 
       0.096163         6274.75         5927.11 
       0.111083         4861.85         4432.16 
       0.126058         3946.42         3827.78 
       0.142273         3537.23          3372.9 
       0.158546         2888.55         2679.77 
        0.17375         2537.69         2132.66 
       0.188953         2397.04         1867.74 
       0.204907         2061.03         1704.23 
       0.220756         1876.31         1475.26 
        0.23588         1657.94         1241.92 
         0.2514         1497.06         1085.84 
       0.267535         1436.17         992.587 
       0.283568         1284.82         896.308 
       0.299022         1212.45         789.131 
       0.314451         1267.29         701.137 
       0.330372         1121.93         639.936 
       0.346141         1026.83          589.19 
       0.361624         982.931         535.733 
       0.377134         946.498         485.141 
       0.392932         890.075         444.454 
       0.408854         858.046         411.356 
       0.424564         837.522         380.295 
       0.440253         776.651         350.167 
       0.455999          739.37         323.535 
       0.471626         751.648         301.244 
        0.48727         705.561         281.206 
       0.502856         686.001          262.23 
       0.518488         655.903         244.643 
       0.534347         636.566          228.81 
       0.550082         604.846          214.76 
       0.565732         592.642         201.822 
       0.581496         579.172         189.655 
       0.597222         568.091          178.53 
       0.612804         551.209         168.505 
       0.628434         528.345         159.237 
       0.644267         512.975         150.504 
       0.660051         507.617         142.403 
       0.675724         495.472         134.976 
       0.691403         478.566         128.102 
       0.707174         465.248         121.668 
       0.722871         464.974         115.695 
        0.73838         447.447         110.182 
       0.754018         438.004         104.982 
       0.769845         432.532         100.058 
        0.78569         422.132         95.4413 
       0.801365         408.054         91.1587 
       0.817031         402.937         87.1399 
       0.832809         397.041         83.3365 
       0.848511         390.298         79.7764 
       0.864097         378.946         76.4483 
       0.879701          380.88         73.3068 
       0.895507         365.282         70.3046 
       0.911279         359.777         67.4767 
        0.92691          355.24         64.8275 
       0.942635         348.676         62.3058 
       0.958396         338.621         59.9127 
       0.974128           332.3         57.6494 
       0.989692         325.685         55.5252 
        1.00528         318.871         53.5047 
        1.02113         314.949          51.553 
        1.03692          309.57         49.7056 
        1.05264         306.283         47.9569 
        1.06832         298.175         46.2949 
        1.08405         296.629         44.7069 
        1.09979         289.139         43.1923 
        1.11537         282.569         41.7625 
        1.13105         278.761         40.3888 
        1.14679         273.951         39.0713 
        1.16256          271.86         37.8099 
        1.17828         267.802         36.6081 
        1.19395         261.255         35.4624 
         1.2097         257.955         34.3597 
        1.22537         254.701         33.3091 
          1.241         247.872         32.3054 
        1.25666         245.995         31.3404 
        1.27241         243.221         30.4102 
        1.28819         236.677          29.516 
        1.30392         236.666         28.6603 
        1.31957         230.171         27.8421 
        1.33529           225.9         27.0529 
        1.35108           225.8         26.2909 
        1.36674         220.335         25.5637 
         1.3824         216.315         24.8645 
        1.39811         213.116         24.1891 
        1.41389         209.947         23.5361 
        1.42964         206.279         22.9082 
        1.44531         204.717         22.3062 
        1.46101         200.232         21.7245 
        1.47667         197.286         21.1651 
        1.49229         195.806         20.6269 
        1.50793         191.787         20.1067 
        1.52367         188.375         19.6011 
        1.53953         186.051         19.1093 
        1.55526         182.786         18.6383 
        1.57092         181.599         18.1851 
        1.58662          177.89         17.7457 
        1.60235         175.387           17.32 
        1.61809         173.248          16.908 
        1.63369         169.712         16.5129 
        1.64941         167.892         16.1277 
        1.66519         164.979         15.7532 
        1.68085         162.055         15.3933 
        1.69652         160.722         15.0444 
        1.71228         158.225         14.7043 
        1.72806         156.494         14.3745 
        1.74368         154.192          14.058 
        1.75933          152.46         13.7503 
        1.77505         150.253         13.4504 
        1.79081         147.805         13.1589 
         1.8065         146.798         12.8772 
        1.82218         142.729         12.6039 
        1.83797         141.622         12.3367 
        1.85367         139.622         12.0787 
        1.86928         137.744         11.8295 
        1.88497         136.674          11.586 
        1.90073         134.801         11.3484 
        1.91647          132.68         11.1177 
        1.93218         130.108         10.8938 
        1.94787         128.194         10.6764 
        1.96363         127.618          10.464 
        1.97935         126.132         10.2578 
        1.99499         123.972         10.0583 
        2.01064         122.021         9.86384 
         2.0264          121.12         9.67323 
        2.04216         118.648         9.48773 
        2.05781         117.133         9.30824 
        2.07353         115.987         9.13273 
        2.08928         113.873         8.96134 
        2.10499         113.203         8.79478 
        2.12065         111.956         8.63293 
        2.13633          110.17           8.475 
        2.15211         108.538         8.31998 
        2.16785         107.449         8.16924 
        2.18349         105.911         8.02317 
        2.19916         105.137         7.88034 
        2.21489         102.839          7.7405 
        2.23063         101.395         7.60394 
         2.2463         100.133         7.47127 
        2.26194         99.3582         7.34208 
        2.27765         97.8312         7.21526 
        2.29341          96.513         7.09109 
        2.30914         95.6037         6.97009 
        2.32486         94.5653         6.85196 
        2.34061         93.1425         6.73636 
        2.35635         92.0386         6.62351 
        2.37203         90.5501         6.51362 
        2.38768         89.5375         6.40644 
        2.40339          88.588         6.30127 
        2.41914         87.2969         6.19821 
        2.43483         86.3982          6.0978 
         2.4505         85.5098         5.99976 
        2.46622         84.1484         5.90354 
        2.48195          82.946         5.80941 
        2.49759         81.9303         5.71782 
        2.51328         81.3306         5.62795 
        2.52906         80.2711         5.53944 
        2.54479         79.3121         5.45315 
        2.56049         78.1262         5.36885 
        2.57618          77.258          5.2864 
        2.59189          76.473         5.20555 
        2.60758         75.1253          5.1265 
        2.62325         74.4498         5.04919 
        2.63898         73.5627         4.97319 
        2.65468         72.9288          4.8989 
        2.67044         71.8932          4.8258 
        2.68618         70.8785         4.75436 
        2.70184         70.0737         4.68463 
        2.71755         69.4285         4.61613 
        2.73329         68.3825         4.54888 
        2.74897         67.9007         4.48318 
        2.76462         67.1054         4.41892 
        2.78034         66.2266         4.35564 
        2.79607         65.4602         4.29353 
        2.81179         64.7236         4.23269 
        2.82749         64.1876          4.1731 
        2.84321         63.0797         4.11457 
        2.85893         62.4697         4.05718 
        2.87462         61.8801         4.00098 
        2.89033         61.2042         3.94578 
        2.90605         60.4356         3.89157 
        2.92176         59.8083          3.8384 
        2.93747         59.0939         3.78625 
        2.95318         58.3999         3.73505 
        2.96891         58.0006         3.68476 
        2.98456         57.0017         3.63562 
        3.00023         56.3195         3.58729 
        3.01596         56.0587         3.53969 
        3.03164          55.209         3.49309 
        3.04738         54.7563         3.44718 
         3.0631         54.1146         3.40211 
        3.07883         53.5224         3.35783 
        3.09456         52.7388         3.31435 
        3.11026         52.5615         3.27169 
        3.12596         51.7478         3.22979 
        3.14163         51.2377         3.18872 
        3.15734         50.4165         3.14826 
        3.17308         50.1462         3.10839 
        3.18879         49.6264         3.06933 
        3.20447         49.1505         3.03099 
         3.2202         48.3607         2.99318 
         3.2359         47.9281         2.95607 
        3.25157         47.5299         2.91968 
        3.26729         47.0575         2.88379 
        3.28304         46.6283         2.84843 
        3.29877         46.1437         2.81371 
        3.31446         45.4821         2.77963 
        3.33014         45.0856         2.74615 
        3.34585         44.5622         2.71316 
        3.36158         44.2629         2.68066 
        3.37727         43.8296          2.6488 
        3.39294         43.3452         2.61747 
        3.40867          42.884         2.58654 
        3.42439         42.3915         2.55612 
        3.44008         42.0921         2.52625 
        3.45578         41.4266         2.49682 
        3.47153          41.089          2.4678 
        3.48724         40.5942         2.43929 
        3.50292         40.2936         2.41129 
        3.51859         39.9175         2.38375 
        3.53431         39.4042         2.35654 
        3.55007         39.1076         2.32969 
        3.56577         38.7192         2.30336 
        3.58146         38.2841         2.27745 
        3.59719         37.9358         2.25187 
        3.61292         37.5434         2.22669 
        3.62859         37.2961         2.20199 
        3.64429         36.9559         2.17762 
        3.66003          36.559         2.15353 
        3.67578         36.0752         2.12982 
        3.69146         35.7244         2.10655 
        3.70712         35.4861         2.08367 
        3.72284         35.1419         2.06104 
        3.73853         34.8669         2.03879 
        3.75422         34.4274         2.01685 
        3.76993         34.1575         1.99522 
        3.78564         33.8329          1.9739 
        3.80137         33.4851         1.95287 
        3.81707          33.147         1.93218 
        3.83279         32.8335         1.91177 
        3.84853          32.593         1.89163 
        3.86424         32.2088         1.87181 
        3.87992         31.8733          1.8523 
        3.89561         31.6886         1.83307 
        3.91134         31.3853         1.81407 
        3.92704         31.0158         1.79535 
        3.94273         30.7961         1.77692 
        3.95845         30.4819         1.75872 
        3.97418         30.1586         1.74076 
        3.98988         29.9026         1.72308 
        4.00554         29.6504         1.70568 
        4.02125         29.3858         1.68848 
        4.03698         29.0741         1.67149 
        4.05268         28.7565         1.65476 
        4.06839         28.5658         1.63825 
         4.0841         28.3165         1.62197 
        4.09983         28.0261         1.60589 
        4.11555         27.8607         1.59003 
        4.13124         27.5611         1.57443 
        4.14693         27.3482         1.55902 
        4.16266         27.0937         1.54378 
        4.17839         26.7076         1.52875 
        4.19408         26.5618         1.51396 
        4.20977          26.295         1.49935 
        4.22551          26.083          1.4849 
        4.24123          25.816         1.47066 
        4.25691         25.6374         1.45663 
        4.27259         25.3754         1.44279 
        4.28831         25.1912          1.4291 
        4.30404         24.9577         1.41557 
        4.31974         24.7625         1.40224 
        4.33543         24.5516         1.38909 
        4.35116         24.3555         1.37608 
        4.36688         24.0754         1.36323 
        4.38255         23.9873          1.3506 
        4.39825         23.7498          1.3381 
        4.41398         23.5344         1.32573 
         4.4297         23.2914         1.31354 
        4.44541         23.1075         1.30149 
        4.46111         22.8602          1.2896 
        4.47683         22.7276         1.27786 
        4.49251         22.5331         1.26628 
        4.50819         22.3224         1.25485 
         4.5239         22.0882         1.24354 
        4.53962         21.9771         1.23236 
        4.55535         21.7385          1.2213 
        4.57106         21.5986          1.2104 
        4.58678         21.3923         1.19963 
         4.6025         21.1905         1.18899 
        4.61821         21.0786         1.17847 
        4.63391         20.8781          1.1681 
         4.6496         20.6762         1.15785 
        4.66532         20.5254         1.14771 
        4.68103         20.3063          1.1377 
        4.69673         20.1511         1.12781 
        4.71241         20.0204         1.11805 
        4.72811         19.8922         1.10839 
        4.74384          19.714         1.09883 
        4.75955         19.5159         1.08939 
        4.77525         19.3589         1.08007 
        4.79096         19.2236         1.07085 
        4.80669         19.0411         1.06173 
         4.8224         18.8263         1.05273 
        4.83809         18.7233         1.04384 
        4.85379         18.6065         1.03505 
         4.8695         18.4023         1.02635 
        4.88521          18.306         1.01775 
        4.90093         18.1236         1.00925 
        4.91663         17.9984         1.00085 
        4.93234          17.829        0.992541 
        4.94807         17.6848        0.984319 
        4.96377         17.5316        0.976204 
        4.97943         17.4158        0.968198 
        4.99514         17.3024         0.96026 
        5.01086         17.1769        0.952404 
        5.02654         16.9785        0.944656 
        5.04227         16.8413         0.93697 
          5.058         16.7439        0.929366 
        5.07371         16.5783        0.921861 
        5.08942         16.4652        0.914437 
        5.10513         16.3545        0.907093 
        5.12084         16.2161        0.899826 
        5.13656         16.0849         0.89264 
        5.15225         15.9729        0.885543 
        5.16796         15.8426        0.878512 
        5.18369         15.7192         0.87155 
         5.1994          15.595        0.864675 
        5.21509         15.4467        0.857881 
        5.23079         15.3375        0.851151 
        5.24649         15.2247        0.844498 
        5.26217         15.1104         0.83792 
        5.27788         15.0248        0.831403 
        5.29359         14.8729        0.824953 
        5.30933         14.7872        0.818562 
        5.32504          14.664        0.812249 
        5.34073         14.5528        0.806009 
        5.35646         14.4323        0.799821 
        5.37218         14.3091        0.793697 
        5.38789         14.2027        0.787646 
        5.40357         14.0961        0.781665 
        5.41929         13.9821        0.775733 
        5.43502         13.8804        0.769861 
         5.4507         13.7666        0.764063 
        5.46639         13.6748        0.758324 
        5.48212         13.5882         0.75263 
        5.49786         13.4711        0.746987 
        5.51353         13.3472        0.741429 
        5.52921         13.2494        0.735923 
        5.54495         13.1624        0.730455 
        5.56066         13.0952        0.725049 
        5.57637         13.0095        0.719698 
        5.59207         12.9005        0.714405 
        5.60778         12.7754        0.709163 
        5.62346         12.7043         0.70398 
        5.63916         12.6209        0.698844 
        5.65487         12.5246        0.693757 
         5.6706          12.413        0.688713 
        5.68633         12.3147        0.683718 
        5.70203          12.247        0.678782 
        5.71773         12.1659        0.673895 
        5.73344         12.0505        0.669054 
        5.74916         11.9924        0.664255 
        5.76486         11.8666         0.65951 
        5.78054         11.8011        0.654818 
        5.79626         11.7232        0.650158 
          5.812         11.6232        0.645538 
         5.8277         11.5433        0.640977 
        5.84339         11.4777        0.636459 
        5.85911         11.3825        0.631976 
        5.87484         11.2984        0.627537 
        5.89053         11.1952        0.623148 
        5.90623         11.1594          0.6188 
        5.92195         11.0502        0.614485 
        5.93767         10.9691        0.610213 
        5.95336         10.9125        0.605989 
        5.96905         10.8298        0.601806 
        5.98476         10.7696        0.597656 
        6.00048         10.6748        0.593544 
        6.01617         10.6078        0.589476 
        6.03185         10.5093         0.58545 
        6.04756          10.453        0.581453 
        6.06331         10.3802        0.577484 
        6.07903         10.3033         0.57356 
        6.09473         10.2205        0.569675 
        6.11044         10.1808        0.565823 
        6.12616         10.0992        0.562007 
        6.14186         10.0421         0.55823 
        6.15755         9.96553        0.554488 
        6.17326         9.89239        0.550776 
        6.18898         9.80897        0.547097 
        6.20467         9.75912        0.543457 
        6.22036         9.68869        0.539851 
         6.2361         9.60942        0.536268 
         6.2518         9.54655        0.532722 
        6.26748          9.4961        0.529217 
        6.28319         9.41569        0.525733 
        6.29893         9.36309        0.522277 
        6.31463         9.30325        0.518858 
        6.33033         9.23147         0.51547 
        6.34604         9.18382         0.51211 
        6.36177         9.11524        0.508776 
        6.37747          9.0707        0.505479 
