# k  (h/Mpc)    Pcb(k)  (Mpc/h)^3    Pcb_linear(k) (Mpc/h)^3   ShotnoiseSubtracted = true
      0.0200456         6306.22         6387.19 
      0.0350414         4121.52         4004.47 
      0.0492313         2682.25         2676.53 
      0.0637834         2162.92         2207.32 
      0.0800726         1669.19         1714.47 
       0.096163          1207.2         1159.86 
       0.111083         947.233         899.724 
       0.126058         811.963         813.873 
       0.142273         684.798         682.248 
       0.158546         537.388         514.583 
        0.17375         456.953         427.558 
       0.188953         419.825         392.921 
       0.204907         355.349         346.519 
       0.220756         309.735         285.342 
        0.23588         269.865         245.229 
         0.2514         242.198         224.329 
       0.267535         228.739         202.973 
       0.283568           197.5          176.34 
       0.299022         183.202          155.58 
       0.314451         175.927         142.422 
       0.330372         153.381         130.652 
       0.346141         140.446          117.68 
       0.361624         130.516         106.204 
       0.377134          119.06         97.5896 
       0.392932         114.962         90.2427 
       0.408854         107.413         82.8371 
       0.424564         101.754         75.9846 
       0.440253         92.2507          70.284 
       0.455999         84.7791          65.395 
       0.471626         81.7559         60.8325 
        0.48727         78.5982         56.5342 
       0.502856         72.1167         52.7228 
       0.518488         69.6382         49.3668 
       0.534347         65.2556         46.2332 
       0.550082         63.1679         43.3336 
       0.565732         61.0977         40.6924 
       0.581496         56.1153         38.2927 
       0.597222         54.2162         36.0936 
       0.612804          51.897         34.0701 
       0.628434         50.8174         32.1871 
       0.644267         47.8564         30.4335 
       0.660051         46.0872         28.8229 
       0.675724         44.3896         27.3377 
       0.691403         43.4272         25.9549 
       0.707174         41.6934          24.659 
       0.722871         40.5733          23.456 
        0.73838         38.7915         22.3455 
       0.754018         36.5365         21.2981 
       0.769845         36.0943         20.3062 
        0.78569         34.8044         19.3764 
       0.801365           33.66         18.5138 
       0.817031         32.3031         17.7045 
       0.832809         31.6362         16.9386 
       0.848511         30.6887         16.2217 
       0.864097         29.9513         15.5513 
       0.879701         29.2628         14.9183 
       0.895507         28.1225         14.3132 
       0.911279         27.3209          13.743 
        0.92691         26.8245         13.2087 
       0.942635         26.1497         12.6999 
       0.958396           25.66         12.2169 
       0.974128         24.9486           11.76 
       0.989692         23.9299         11.3309 
        1.00528          23.574         10.9227 
        1.02113         22.9214         10.5281 
        1.03692         22.6031         10.1546 
        1.05264         22.0642         9.80088 
        1.06832         21.5858         9.46459 
        1.08405         20.9951          9.1432 
        1.09979         20.7545         8.83655 
        1.11537         20.0448         8.54701 
        1.13105         19.7005         8.26872 
        1.14679         19.2167         8.00177 
        1.16256         18.9383          7.7461 
        1.17828         18.6331         7.50244 
        1.19395         18.1746          7.2701 
         1.2097         17.9648         7.04642 
        1.22537         17.5293         6.83324 
          1.241         17.1654         6.62953 
        1.25666         16.8558         6.43363 
        1.27241         16.6496         6.24474 
        1.28819          16.047         6.06311 
        1.30392         16.0901         5.88925 
        1.31957         15.7397         5.72298 
        1.33529         15.4394         5.56253 
        1.35108         15.2074          5.4076 
        1.36674         14.9575         5.25968 
         1.3824         14.6452         5.11743 
        1.39811          14.339         4.97997 
        1.41389         14.1703         4.84704 
        1.42964         14.0567         4.71918 
        1.44531          13.768         4.59657 
        1.46101         13.5977         4.47805 
        1.47667         13.3576         4.36406 
        1.49229         13.0349         4.25435 
        1.50793         12.9615         4.14828 
        1.52367         12.7422         4.04515 
        1.53953         12.6236         3.94484 
        1.55526         12.3325         3.84872 
        1.57092         12.2617          3.7562 
        1.58662         12.0833         3.66651 
        1.60235         11.9188         3.57957 
        1.61809         11.7056          3.4954 
        1.63369         11.5657         3.41469 
        1.64941         11.3823         3.33595 
        1.66519         11.3007          3.2594 
        1.68085         11.0146          3.1858 
        1.69652         11.0247         3.11445 
        1.71228         10.8528         3.04488 
        1.72806         10.6585         2.97738 
        1.74368         10.5721         2.91261 
        1.75933         10.4299         2.84963 
        1.77505         10.2864         2.78821 
        1.79081         10.1656          2.7285 
         1.8065         10.0627         2.67079 
        1.82218          9.9853          2.6148 
        1.83797         9.88039         2.56003 
        1.85367         9.76422         2.50713 
        1.86928         9.63484         2.45604 
        1.88497         9.49906         2.40609 
        1.90073          9.3799         2.35735 
        1.91647         9.20228            2.31 
        1.93218         9.18149         2.26405 
        1.94787          9.0383         2.21942 
        1.96363         8.96354         2.17582 
        1.97935         8.82233         2.13347 
        1.99499         8.72394         2.09249 
        2.01064         8.63773         2.05253 
         2.0264         8.52197         2.01335 
        2.04216         8.52038         1.97522 
        2.05781         8.40535         1.93832 
        2.07353         8.31666         1.90222 
        2.08928         8.21101         1.86697 
        2.10499         8.12315          1.8327 
        2.12065         8.05263          1.7994 
        2.13633         7.94725         1.76689 
        2.15211         7.87594         1.73497 
        2.16785         7.79843         1.70393 
        2.18349         7.69511         1.67385 
        2.19916         7.65578         1.64443 
        2.21489         7.54415         1.61561 
        2.23063         7.51242         1.58747 
         2.2463         7.40056         1.56012 
        2.26194         7.33872         1.53348 
        2.27765         7.24476         1.50733 
        2.29341         7.18696         1.48172 
        2.30914         7.12494         1.45676 
        2.32486         7.07926         1.43238 
        2.34061         6.99871         1.40852 
        2.35635         6.95587         1.38523 
        2.37203           6.858         1.36254 
        2.38768         6.76696         1.34041 
        2.40339         6.75153         1.31868 
        2.41914         6.64614         1.29739 
        2.43483         6.63219         1.27664 
         2.4505         6.55301         1.25638 
        2.46622         6.49007         1.23649 
        2.48195         6.46841         1.21703 
        2.49759         6.37325         1.19809 
        2.51328         6.32697          1.1795 
        2.52906         6.26014         1.16119 
        2.54479         6.22181         1.14334 
        2.56049           6.131         1.12589 
        2.57618         6.10606         1.10883 
        2.59189         6.09641         1.09209 
        2.60758         5.99837         1.07572 
        2.62325         5.94417         1.05971 
        2.63898         5.93335         1.04396 
        2.65468         5.86073         1.02857 
        2.67044          5.8355         1.01343 
        2.68618         5.74363        0.998618 
        2.70184         5.71876        0.984165 
        2.71755         5.67681        0.969961 
        2.73329         5.60496        0.956016 
        2.74897         5.56461        0.942389 
        2.76462         5.53609        0.929058 
        2.78034           5.475        0.915929 
        2.79607         5.46021         0.90304 
        2.81179         5.39555        0.890413 
        2.82749         5.35243        0.878041 
        2.84321         5.32095         0.86589 
        2.85893         5.28219        0.853972 
        2.87462         5.23643        0.842298 
        2.89033         5.18474        0.830832 
        2.90605         5.14411        0.819569 
        2.92176         5.11297        0.808519 
        2.93747         5.06331        0.797679 
        2.95318         5.02819        0.787035 
        2.96891         5.00069         0.77658 
        2.98456         4.94027         0.76636 
        3.00023         4.91575         0.75631 
        3.01596         4.87345        0.746408 
        3.03164         4.84638        0.736711 
        3.04738         4.80572        0.727158 
         3.0631         4.76353        0.717777 
        3.07883         4.72631         0.70856 
        3.09456         4.67984        0.699507 
        3.11026         4.65086        0.690626 
        3.12596         4.61581        0.681899 
        3.14163         4.59741        0.673343 
        3.15734         4.55792        0.664914 
        3.17308         4.54552        0.656608 
        3.18879         4.49107        0.648467 
        3.20447         4.45141        0.640475 
         3.2202         4.42854        0.632593 
         3.2359         4.39934        0.624857 
        3.25157         4.37139        0.617268 
        3.26729         4.34255        0.609783 
        3.28304         4.30639        0.602407 
        3.29877         4.27805        0.595162 
        3.31446         4.25671        0.588051 
        3.33014         4.21231        0.581063 
        3.34585         4.18827        0.574178 
        3.36158         4.15719        0.567394 
        3.37727          4.1161         0.56074 
        3.39294         4.09575        0.554199 
        3.40867         4.07033        0.547738 
        3.42439         4.05637        0.541384 
        3.44008         4.02677        0.535142 
        3.45578         3.99217        0.528995 
        3.47153          3.9572         0.52293 
        3.48724         3.92294         0.51697 
        3.50292         3.89795        0.511117 
        3.51859         3.87968        0.505357 
        3.53431         3.84552        0.499668 
        3.55007         3.82422        0.494053 
        3.56577         3.79081        0.488546 
        3.58146         3.77425        0.483124 
        3.59719         3.75197        0.477773 
        3.61292          3.7206        0.472504 
        3.62859         3.69629        0.467334 
        3.64429         3.67849        0.462232 
        3.66003         3.64728         0.45719 
        3.67578          3.6407        0.452225 
        3.69146         3.61477        0.447352 
        3.70712         3.58461        0.442559 
        3.72284         3.56689        0.437819 
        3.73853         3.53941        0.433156 
        3.75422         3.49886         0.42856 
        3.76993         3.50675        0.424026 
        3.78564         3.47527        0.419559 
        3.80137         3.44963        0.415149 
        3.81707         3.41905        0.410812 
        3.83279         3.40311        0.406533 
        3.84853         3.37873        0.402308 
        3.86424         3.34773        0.398151 
        3.87992          3.3354        0.394059 
        3.89561         3.31398        0.390024 
        3.91134         3.29176        0.386037 
        3.92704         3.27057         0.38211 
        3.94273         3.25387        0.378242 
        3.95845         3.23076         0.37442 
        3.97418         3.20128         0.37065 
        3.98988         3.18563        0.366936 
        4.00554         3.16581        0.363284 
        4.02125         3.13813        0.359671 
        4.03698         3.12343        0.356101 
        4.05268         3.09084        0.352588 
        4.06839         3.07492        0.349119 
         4.0841          3.0551        0.345698 
        4.09983         3.03674        0.342318 
        4.11555         3.01802        0.338984 
        4.13124         2.99274        0.335704 
        4.14693         2.97387        0.332465 
        4.16266         2.95754         0.32926 
        4.17839         2.94486          0.3261 
        4.19408         2.92801        0.322988 
        4.20977         2.90602        0.319915 
        4.22551         2.88019        0.316875 
        4.24123         2.86495        0.313877 
        4.25691         2.84653        0.310926 
        4.27259         2.82474        0.308012 
        4.28831         2.80594         0.30513 
        4.30404         2.79248        0.302281 
        4.31974         2.77327        0.299475 
        4.33543         2.75483        0.296706 
        4.35116         2.74161        0.293966 
        4.36688         2.72588        0.291261 
        4.38255         2.71222          0.2886 
        4.39825         2.68969        0.285966 
        4.41398         2.67455         0.28336 
         4.4297         2.66045        0.280789 
        4.44541         2.64431        0.278251 
        4.46111         2.62413        0.275745 
        4.47683         2.61475        0.273269 
        4.49251         2.58965        0.270828 
        4.50819         2.58053        0.268417 
         4.5239          2.5559        0.266033 
        4.53962         2.54864        0.263674 
        4.55535         2.52986        0.261342 
        4.57106         2.51398        0.259042 
        4.58678         2.50306        0.256769 
         4.6025         2.48878        0.254523 
        4.61821         2.47199        0.252304 
        4.63391         2.45813        0.250114 
         4.6496         2.44245        0.247951 
        4.66532         2.42491         0.24581 
        4.68103         2.41425        0.243696 
        4.69673         2.40127        0.241608 
        4.71241         2.38395        0.239547 
        4.72811         2.37563        0.237506 
        4.74384         2.36884        0.235486 
        4.75955         2.34726        0.233493 
        4.77525         2.33727        0.231524 
        4.79096         2.32101        0.229575 
        4.80669         2.31052        0.227648 
         4.8224         2.29197        0.225745 
        4.83809          2.2866        0.223866 
        4.85379         2.27054        0.222006 
         4.8695         2.26282        0.220167 
        4.88521          2.2488        0.218349 
        4.90093         2.23255        0.216551 
        4.91663         2.22332        0.214775 
        4.93234         2.20573        0.213017 
        4.94807         2.20071        0.211277 
        4.96377         2.19074         0.20956 
        4.97943         2.17658        0.207866 
        4.99514         2.16728        0.206186 
        5.01086         2.15405        0.204523 
        5.02654         2.14227        0.202883 
        5.04227         2.12911        0.201256 
          5.058         2.11784        0.199646 
        5.07371         2.10903        0.198057 
        5.08942         2.09411        0.196484 
        5.10513         2.08751        0.194929 
        5.12084         2.07391        0.193389 
        5.13656          2.0627        0.191867 
        5.15225         2.05212        0.190363 
        5.16796         2.04394        0.188873 
        5.18369         2.03014        0.187398 
         5.1994         2.02152        0.185941 
        5.21509         2.01061        0.184501 
        5.23079         1.99865        0.183074 
        5.24649         1.99464        0.181664 
        5.26217         1.98499        0.180269 
        5.27788         1.96664        0.178887 
        5.29359         1.96514        0.177519 
        5.30933         1.95361        0.176163 
        5.32504         1.94347        0.174824 
        5.34073         1.92987          0.1735 
        5.35646         1.92047        0.172187 
        5.37218         1.91541        0.170888 
        5.38789         1.90522        0.169604 
        5.40357         1.89718        0.168334 
        5.41929          1.8891        0.167075 
        5.43502         1.87706        0.165828 
         5.4507         1.86839        0.164597 
        5.46639         1.85205        0.163379 
        5.48212         1.84683         0.16217 
        5.49786         1.84506        0.160971 
        5.51353         1.83313        0.159791 
        5.52921         1.82561        0.158621 
        5.54495         1.81327         0.15746 
        5.56066         1.80585        0.156311 
        5.57637         1.79784        0.155174 
        5.59207         1.78906        0.154049 
        5.60778         1.78181        0.152935 
        5.62346         1.77193        0.151833 
        5.63916          1.7651        0.150742 
        5.65487         1.75742         0.14966 
         5.6706         1.74665        0.148588 
        5.68633         1.74214        0.147526 
        5.70203         1.73076        0.146476 
        5.71773         1.72391        0.145437 
        5.73344          1.7182        0.144407 
        5.74916         1.70895        0.143386 
        5.76486         1.70368        0.142376 
        5.78054         1.69325        0.141378 
        5.79626         1.68814        0.140386 
          5.812         1.67638        0.139403 
         5.8277         1.66989        0.138433 
        5.84339         1.66169        0.137471 
        5.85911         1.65437        0.136517 
        5.87484         1.64836        0.135572 
        5.89053         1.64223        0.134637 
        5.90623         1.63612        0.133711 
        5.92195         1.62623        0.132792 
        5.93767         1.61958        0.131883 
        5.95336         1.60952        0.130983 
        5.96905         1.60686        0.130092 
        5.98476         1.59922        0.129208 
        6.00048         1.59145        0.128332 
        6.01617         1.58605        0.127465 
        6.03185         1.57887        0.126607 
        6.04756         1.57063        0.125755 
        6.06331         1.56612        0.124909 
        6.07903         1.55771        0.124072 
        6.09473         1.55306        0.123244 
        6.11044          1.5465        0.122423 
        6.12616         1.54253        0.121609 
        6.14186         1.53471        0.120804 
        6.15755         1.52957        0.120006 
        6.17326         1.52301        0.119214 
        6.18898         1.51377        0.118429 
        6.20467         1.51018        0.117653 
        6.22036         1.50138        0.116884 
         6.2361         1.49749        0.116119 
         6.2518         1.49261        0.115363 
        6.26748         1.48468        0.114614 
        6.28319         1.48079        0.113871 
        6.29893         1.47381        0.113133 
        6.31463         1.46706        0.112403 
        6.33033         1.46171         0.11168 
        6.34604         1.45592        0.110963 
        6.36177         1.44942        0.110251 
        6.37747         1.44867        0.109547 
