# k  (h/Mpc)    Pcb(k)  (Mpc/h)^3    Pcb_linear(k) (Mpc/h)^3   ShotnoiseSubtracted = true
      0.0200456         4161.04         4213.01 
      0.0350414         2709.54         2641.36 
      0.0492313         1771.96         1765.45 
      0.0637834         1432.16         1455.96 
      0.0800726         1105.98         1130.87 
       0.096163         790.992          765.05 
       0.111083         619.091         593.461 
       0.126058         534.615         536.833 
       0.142273         449.117         450.013 
       0.158546         350.191          339.42 
        0.17375         296.476         282.019 
       0.188953         271.043         259.172 
       0.204907         230.051         228.565 
       0.220756         198.943         188.213 
        0.23588         172.538         161.754 
         0.2514         155.694         147.968 
       0.267535         145.173         133.882 
       0.283568          125.61         116.314 
       0.299022         114.978         102.621 
       0.314451         108.935         93.9417 
       0.330372         96.2371         86.1786 
       0.346141         87.6743          77.622 
       0.361624         80.5997         70.0525 
       0.377134          73.452         64.3704 
       0.392932         70.8036         59.5244 
       0.408854         65.2191         54.6396 
       0.424564         61.7816         50.1197 
       0.440253         56.1523         46.3596 
       0.455999         51.1548         43.1348 
       0.471626         48.7418         40.1253 
        0.48727         47.0304         37.2901 
       0.502856         43.5704         34.7761 
       0.518488         41.1352         32.5625 
       0.534347         38.6048         30.4956 
       0.550082          37.118          28.583 
       0.565732          35.653         26.8408 
       0.581496         33.1019          25.258 
       0.597222         31.5281         23.8075 
       0.612804         29.9915         22.4728 
       0.628434         29.4254         21.2307 
       0.644267         27.7054          20.074 
       0.660051         26.3902         19.0117 
       0.675724         25.1838         18.0321 
       0.691403         24.6247         17.1199 
       0.707174         23.5583         16.2652 
       0.722871         22.7863         15.4717 
        0.73838         21.6349         14.7392 
       0.754018         20.3779         14.0483 
       0.769845         19.9908          13.394 
        0.78569         19.2903         12.7807 
       0.801365         18.5683         12.2118 
       0.817031         17.7739         11.6779 
       0.832809         17.3262         11.1728 
       0.848511         16.7021         10.6999 
       0.864097         16.1907         10.2577 
       0.879701         15.8849         9.84015 
       0.895507         15.2476         9.44103 
       0.911279         14.6271         9.06494 
        0.92691         14.3552          8.7125 
       0.942635         13.9732         8.37691 
       0.958396         13.5287         8.05832 
       0.974128         13.1555          7.7569 
       0.989692         12.5139          7.4739 
        1.00528         12.3972         7.20462 
        1.02113         11.9872          6.9444 
        1.03692         11.7257           6.698 
        1.05264         11.4589          6.4647 
        1.06832         11.2042         6.24287 
        1.08405         10.8592         6.03088 
        1.09979         10.6142         5.82862 
        1.11537         10.2765         5.63763 
        1.13105         10.1275         5.45408 
        1.14679         9.86371           5.278 
        1.16256         9.65996         5.10935 
        1.17828         9.44311         4.94864 
        1.19395         9.26112         4.79538 
         1.2097         8.99563         4.64784 
        1.22537         8.82354         4.50723 
          1.241          8.5746         4.37286 
        1.25666         8.48176         4.24364 
        1.27241         8.33182         4.11905 
        1.28819         7.97028         3.99925 
        1.30392         7.99571         3.88457 
        1.31957         7.73473          3.7749 
        1.33529         7.64235         3.66906 
        1.35108         7.48172         3.56687 
        1.36674         7.29598          3.4693 
         1.3824         7.16456         3.37547 
        1.39811         7.05292          3.2848 
        1.41389         6.91505         3.19712 
        1.42964         6.79266         3.11279 
        1.44531         6.66444         3.03191 
        1.46101         6.58938         2.95374 
        1.47667         6.44299         2.87855 
        1.49229         6.25855         2.80618 
        1.50793         6.20436         2.73622 
        1.52367         6.09657          2.6682 
        1.53953          5.9897         2.60203 
        1.55526         5.87708         2.53863 
        1.57092         5.80825          2.4776 
        1.58662         5.69354         2.41844 
        1.60235         5.63625          2.3611 
        1.61809         5.52909         2.30558 
        1.63369         5.43074         2.25234 
        1.64941         5.32399          2.2004 
        1.66519          5.2782         2.14991 
        1.68085         5.16534         2.10137 
        1.69652         5.12014          2.0543 
        1.71228         5.06013         2.00842 
        1.72806         4.96901         1.96389 
        1.74368          4.8939         1.92117 
        1.75933         4.81714         1.87962 
        1.77505         4.73154         1.83911 
        1.79081         4.67719         1.79973 
         1.8065         4.63876         1.76166 
        1.82218         4.57305         1.72473 
        1.83797         4.47545          1.6886 
        1.85367         4.42861         1.65371 
        1.86928         4.36324         1.62001 
        1.88497         4.31757         1.58707 
        1.90073         4.24877         1.55492 
        1.91647         4.15193         1.52369 
        1.93218         4.13143         1.49338 
        1.94787         4.07426         1.46394 
        1.96363         4.03259         1.43518 
        1.97935         3.99191         1.40724 
        1.99499          3.9356         1.38021 
        2.01064         3.87651         1.35385 
         2.0264         3.84381         1.32801 
        2.04216         3.79453         1.30286 
        2.05781         3.74725         1.27852 
        2.07353         3.69651         1.25471 
        2.08928         3.64663         1.23146 
        2.10499         3.60549         1.20886 
        2.12065         3.58902         1.18689 
        2.13633         3.53992         1.16544 
        2.15211         3.49166         1.14439 
        2.16785          3.4403         1.12392 
        2.18349         3.42784         1.10408 
        2.19916         3.37594         1.08467 
        2.21489         3.35026         1.06566 
        2.23063         3.29768          1.0471 
         2.2463          3.2556         1.02906 
        2.26194         3.21676         1.01149 
        2.27765         3.17464        0.994241 
        2.29341         3.13938        0.977349 
        2.30914         3.11911        0.960883 
        2.32486         3.07925        0.944805 
        2.34061         3.06177        0.929067 
        2.35635         3.02264        0.913702 
        2.37203         3.00073        0.898737 
        2.38768          2.9716        0.884137 
        2.40339         2.92265        0.869809 
        2.41914         2.90649        0.855764 
        2.43483         2.87416        0.842079 
         2.4505         2.83171        0.828715 
        2.46622         2.81478        0.815595 
        2.48195          2.7984        0.802758 
        2.49759         2.75414        0.790265 
        2.51328          2.7361        0.778005 
        2.52906         2.69931        0.765927 
        2.54479         2.68057         0.75415 
        2.56049         2.65389        0.742643 
        2.57618         2.62999        0.731386 
        2.59189         2.62194        0.720345 
        2.60758         2.59116        0.709549 
        2.62325         2.54161        0.698987 
        2.63898         2.54226        0.688602 
        2.65468         2.50953         0.67845 
        2.67044         2.49736        0.668459 
        2.68618          2.4707        0.658692 
        2.70184         2.45243        0.649159 
        2.71755         2.42094         0.63979 
        2.73329         2.40216        0.630591 
        2.74897         2.38294        0.621603 
        2.76462          2.3632         0.61281 
        2.78034         2.34336         0.60415 
        2.79607         2.32002        0.595648 
        2.81179         2.30358        0.587319 
        2.82749         2.27507        0.579159 
        2.84321         2.26389        0.571144 
        2.85893         2.23559        0.563283 
        2.87462         2.22604        0.555583 
        2.89033         2.21322         0.54802 
        2.90605         2.18852         0.54059 
        2.92176         2.16148        0.533302 
        2.93747         2.15657        0.526152 
        2.95318         2.13559        0.519131 
        2.96891         2.11817        0.512235 
        2.98456         2.10041        0.505494 
        3.00023         2.08889        0.498864 
        3.01596         2.06665        0.492333 
        3.03164         2.05251        0.485937 
        3.04738         2.04089        0.479636 
         3.0631         2.02389        0.473448 
        3.07883         2.00755        0.467369 
        3.09456         1.98534        0.461397 
        3.11026         1.97605        0.455539 
        3.12596         1.96642        0.449783 
        3.14163         1.94562        0.444139 
        3.15734         1.93099        0.438579 
        3.17308         1.91792        0.433101 
        3.18879          1.9091        0.427731 
        3.20447         1.89631        0.422459 
         3.2202         1.87433         0.41726 
         3.2359         1.87035        0.412158 
        3.25157         1.85319        0.407152 
        3.26729         1.83666        0.402215 
        3.28304         1.82066        0.397349 
        3.29877         1.81083        0.392571 
        3.31446         1.79602        0.387881 
        3.33014         1.78904        0.383271 
        3.34585         1.77921         0.37873 
        3.36158         1.75768        0.374255 
        3.37727         1.75152        0.369866 
        3.39294         1.74072        0.365551 
        3.40867          1.7275         0.36129 
        3.42439         1.71382        0.357099 
        3.44008         1.70079        0.352982 
        3.45578         1.69017        0.348927 
        3.47153         1.68237        0.344926 
        3.48724         1.66983        0.340995 
        3.50292         1.65938        0.337135 
        3.51859         1.64705        0.333335 
        3.53431         1.63607        0.329583 
        3.55007         1.62613        0.325879 
        3.56577         1.61663        0.322246 
        3.58146          1.6078        0.318671 
        3.59719         1.60106        0.315141 
        3.61292         1.58498        0.311665 
        3.62859         1.57677        0.308255 
        3.64429         1.56612         0.30489 
        3.66003         1.55692        0.301564 
        3.67578         1.55132        0.298289 
        3.69146         1.53297        0.295075 
        3.70712         1.53331        0.291914 
        3.72284         1.51607        0.288787 
        3.73853         1.50709        0.285711 
        3.75422         1.49529        0.282679 
        3.76993         1.48526        0.279689 
        3.78564         1.47487        0.276743 
        3.80137         1.46734        0.273834 
        3.81707         1.45925        0.270973 
        3.83279         1.45209         0.26815 
        3.84853         1.44263        0.265364 
        3.86424         1.43306        0.262622 
        3.87992         1.42579        0.259922 
        3.89561         1.41715        0.257261 
        3.91134          1.4059        0.254631 
        3.92704         1.39804        0.252041 
        3.94273         1.38906        0.249489 
        3.95845         1.38113        0.246968 
        3.97418         1.37094        0.244482 
        3.98988          1.3622        0.242032 
        4.00554         1.35644        0.239623 
        4.02125         1.34547         0.23724 
        4.03698         1.33975        0.234885 
        4.05268         1.33046        0.232568 
        4.06839          1.3202         0.23028 
         4.0841         1.31215        0.228024 
        4.09983         1.30338        0.225794 
        4.11555         1.29295        0.223595 
        4.13124         1.28822        0.221432 
        4.14693         1.27775        0.219295 
        4.16266         1.27011        0.217181 
        4.17839         1.26194        0.215096 
        4.19408         1.24935        0.213044 
        4.20977         1.24439        0.211017 
        4.22551         1.23814        0.209012 
        4.24123         1.23193        0.207034 
        4.25691         1.22238        0.205088 
        4.27259         1.21479        0.203166 
        4.28831         1.20646        0.201265 
        4.30404         1.19987        0.199386 
        4.31974         1.19441        0.197535 
        4.33543         1.18425        0.195709 
        4.35116         1.17768        0.193901 
        4.36688         1.17231        0.192117 
        4.38255         1.16895        0.190361 
        4.39825         1.15856        0.188624 
        4.41398          1.1535        0.186905 
         4.4297         1.14652         0.18521 
        4.44541          1.1368        0.183535 
        4.46111         1.13529        0.181883 
        4.47683         1.12693        0.180249 
        4.49251         1.11956        0.178639 
        4.50819         1.11795        0.177049 
         4.5239         1.10954        0.175476 
        4.53962         1.10369         0.17392 
        4.55535         1.09889        0.172382 
        4.57106          1.0915        0.170865 
        4.58678         1.08677        0.169366 
         4.6025         1.08251        0.167884 
        4.61821         1.07816        0.166421 
        4.63391         1.07418        0.164976 
         4.6496         1.06498        0.163549 
        4.66532         1.06195        0.162137 
        4.68103         1.05753        0.160743 
        4.69673         1.05123        0.159365 
        4.71241          1.0464        0.158006 
        4.72811         1.04595         0.15666 
        4.74384         1.04055        0.155327 
        4.75955         1.03532        0.154013 
        4.77525         1.02942        0.152714 
        4.79096         1.02544        0.151429 
        4.80669         1.02023        0.150157 
         4.8224         1.01362        0.148902 
        4.83809         1.01416        0.147662 
        4.85379          1.0116        0.146436 
         4.8695         1.00523        0.145223 
        4.88521          1.0001        0.144024 
        4.90093        0.996708        0.142838 
        4.91663        0.995341        0.141666 
        4.93234         0.99172        0.140507 
        4.94807        0.986352        0.139359 
        4.96377        0.980593        0.138227 
        4.97943        0.979628        0.137109 
        4.99514        0.975588        0.136001 
        5.01086        0.970458        0.134904 
        5.02654        0.966755        0.133822 
        5.04227        0.963767        0.132749 
          5.058        0.961566        0.131687 
        5.07371        0.961067        0.130639 
        5.08942        0.958736        0.129602 
        5.10513        0.951989        0.128576 
        5.12084        0.949313         0.12756 
        5.13656        0.946887        0.126556 
        5.15225        0.944801        0.125564 
        5.16796        0.942444        0.124582 
        5.18369        0.937388        0.123608 
         5.1994        0.937183        0.122647 
        5.21509        0.930419        0.121697 
        5.23079        0.929015        0.120756 
        5.24649        0.928582        0.119826 
        5.26217        0.922141        0.118906 
        5.27788        0.919629        0.117994 
        5.29359        0.919722        0.117092 
        5.30933        0.916556        0.116198 
        5.32504        0.914381        0.115314 
        5.34073          0.9108        0.114441 
        5.35646        0.907446        0.113575 
        5.37218        0.907934        0.112718 
        5.38789        0.904565        0.111871 
        5.40357        0.901638        0.111034 
        5.41929        0.899901        0.110203 
        5.43502        0.899446        0.109381 
         5.4507        0.893827        0.108569 
        5.46639        0.893284        0.107765 
        5.48212        0.891124        0.106968 
        5.49786        0.888928        0.106177 
        5.51353        0.887348        0.105399 
        5.52921        0.885493        0.104627 
        5.54495        0.885078        0.103861 
        5.56066        0.881558        0.103103 
        5.57637        0.879973        0.102353 
        5.59207        0.876525        0.101611 
        5.60778         0.87685        0.100876 
        5.62346        0.873889         0.10015 
        5.63916        0.873469       0.0994297 
        5.65487        0.870484       0.0987163 
         5.6706        0.867307        0.098009 
        5.68633        0.866588       0.0973083 
        5.70203        0.863767        0.096616 
        5.71773        0.865256       0.0959304 
        5.73344        0.861999       0.0952512 
        5.74916        0.860989       0.0945778 
        5.76486        0.858941       0.0939119 
        5.78054        0.858028       0.0932534 
        5.79626        0.855712       0.0925994 
          5.812        0.852961        0.091951 
         5.8277        0.853288       0.0913106 
        5.84339        0.850744       0.0906763 
        5.85911         0.84952       0.0900468 
        5.87484        0.846876       0.0894234 
        5.89053         0.84705       0.0888072 
        5.90623        0.844905       0.0881964 
        5.92195        0.844333       0.0875903 
        5.93767        0.839688       0.0869902 
        5.95336        0.842215       0.0863967 
        5.96905        0.838574       0.0858089 
        5.98476         0.83831       0.0852258 
        6.00048        0.836834       0.0846479 
        6.01617        0.834538       0.0840761 
        6.03185        0.833926       0.0835103 
        6.04756        0.832582       0.0829483 
        6.06331        0.833095       0.0823903 
        6.07903        0.829377       0.0818386 
        6.09473        0.830305       0.0812924 
        6.11044        0.827448       0.0807507 
        6.12616        0.824506        0.080214 
        6.14186        0.825782       0.0796827 
        6.15755        0.824059       0.0791562 
        6.17326        0.823289       0.0786341 
        6.18898        0.823506       0.0781164 
        6.20467        0.819168       0.0776043 
        6.22036        0.818217       0.0770968 
         6.2361        0.815505       0.0765925 
         6.2518        0.816832       0.0760935 
        6.26748        0.812732          0.0756 
        6.28319        0.813172       0.0751096 
        6.29893         0.81391        0.074623 
        6.31463        0.811645       0.0741416 
        6.33033        0.808348       0.0736646 
        6.34604        0.808463       0.0731914 
        6.36177        0.807024       0.0727219 
        6.37747        0.805406       0.0722574 
