# k  (h/Mpc)    Pcb(k)  (Mpc/h)^3    Pcb_linear(k) (Mpc/h)^3   ShotnoiseSubtracted = true
      0.0200456         687.817         696.164 
      0.0350414         443.603         436.463 
      0.0492313         293.512         291.725 
      0.0637834          239.01         240.584 
      0.0800726          184.83         186.867 
       0.096163         128.625         126.418 
       0.111083         100.038         98.0643 
       0.126058         88.1835         88.7071 
       0.142273          73.737         74.3607 
       0.158546         56.5276         56.0863 
        0.17375         47.3401         46.6011 
       0.188953         43.0346          42.826 
       0.204907         37.1829         37.7684 
       0.220756         31.3281         31.1005 
        0.23588         26.9558         26.7285 
         0.2514          24.574         24.4504 
       0.267535         22.3099         22.1228 
       0.283568         19.4043         19.2199 
       0.299022         17.2164         16.9573 
       0.314451         15.9638         15.5231 
       0.330372         14.4638         14.2403 
       0.346141         13.0474         12.8264 
       0.361624         11.7682         11.5756 
       0.377134         10.7667         10.6367 
       0.392932         10.2001         9.83589 
       0.408854         9.19078         9.02873 
       0.424564         8.61338         8.28185 
       0.440253         7.86513         7.66052 
       0.455999         7.21743         7.12765 
       0.471626         6.73189         6.63036 
        0.48727         6.38703         6.16187 
       0.502856         5.97539         5.74646 
       0.518488         5.48763         5.38067 
       0.534347         5.11103         5.03913 
       0.550082         4.87331          4.7231 
       0.565732         4.63206         4.43521 
       0.581496         4.32835         4.17367 
       0.597222         4.06913         3.93398 
       0.612804         3.82229         3.71343 
       0.628434         3.64494          3.5082 
       0.644267         3.45527         3.31706 
       0.660051         3.26673         3.14151 
       0.675724         3.07531         2.97964 
       0.691403         2.93868         2.82892 
       0.707174         2.78705         2.68768 
       0.722871         2.70597         2.55656 
        0.73838         2.52289         2.43552 
       0.754018          2.4018         2.32136 
       0.769845         2.27184         2.21325 
        0.78569         2.20307          2.1119 
       0.801365         2.10581         2.01789 
       0.817031         2.01933         1.92968 
       0.832809         1.91246          1.8462 
       0.848511         1.84469         1.76806 
       0.864097          1.7743         1.69499 
       0.879701         1.71662           1.626 
       0.895507         1.62627         1.56005 
       0.911279         1.57236          1.4979 
        0.92691         1.52257         1.43967 
       0.942635         1.44203         1.38421 
       0.958396         1.39665         1.33157 
       0.974128         1.34857         1.28176 
       0.989692          1.2913           1.235 
        1.00528         1.24566          1.1905 
        1.02113          1.2095          1.1475 
        1.03692         1.17637         1.10679 
        1.05264         1.11899         1.06824 
        1.06832         1.08696         1.03158 
        1.08405         1.04316        0.996551 
        1.09979         1.01528        0.963128 
        1.11537        0.977915         0.93157 
        1.13105        0.938945        0.901239 
        1.14679        0.916764        0.872143 
        1.16256        0.886362        0.844276 
        1.17828        0.864632        0.817719 
        1.19395        0.833684        0.792395 
         1.2097        0.805862        0.768016 
        1.22537        0.778498        0.744781 
          1.241        0.758738        0.722578 
        1.25666        0.741612        0.701226 
        1.27241        0.717438        0.680637 
        1.28819        0.690573        0.660841 
        1.30392        0.673582        0.641891 
        1.31957        0.656156        0.623769 
        1.33529        0.631883        0.606281 
        1.35108        0.616437        0.589394 
        1.36674        0.598715        0.573272 
         1.3824        0.588259        0.557767 
        1.39811         0.56898        0.542785 
        1.41389        0.553959        0.528297 
        1.42964         0.53879        0.514362 
        1.44531        0.524092        0.500997 
        1.46101         0.50859        0.488079 
        1.47667         0.49794        0.475655 
        1.49229        0.481425        0.463697 
        1.50793        0.471131        0.452137 
        1.52367        0.457607        0.440896 
        1.53953        0.445237        0.429962 
        1.55526        0.436336        0.419486 
        1.57092        0.429627        0.409403 
        1.58662        0.419535        0.399627 
        1.60235        0.406484        0.390151 
        1.61809        0.395698        0.380977 
        1.63369         0.38431         0.37218 
        1.64941         0.37757        0.363597 
        1.66519        0.370138        0.355254 
        1.68085        0.359339        0.347233 
        1.69652        0.351113        0.339456 
        1.71228          0.3422        0.331873 
        1.72806        0.336197        0.324516 
        1.74368        0.327903        0.317456 
        1.75933        0.321509        0.310591 
        1.77505        0.314873        0.303898 
        1.79081        0.304481        0.297389 
         1.8065        0.301843        0.291099 
        1.82218        0.292565        0.284996 
        1.83797        0.283934        0.279027 
        1.85367        0.281295        0.273261 
        1.86928         0.27415        0.267693 
        1.88497        0.267052        0.262249 
        1.90073        0.263796        0.256936 
        1.91647        0.256857        0.251776 
        1.93218        0.252388        0.246768 
        1.94787         0.24659        0.241903 
        1.96363         0.24162         0.23715 
        1.97935        0.236261        0.232535 
        1.99499        0.231794        0.228068 
        2.01064        0.227251        0.223712 
         2.0264         0.22189        0.219443 
        2.04216        0.217101        0.215287 
        2.05781        0.213619        0.211264 
        2.07353        0.209146         0.20733 
        2.08928        0.206221        0.203488 
        2.10499        0.201088        0.199753 
        2.12065        0.197375        0.196123 
        2.13633        0.193759         0.19258 
        2.15211        0.189883        0.189101 
        2.16785        0.186681        0.185718 
        2.18349        0.183118        0.182439 
        2.19916           0.179        0.179232 
        2.21489        0.175223        0.176092 
        2.23063        0.172317        0.173024 
         2.2463        0.169509        0.170043 
        2.26194        0.166392         0.16714 
        2.27765        0.163241         0.16429 
        2.29341        0.160131        0.161498 
        2.30914        0.156682        0.158778 
        2.32486        0.154311        0.156121 
        2.34061        0.151271         0.15352 
        2.35635        0.148843        0.150981 
        2.37203        0.146937        0.148509 
        2.38768        0.144153        0.146096 
        2.40339        0.141172        0.143728 
        2.41914        0.139252        0.141408 
        2.43483        0.136433        0.139146 
         2.4505        0.133976        0.136938 
        2.46622        0.131943         0.13477 
        2.48195        0.129218        0.132649 
        2.49759        0.128034        0.130584 
        2.51328        0.124842        0.128559 
        2.52906        0.122909        0.126563 
        2.54479        0.120859        0.124617 
        2.56049        0.118559        0.122715 
        2.57618        0.117444        0.120855 
        2.59189        0.114867        0.119031 
        2.60758        0.113594        0.117247 
        2.62325        0.111592        0.115501 
        2.63898        0.110093        0.113786 
        2.65468        0.107454        0.112108 
        2.67044        0.106008        0.110457 
        2.68618        0.104319        0.108843 
        2.70184        0.102976        0.107268 
        2.71755        0.100994         0.10572 
        2.73329       0.0999055          0.1042 
        2.74897       0.0977164        0.102715 
        2.76462        0.096681        0.101262 
        2.78034       0.0949599       0.0998306 
        2.79607       0.0939018       0.0984257 
        2.81179       0.0916499       0.0970494 
        2.82749       0.0907728        0.095701 
        2.84321       0.0895184       0.0943766 
        2.85893       0.0879358       0.0930776 
        2.87462       0.0867611       0.0918053 
        2.89033       0.0853763       0.0905555 
        2.90605       0.0843167       0.0893279 
        2.92176       0.0831971       0.0881236 
        2.93747       0.0816845        0.086942 
        2.95318       0.0807276       0.0857819 
        2.96891       0.0796514       0.0846423 
        2.98456       0.0787921       0.0835285 
        3.00023          0.0773        0.082433 
        3.01596       0.0762846       0.0813538 
        3.03164       0.0750207       0.0802969 
        3.04738       0.0742839       0.0792556 
         3.0631       0.0730944       0.0782332 
        3.07883       0.0719906       0.0772287 
        3.09456       0.0711959       0.0762419 
        3.11026        0.070054       0.0752739 
        3.12596       0.0692043       0.0743227 
        3.14163       0.0683301       0.0733902 
        3.15734       0.0677177       0.0724714 
        3.17308       0.0666559       0.0715662 
        3.18879       0.0657689       0.0706788 
        3.20447        0.064868       0.0698077 
         3.2202       0.0641579       0.0689486 
         3.2359       0.0632915       0.0681055 
        3.25157       0.0623123       0.0672784 
        3.26729       0.0618686       0.0664625 
        3.28304        0.061215       0.0656585 
        3.29877        0.060169       0.0648689 
        3.31446       0.0596675       0.0640939 
        3.33014       0.0590383       0.0633323 
        3.34585       0.0579671       0.0625818 
        3.36158       0.0573588       0.0618424 
        3.37727       0.0567807       0.0611171 
        3.39294        0.056266       0.0604042 
        3.40867       0.0555183          0.0597 
        3.42439        0.054897       0.0590074 
        3.44008       0.0544603       0.0583272 
        3.45578       0.0539268       0.0576571 
        3.47153       0.0533689       0.0569961 
        3.48724       0.0527526       0.0563465 
        3.50292       0.0522878       0.0557086 
        3.51859       0.0516319       0.0550808 
        3.53431       0.0511057       0.0544607 
        3.55007       0.0506888       0.0538487 
        3.56577       0.0504004       0.0532484 
        3.58146       0.0496484       0.0526575 
        3.59719       0.0490392       0.0520743 
        3.61292       0.0485461          0.0515 
        3.62859       0.0483719       0.0509365 
        3.64429       0.0476635       0.0503804 
        3.66003       0.0475833       0.0498308 
        3.67578       0.0470257       0.0492896 
        3.69146        0.046669       0.0487585 
        3.70712       0.0460968       0.0482362 
        3.72284       0.0457029       0.0477195 
        3.73853        0.045409       0.0472113 
        3.75422       0.0449705       0.0467103 
        3.76993       0.0445295       0.0462162 
        3.78564       0.0443042       0.0457293 
        3.80137       0.0440753       0.0452487 
        3.81707       0.0434215       0.0447759 
        3.83279       0.0432139       0.0443095 
        3.84853       0.0428584        0.043849 
        3.86424       0.0425177        0.043396 
        3.87992       0.0421636       0.0429499 
        3.89561       0.0418142       0.0425101 
        3.91134       0.0414023       0.0420756 
        3.92704       0.0410491       0.0416476 
        3.94273       0.0407096        0.041226 
        3.95845        0.040256       0.0408094 
        3.97418       0.0400851       0.0403985 
        3.98988       0.0394554       0.0399938 
        4.00554       0.0391938       0.0395957 
        4.02125       0.0388262       0.0392019 
        4.03698       0.0381655       0.0388128 
        4.05268       0.0378126       0.0384299 
        4.06839       0.0371756       0.0380518 
         4.0841       0.0365764       0.0376789 
        4.09983       0.0360694       0.0373105 
        4.11555       0.0355448       0.0369472 
        4.13124       0.0350502       0.0365897 
        4.14693       0.0345722       0.0362366 
        4.16266       0.0341128       0.0358873 
        4.17839       0.0336432       0.0355428 
        4.19408       0.0331893       0.0352036 
        4.20977       0.0328218       0.0348687 
        4.22551       0.0323184       0.0345374 
        4.24123       0.0319617       0.0342106 
        4.25691       0.0316913        0.033889 
        4.27259       0.0313468       0.0335714 
        4.28831       0.0310455       0.0332572 
        4.30404       0.0306168       0.0329468 
        4.31974       0.0303928       0.0326409 
        4.33543       0.0300736       0.0323392 
        4.35116        0.029903       0.0320404 
        4.36688       0.0296323       0.0317456 
        4.38255       0.0293114       0.0314556 
        4.39825       0.0291696       0.0311685 
        4.41398       0.0288844       0.0308845 
         4.4297        0.028788       0.0306043 
        4.44541       0.0286224       0.0303276 
        4.46111       0.0284408       0.0300545 
        4.47683       0.0282708       0.0297846 
        4.49251        0.028178       0.0295186 
        4.50819        0.028069       0.0292558 
         4.5239       0.0279182       0.0289959 
        4.53962       0.0279012       0.0287388 
        4.55535       0.0278044       0.0284847 
        4.57106       0.0276987        0.028234 
        4.58678       0.0276739       0.0279862 
         4.6025        0.027568       0.0277414 
        4.61821       0.0276512       0.0274996 
        4.63391       0.0275802       0.0272609 
         4.6496       0.0274975       0.0270251 
        4.66532       0.0276159       0.0267918 
        4.68103       0.0276037       0.0265613 
        4.69673       0.0275742       0.0263338 
        4.71241       0.0276897       0.0261091 
        4.72811        0.027609       0.0258867 
        4.74384       0.0278002       0.0256665 
        4.75955       0.0278391       0.0254493 
        4.77525       0.0279791       0.0252347 
        4.79096       0.0280735       0.0250223 
        4.80669       0.0282359       0.0248122 
         4.8224       0.0283078       0.0246048 
        4.83809         0.02849       0.0243999 
        4.85379       0.0286708       0.0241973 
         4.8695       0.0288979       0.0239968 
        4.88521       0.0290014       0.0237986 
        4.90093       0.0292546       0.0236027 
        4.91663       0.0294532       0.0234091 
        4.93234       0.0295969       0.0232175 
        4.94807       0.0298424       0.0230279 
        4.96377       0.0300467       0.0228408 
        4.97943       0.0304527       0.0226561 
        4.99514       0.0306932        0.022473 
        5.01086       0.0309274       0.0222918 
        5.02654       0.0313543        0.022113 
        5.04227       0.0316909       0.0219356 
          5.058       0.0319226       0.0217602 
        5.07371       0.0322577       0.0215869 
        5.08942       0.0327653       0.0214156 
        5.10513       0.0330299        0.021246 
        5.12084       0.0334975       0.0210782 
        5.13656       0.0338968       0.0209123 
        5.15225        0.034395       0.0207484 
        5.16796       0.0348851        0.020586 
        5.18369       0.0353432       0.0204252 
         5.1994       0.0357434       0.0202664 
        5.21509       0.0363165       0.0201094 
        5.23079         0.03683       0.0199539 
        5.24649       0.0374394       0.0198002 
        5.26217       0.0379285       0.0196482 
        5.27788       0.0386875       0.0194975 
        5.29359       0.0393071       0.0193484 
        5.30933        0.039684       0.0192007 
        5.32504       0.0404248       0.0190547 
        5.34073        0.040876       0.0189104 
        5.35646       0.0417801       0.0187673 
        5.37218       0.0424014       0.0186257 
        5.38789        0.043273       0.0184857 
        5.40357       0.0441388       0.0183474 
        5.41929       0.0448707       0.0182101 
        5.43502         0.04589       0.0180743 
         5.4507       0.0463533       0.0179401 
        5.46639        0.047291       0.0178073 
        5.48212       0.0480518       0.0176755 
        5.49786       0.0492669       0.0175449 
        5.51353       0.0503377       0.0174162 
        5.52921       0.0510551       0.0172887 
        5.54495       0.0522566       0.0171621 
        5.56066       0.0531555       0.0170369 
        5.57637        0.054353        0.016913 
        5.59207       0.0550839       0.0167904 
        5.60778       0.0562998        0.016669 
        5.62346       0.0574571       0.0165489 
        5.63916       0.0587931       0.0164299 
        5.65487       0.0605453        0.016312 
         5.6706       0.0607391       0.0161951 
        5.68633       0.0625704       0.0160794 
        5.70203       0.0638701        0.015965 
        5.71773       0.0655287       0.0158517 
        5.73344       0.0671087       0.0157394 
        5.74916       0.0688276       0.0156282 
        5.76486       0.0701273       0.0155181 
        5.78054       0.0718448       0.0154093 
        5.79626       0.0731616       0.0153012 
          5.812       0.0750566       0.0151941 
         5.8277       0.0766979       0.0150883 
        5.84339       0.0781509       0.0149835 
        5.85911       0.0801551       0.0148795 
        5.87484       0.0816627       0.0147765 
        5.89053       0.0842011       0.0146746 
        5.90623       0.0863394       0.0145737 
        5.92195       0.0880399       0.0144735 
        5.93767       0.0900432       0.0143744 
        5.95336       0.0921789       0.0142763 
        5.96905       0.0950177       0.0141792 
        5.98476       0.0963402       0.0140828 
        6.00048       0.0989385       0.0139873 
        6.01617        0.101427       0.0138929 
        6.03185        0.103578       0.0137994 
        6.04756        0.105255       0.0137065 
        6.06331        0.108775       0.0136143 
        6.07903        0.111398       0.0135231 
        6.09473        0.113777       0.0134329 
        6.11044        0.117458       0.0133434 
        6.12616        0.119454       0.0132547 
        6.14186        0.122971       0.0131669 
        6.15755        0.125438       0.0130799 
        6.17326        0.129103       0.0129936 
        6.18898        0.132121       0.0129081 
        6.20467        0.135161       0.0128234 
        6.22036        0.138941       0.0127396 
         6.2361        0.141202       0.0126563 
         6.2518        0.146441       0.0125738 
        6.26748        0.149349       0.0124923 
        6.28319        0.152527       0.0124112 
        6.29893        0.156931       0.0123308 
        6.31463        0.160898       0.0122513 
        6.33033        0.164073       0.0121724 
        6.34604        0.168652       0.0120942 
        6.36177        0.172008       0.0120167 
        6.37747        0.175946       0.0119399 
