# k  (h/Mpc)    Pcb(k)  (Mpc/h)^3    Pcb_linear(k) (Mpc/h)^3   ShotnoiseSubtracted = true
      0.0200456         868.418          879.62 
      0.0350414         552.124         551.482 
      0.0492313         370.912         368.602 
      0.0637834         306.573         303.984 
      0.0800726         237.402         236.111 
       0.096163         159.924         159.732 
       0.111083         123.696         123.907 
       0.126058          112.32         112.084 
       0.142273         94.6154         93.9567 
       0.158546         72.0273         70.8664 
        0.17375         58.9432         58.8817 
       0.188953         54.4774         54.1117 
       0.204907          49.091         47.7214 
       0.220756         40.0934         39.2963 
        0.23588         34.4536         33.7721 
         0.2514         31.1575         30.8937 
       0.267535          28.327         27.9527 
       0.283568         24.7749         24.2848 
       0.299022         22.0549          21.426 
       0.314451         19.7816         19.6138 
       0.330372         18.2998         17.9929 
       0.346141         16.4986         16.2064 
       0.361624         15.0036          14.626 
       0.377134         13.9092         13.4397 
       0.392932         12.4459         12.4279 
       0.408854         11.7774          11.408 
       0.424564         10.7801         10.4643 
       0.440253         9.95091         9.67926 
       0.455999          9.3186         9.00596 
       0.471626         8.71826         8.37763 
        0.48727          8.0824         7.78568 
       0.502856         7.50448         7.26079 
       0.518488          7.1309         6.79861 
       0.534347         6.76921         6.36707 
       0.550082         6.17723         5.96775 
       0.565732         5.69288           5.604 
       0.581496         5.52305         5.27353 
       0.597222          5.2485         4.97068 
       0.612804         4.89443         4.69202 
       0.628434         4.69204         4.43269 
       0.644267         4.43522         4.19119 
       0.660051         4.17027         3.96938 
       0.675724         3.96068         3.76485 
       0.691403          3.8007         3.57441 
       0.707174         3.59029         3.39595 
       0.722871         3.41713         3.23028 
        0.73838         3.26764         3.07734 
       0.754018         3.15704          2.9331 
       0.769845         2.97921          2.7965 
        0.78569         2.86025         2.66844 
       0.801365         2.72502         2.54966 
       0.817031         2.61927          2.4382 
       0.832809         2.51167         2.33272 
       0.848511         2.37803         2.23399 
       0.864097         2.27804         2.14167 
       0.879701         2.19207         2.05449 
       0.895507         2.09977         1.97116 
       0.911279         2.05281         1.89264 
        0.92691         1.96577         1.81905 
       0.942635         1.87902         1.74899 
       0.958396         1.80278         1.68247 
       0.974128         1.74212         1.61954 
       0.989692         1.69542         1.56045 
        1.00528         1.61935         1.50423 
        1.02113         1.55538          1.4499 
        1.03692         1.51923         1.39845 
        1.05264         1.46082         1.34974 
        1.06832         1.41966         1.30343 
        1.08405         1.34837         1.25917 
        1.09979         1.31591         1.21694 
        1.11537         1.27714         1.17706 
        1.13105         1.23911         1.13874 
        1.14679         1.20421         1.10197 
        1.16256          1.1538         1.06676 
        1.17828         1.12355         1.03321 
        1.19395         1.09004         1.00121 
         1.2097         1.04207        0.970407 
        1.22537            1.02        0.941049 
          1.241        0.992378        0.912995 
        1.25666        0.979111        0.886016 
        1.27241        0.929895        0.860002 
        1.28819        0.907244         0.83499 
        1.30392         0.88684        0.811046 
        1.31957        0.863645        0.788148 
        1.33529        0.833923        0.766051 
        1.35108        0.812594        0.744714 
        1.36674        0.782814        0.724343 
         1.3824        0.768281        0.704753 
        1.39811        0.745986        0.685823 
        1.41389         0.72988        0.667516 
        1.42964        0.712039        0.649909 
        1.44531        0.689962        0.633022 
        1.46101        0.674538          0.6167 
        1.47667        0.649633        0.601003 
        1.49229        0.642947        0.585893 
        1.50793        0.621437        0.571286 
        1.52367        0.608434        0.557083 
        1.53953        0.589077        0.543268 
        1.55526        0.577344        0.530032 
        1.57092        0.561817        0.517291 
        1.58662        0.550869        0.504938 
        1.60235        0.536679        0.492965 
        1.61809        0.520878        0.481374 
        1.63369        0.517591        0.470258 
        1.64941         0.49916        0.459414 
        1.66519        0.488742        0.448873 
        1.68085        0.474723        0.438737 
        1.69652        0.465575        0.428911 
        1.71228        0.457416         0.41933 
        1.72806        0.442846        0.410035 
        1.74368        0.437446        0.401114 
        1.75933        0.425147         0.39244 
        1.77505        0.417095        0.383982 
        1.79081        0.407731        0.375759 
         1.8065         0.39566        0.367811 
        1.82218        0.390302          0.3601 
        1.83797        0.381597        0.352557 
        1.85367        0.376931        0.345272 
        1.86928        0.366912        0.338236 
        1.88497        0.358178        0.331358 
        1.90073        0.349838        0.324646 
        1.91647        0.345499        0.318125 
        1.93218        0.336575        0.311797 
        1.94787        0.330276        0.305651 
        1.96363        0.322353        0.299645 
        1.97935        0.316458        0.293814 
        1.99499        0.310033         0.28817 
        2.01064        0.303549        0.282666 
         2.0264         0.29788        0.277272 
        2.04216        0.293324         0.27202 
        2.05781         0.28674        0.266938 
        2.07353        0.279953        0.261967 
        2.08928        0.274024        0.257112 
        2.10499        0.270694        0.252393 
        2.12065        0.266395        0.247806 
        2.13633        0.261193        0.243329 
        2.15211        0.255805        0.238934 
        2.16785        0.249876         0.23466 
        2.18349        0.245479        0.230516 
        2.19916        0.241832        0.226464 
        2.21489        0.236675        0.222496 
        2.23063        0.232864         0.21862 
         2.2463        0.229182        0.214854 
        2.26194         0.22252        0.211186 
        2.27765        0.219853        0.207584 
        2.29341        0.216645        0.204057 
        2.30914        0.213531        0.200619 
        2.32486        0.209217        0.197263 
        2.34061        0.205594        0.193977 
        2.35635        0.200741        0.190769 
        2.37203        0.197492        0.187644 
        2.38768        0.194287        0.184596 
        2.40339        0.192019        0.181604 
        2.41914        0.188588        0.178672 
        2.43483        0.185214        0.175815 
         2.4505        0.181267        0.173025 
        2.46622        0.178532        0.170285 
        2.48195         0.17638        0.167605 
        2.49759        0.173101        0.164997 
        2.51328        0.170001        0.162437 
        2.52906         0.16765        0.159915 
        2.54479        0.164225        0.157456 
        2.56049        0.161442        0.155054 
        2.57618        0.159138        0.152704 
        2.59189        0.156981        0.150398 
        2.60758        0.154787        0.148144 
        2.62325        0.151912        0.145939 
        2.63898        0.149492        0.143771 
        2.65468        0.146819        0.141651 
        2.67044        0.144744        0.139565 
        2.68618        0.142316        0.137526 
        2.70184        0.140178        0.135536 
        2.71755        0.137637         0.13358 
        2.73329        0.135871        0.131659 
        2.74897        0.134207        0.129782 
        2.76462        0.132016        0.127946 
        2.78034        0.130058        0.126138 
        2.79607        0.127987        0.124363 
        2.81179        0.126692        0.122624 
        2.82749        0.124148        0.120921 
        2.84321        0.122618        0.119247 
        2.85893        0.120893        0.117606 
        2.87462        0.118689        0.115998 
        2.89033        0.117273        0.114419 
        2.90605         0.11554        0.112868 
        2.92176        0.114057        0.111346 
        2.93747        0.112261        0.109853 
        2.95318        0.110901        0.108388 
        2.96891        0.109345        0.106948 
        2.98456        0.107617         0.10554 
        3.00023        0.106457        0.104156 
        3.01596        0.104759        0.102793 
        3.03164        0.103831        0.101457 
        3.04738        0.101755        0.100141 
         3.0631        0.100821       0.0988496 
        3.07883       0.0991908       0.0975803 
        3.09456       0.0979671       0.0963336 
        3.11026       0.0969762       0.0951104 
        3.12596       0.0952272       0.0939086 
        3.14163       0.0941672       0.0927303 
        3.15734        0.093377       0.0915695 
        3.17308       0.0920375       0.0904256 
        3.18879       0.0911013       0.0893044 
        3.20447       0.0893614       0.0882038 
         3.2202       0.0889132       0.0871183 
         3.2359       0.0876866        0.086053 
        3.25157       0.0865409       0.0850079 
        3.26729       0.0852746       0.0839771 
        3.28304       0.0847174       0.0829612 
        3.29877       0.0834845       0.0819635 
        3.31446       0.0825462       0.0809843 
        3.33014       0.0817918       0.0800219 
        3.34585       0.0812844       0.0790737 
        3.36158       0.0800384       0.0781394 
        3.37727       0.0793446        0.077223 
        3.39294        0.078116       0.0763222 
        3.40867        0.077228       0.0754325 
        3.42439       0.0766451       0.0745574 
        3.44008       0.0754924       0.0736978 
        3.45578        0.075041       0.0728512 
        3.47153       0.0739828       0.0720159 
        3.48724       0.0734315       0.0711952 
        3.50292       0.0727528       0.0703892 
        3.51859       0.0718894        0.069596 
        3.53431         0.07094       0.0688125 
        3.55007       0.0706493       0.0680392 
        3.56577       0.0697407       0.0672807 
        3.58146       0.0691837       0.0665341 
        3.59719       0.0685534       0.0657971 
        3.61292       0.0680695       0.0650715 
        3.62859       0.0672198       0.0643596 
        3.64429       0.0666155       0.0636569 
        3.66003       0.0661387       0.0629625 
        3.67578       0.0654392       0.0622787 
        3.69146       0.0647652       0.0616076 
        3.70712       0.0644454       0.0609476 
        3.72284       0.0639192       0.0602948 
        3.73853       0.0633669       0.0596527 
        3.75422       0.0628942       0.0590197 
        3.76993       0.0622031       0.0583953 
        3.78564       0.0616846       0.0577801 
        3.80137       0.0612441       0.0571728 
        3.81707       0.0607389       0.0565755 
        3.83279       0.0603918       0.0559862 
        3.84853       0.0596616       0.0554043 
        3.86424        0.059186       0.0548319 
        3.87992       0.0586912       0.0542683 
        3.89561       0.0582822       0.0537126 
        3.91134       0.0579581       0.0531636 
        3.92704       0.0572068       0.0526228 
        3.94273       0.0567324       0.0520901 
        3.95845       0.0561444       0.0515637 
        3.97418       0.0560811       0.0510445 
        3.98988       0.0552474       0.0505331 
        4.00554       0.0548021       0.0500301 
        4.02125       0.0540922       0.0495326 
        4.03698       0.0533399       0.0490409 
        4.05268       0.0526448       0.0485571 
        4.06839       0.0519362       0.0480794 
         4.0841       0.0511622       0.0476083 
        4.09983       0.0505102       0.0471428 
        4.11555       0.0497564       0.0466837 
        4.13124       0.0488912        0.046232 
        4.14693       0.0484938       0.0457858 
        4.16266       0.0478166       0.0453445 
        4.17839       0.0471377       0.0449092 
        4.19408       0.0465125       0.0444807 
        4.20977       0.0460857       0.0440575 
        4.22551         0.04558       0.0436388 
        4.24123       0.0449816        0.043226 
        4.25691        0.044445       0.0428196 
        4.27259       0.0439362       0.0424183 
        4.28831       0.0435878       0.0420214 
        4.30404       0.0432094       0.0416291 
        4.31974       0.0428619       0.0412426 
        4.33543       0.0424241       0.0408613 
        4.35116         0.04199       0.0404839 
        4.36688       0.0416931       0.0401114 
        4.38255       0.0411329       0.0397449 
        4.39825       0.0410621       0.0393822 
        4.41398       0.0407713       0.0390233 
         4.4297       0.0405495       0.0386693 
        4.44541       0.0402768       0.0383197 
        4.46111       0.0400706       0.0379746 
        4.47683       0.0397023       0.0376336 
        4.49251       0.0395342       0.0372974 
        4.50819       0.0393675       0.0369655 
         4.5239       0.0391731        0.036637 
        4.53962       0.0390947       0.0363122 
        4.55535       0.0389842       0.0359911 
        4.57106       0.0388242       0.0356743 
        4.58678       0.0387071       0.0353613 
         4.6025       0.0387516        0.035052 
        4.61821       0.0387387       0.0347464 
        4.63391       0.0386992       0.0344448 
         4.6496       0.0385957       0.0341469 
        4.66532       0.0384963       0.0338521 
        4.68103        0.038618       0.0335609 
        4.69673         0.03846       0.0332734 
        4.71241       0.0386143       0.0329895 
        4.72811       0.0386267       0.0327084 
        4.74384       0.0387261       0.0324303 
        4.75955       0.0389335       0.0321558 
        4.77525       0.0390369       0.0318846 
        4.79096       0.0389497       0.0316163 
        4.80669       0.0391998       0.0313508 
         4.8224       0.0394803       0.0310888 
        4.83809       0.0395299       0.0308299 
        4.85379       0.0396923       0.0305739 
         4.8695       0.0398493       0.0303206 
        4.88521        0.040206       0.0300702 
        4.90093       0.0403347       0.0298226 
        4.91663       0.0404989        0.029578 
        4.93234       0.0407845       0.0293359 
        4.94807       0.0412117       0.0290963 
        4.96377        0.041556       0.0288599 
        4.97943       0.0420058       0.0286265 
        4.99514       0.0419618       0.0283952 
        5.01086       0.0424998       0.0281662 
        5.02654       0.0428959       0.0279403 
        5.04227       0.0432782       0.0277162 
          5.058       0.0437456       0.0274945 
        5.07371        0.044191       0.0272756 
        5.08942       0.0444745       0.0270591 
        5.10513       0.0451167       0.0268449 
        5.12084       0.0454291       0.0266329 
        5.13656       0.0459711       0.0264232 
        5.15225       0.0467108       0.0262161 
        5.16796       0.0473619       0.0260109 
        5.18369        0.047771       0.0258078 
         5.1994       0.0486439       0.0256071 
        5.21509       0.0489684       0.0254088 
        5.23079       0.0496765       0.0252123 
        5.24649       0.0503259        0.025018 
        5.26217        0.051293        0.024826 
        5.27788       0.0518744       0.0246356 
        5.29359       0.0527352       0.0244472 
        5.30933       0.0534246       0.0242606 
        5.32504       0.0543724       0.0240761 
        5.34073       0.0549104       0.0238938 
        5.35646       0.0559924        0.023713 
        5.37218       0.0568974        0.023534 
        5.38789        0.057759       0.0233572 
        5.40357       0.0586896       0.0231824 
        5.41929       0.0597429        0.023009 
        5.43502       0.0607365       0.0228373 
         5.4507       0.0619345       0.0226678 
        5.46639        0.062999       0.0224999 
        5.48212       0.0639529       0.0223334 
        5.49786       0.0651978       0.0221684 
        5.51353       0.0664375       0.0220058 
        5.52921       0.0673704       0.0218447 
        5.54495       0.0688525       0.0216848 
        5.56066       0.0699914       0.0215266 
        5.57637       0.0715508         0.02137 
        5.59207       0.0732526       0.0212151 
        5.60778       0.0743953       0.0210616 
        5.62346       0.0761815       0.0209099 
        5.63916       0.0771906       0.0207596 
        5.65487       0.0788057       0.0206106 
         5.6706       0.0807434        0.020463 
        5.68633         0.08165       0.0203167 
        5.70203       0.0832292       0.0201721 
        5.71773       0.0855619        0.020029 
        5.73344       0.0870894       0.0198872 
        5.74916       0.0896411       0.0197466 
        5.76486       0.0909559       0.0196076 
        5.78054       0.0927683       0.0194701 
        5.79626        0.094368       0.0193335 
          5.812       0.0966883       0.0191981 
         5.8277       0.0987212       0.0190644 
        5.84339        0.100698        0.018932 
        5.85911        0.103113       0.0188006 
        5.87484        0.105178       0.0186704 
        5.89053        0.108259       0.0185417 
        5.90623         0.11074       0.0184142 
        5.92195        0.112519       0.0182877 
        5.93767         0.11487       0.0181624 
        5.95336        0.118234       0.0180385 
        5.96905        0.120237       0.0179158 
        5.98476          0.1229        0.017794 
        6.00048        0.125238       0.0176734 
        6.01617        0.128085        0.017554 
        6.03185        0.131945       0.0174358 
        6.04756        0.134462       0.0173185 
        6.06331        0.136708        0.017202 
        6.07903        0.140829       0.0170868 
        6.09473        0.143645       0.0169728 
        6.11044        0.146571       0.0168597 
        6.12616        0.149654       0.0167476 
        6.14186         0.15235       0.0166367 
        6.15755         0.15585       0.0165268 
        6.17326         0.16067       0.0164177 
        6.18898        0.163215       0.0163097 
        6.20467        0.167994       0.0162027 
        6.22036        0.169983       0.0160968 
         6.2361        0.174115       0.0159915 
         6.2518        0.178527       0.0158873 
        6.26748        0.181337       0.0157843 
        6.28319        0.186433       0.0156819 
        6.29893        0.191526       0.0155803 
        6.31463        0.195604       0.0154798 
        6.33033        0.199676       0.0153802 
        6.34604        0.202452       0.0152814 
        6.36177        0.207061       0.0151834 
        6.37747        0.212448       0.0150864 
