# k  (h/Mpc)    Pcb(k)  (Mpc/h)^3    Pcb_linear(k) (Mpc/h)^3   ShotnoiseSubtracted = true
      0.0200456         4564.58         4621.88 
      0.0350414         2974.57         2897.71 
      0.0492313         1943.37         1936.78 
      0.0637834         1569.92         1597.25 
      0.0800726          1212.2         1240.62 
       0.096163         868.939         839.297 
       0.111083         680.454         651.056 
       0.126058         586.694         588.932 
       0.142273         493.223         493.686 
       0.158546         385.108         372.361 
        0.17375         326.317         309.388 
       0.188953         298.601         284.325 
       0.204907         253.251         250.747 
       0.220756         219.388         206.479 
        0.23588         190.441         177.452 
         0.2514         171.656         162.328 
       0.267535          160.48         146.875 
       0.283568         138.787         127.602 
       0.299022         127.402         112.581 
       0.314451         121.001         103.059 
       0.330372         106.613         94.5422 
       0.346141         97.2304         85.1551 
       0.361624         89.5832          76.851 
       0.377134         81.6358         70.6175 
       0.392932         78.7311         65.3012 
       0.408854         72.7464         59.9424 
       0.424564         68.9004         54.9837 
       0.440253         62.6051         50.8587 
       0.455999         57.1057         47.3209 
       0.471626         54.5372         44.0194 
        0.48727         52.6057         40.9091 
       0.502856          48.642         38.1511 
       0.518488         46.1312         35.7226 
       0.534347          43.299         33.4551 
       0.550082         41.6819          31.357 
       0.565732         40.0861         29.4457 
       0.581496         37.1308         27.7093 
       0.597222         35.4686          26.118 
       0.612804         33.7944         24.6537 
       0.628434         33.1541         23.2912 
       0.644267         31.2159         22.0222 
       0.660051         29.8003         20.8567 
       0.675724         28.4837         19.7821 
       0.691403         27.8646         18.7814 
       0.707174          26.686         17.8437 
       0.722871         25.8359         16.9732 
        0.73838         24.5589         16.1696 
       0.754018         23.1342         15.4117 
       0.769845         22.7353         14.6939 
        0.78569         21.9253         14.0211 
       0.801365         21.1378         13.3969 
       0.817031         20.2328         12.8113 
       0.832809         19.7609         12.2571 
       0.848511         19.0584         11.7383 
       0.864097         18.5051         11.2532 
       0.879701         18.1483         10.7951 
       0.895507          17.419         10.3573 
       0.911279         16.7474         9.94468 
        0.92691         16.4509         9.55804 
       0.942635         16.0253         9.18988 
       0.958396         15.5422         8.84037 
       0.974128         15.1125          8.5097 
       0.989692         14.3921         8.19923 
        1.00528         14.2502         7.90382 
        1.02113          13.796         7.61834 
        1.03692         13.5098         7.34803 
        1.05264         13.2091         7.09209 
        1.06832         12.9207         6.84874 
        1.08405         12.5257         6.61617 
        1.09979          12.271         6.39427 
        1.11537         11.8674         6.18476 
        1.13105         11.7073         5.98339 
        1.14679         11.3907         5.79022 
        1.16256         11.1748         5.60521 
        1.17828         10.9369         5.42889 
        1.19395          10.731         5.26076 
         1.2097         10.4533         5.09891 
        1.22537         10.2477         4.94465 
          1.241         9.97252         4.79724 
        1.25666         9.84473         4.65548 
        1.27241         9.68518          4.5188 
        1.28819          9.2719         4.38737 
        1.30392         9.32385         4.26156 
        1.31957         9.02395         4.14125 
        1.33529         8.91134         4.02514 
        1.35108         8.73969         3.91303 
        1.36674         8.53404         3.80599 
         1.3824         8.36725         3.70306 
        1.39811         8.23652         3.60359 
        1.41389         8.09775          3.5074 
        1.42964         7.96046         3.41488 
        1.44531         7.81529         3.32615 
        1.46101         7.72229         3.24039 
        1.47667         7.55554         3.15791 
        1.49229          7.3492         3.07852 
        1.50793          7.2928         3.00177 
        1.52367         7.17808         2.92714 
        1.53953         7.05397         2.85455 
        1.55526         6.90571           2.785 
        1.57092         6.84833         2.71805 
        1.58662         6.71678         2.65315 
        1.60235         6.64659         2.59024 
        1.61809         6.52001         2.52933 
        1.63369         6.41216         2.47093 
        1.64941         6.29308         2.41395 
        1.66519         6.24042         2.35856 
        1.68085          6.1021          2.3053 
        1.69652         6.06678         2.25367 
        1.71228          5.9828         2.20333 
        1.72806         5.88329         2.15449 
        1.74368         5.79779         2.10761 
        1.75933         5.71183         2.06204 
        1.77505         5.61598          2.0176 
        1.79081         5.55087         1.97439 
         1.8065         5.50683         1.93263 
        1.82218         5.43887         1.89211 
        1.83797         5.32957         1.85248 
        1.85367         5.27338          1.8142 
        1.86928         5.18917         1.77723 
        1.88497         5.14473         1.74109 
        1.90073         5.06011         1.70582 
        1.91647         4.94406         1.67156 
        1.93218         4.92546         1.63831 
        1.94787         4.85477         1.60601 
        1.96363          4.8077         1.57446 
        1.97935         4.76265         1.54382 
        1.99499         4.69481         1.51416 
        2.01064         4.62949         1.48524 
         2.0264         4.58544          1.4569 
        2.04216         4.54564          1.4293 
        2.05781         4.48678          1.4026 
        2.07353         4.41825         1.37648 
        2.08928         4.36684         1.35097 
        2.10499         4.31941         1.32617 
        2.12065         4.29379         1.30207 
        2.13633         4.23202         1.27855 
        2.15211         4.18985         1.25546 
        2.16785          4.1252           1.233 
        2.18349         4.11074         1.21123 
        2.19916         4.05428         1.18993 
        2.21489         4.02126         1.16908 
        2.23063         3.96306         1.14872 
         2.2463         3.91052         1.12893 
        2.26194          3.8657         1.10966 
        2.27765         3.82262         1.09073 
        2.29341         3.77573          1.0722 
        2.30914         3.75907         1.05414 
        2.32486         3.70458          1.0365 
        2.34061         3.68691         1.01923 
        2.35635         3.64399         1.00238 
        2.37203         3.60882        0.985958 
        2.38768         3.57611        0.969942 
        2.40339         3.52422        0.954223 
        2.41914          3.5055        0.938815 
        2.43483         3.47777        0.923801 
         2.4505         3.41933        0.909141 
        2.46622         3.39529        0.894747 
        2.48195         3.38087        0.880664 
        2.49759         3.32643        0.866959 
        2.51328         3.30507        0.853509 
        2.52906         3.26268        0.840259 
        2.54479         3.24017        0.827339 
        2.56049         3.20705        0.814716 
        2.57618         3.18293        0.802366 
        2.59189         3.17376        0.790254 
        2.60758         3.13109         0.77841 
        2.62325         3.07728        0.766822 
        2.63898         3.08154         0.75543 
        2.65468         3.04356        0.744293 
        2.67044         3.02622        0.733332 
        2.68618         2.98728        0.722617 
        2.70184         2.97512        0.712159 
        2.71755         2.93804        0.701881 
        2.73329         2.91081        0.691789 
        2.74897         2.89028        0.681929 
        2.76462         2.86915        0.672282 
        2.78034          2.8451        0.662782 
        2.79607         2.81653        0.653455 
        2.81179         2.79663        0.644318 
        2.82749          2.7653        0.635365 
        2.84321         2.75311        0.626573 
        2.85893          2.7184        0.617949 
        2.87462         2.70948        0.609501 
        2.89033         2.68913        0.601204 
        2.90605         2.66154        0.593054 
        2.92176         2.62947        0.585058 
        2.93747         2.62201        0.577214 
        2.95318          2.5991        0.569512 
        2.96891         2.57542        0.561946 
        2.98456         2.55649        0.554551 
        3.00023         2.54225        0.547279 
        3.01596         2.51477        0.540113 
        3.03164         2.49853        0.533096 
        3.04738         2.48372        0.526184 
         3.0631         2.46682        0.519395 
        3.07883         2.44466        0.512726 
        3.09456         2.41752        0.506175 
        3.11026         2.40823        0.499748 
        3.12596          2.3973        0.493434 
        3.14163         2.36827        0.487242 
        3.15734         2.35286        0.481143 
        3.17308         2.33839        0.475133 
        3.18879         2.32299        0.469241 
        3.20447         2.31327        0.463458 
         3.2202         2.28653        0.457755 
         3.2359         2.27546        0.452157 
        3.25157         2.26031        0.446666 
        3.26729         2.24263        0.441249 
        3.28304         2.21698        0.435912 
        3.29877         2.21004        0.430669 
        3.31446         2.19742        0.425524 
        3.33014         2.17947        0.420467 
        3.34585         2.16911        0.415485 
        3.36158         2.14911        0.410576 
        3.37727         2.13538        0.405761 
        3.39294         2.12579        0.401028 
        3.40867         2.10826        0.396353 
        3.42439         2.09109        0.391754 
        3.44008         2.07866        0.387238 
        3.45578         2.06175        0.382789 
        3.47153         2.05198        0.378401 
        3.48724          2.0393        0.374088 
        3.50292         2.02705        0.369853 
        3.51859         2.00984        0.365685 
        3.53431         1.99691        0.361569 
        3.55007         1.98619        0.357505 
        3.56577         1.97144         0.35352 
        3.58146         1.96431        0.349597 
        3.59719         1.95714        0.345725 
        3.61292         1.93521        0.341912 
        3.62859         1.92565        0.338171 
        3.64429         1.91188        0.334479 
        3.66003         1.90298         0.33083 
        3.67578         1.89399        0.327237 
        3.69146         1.87558        0.323711 
        3.70712         1.87347        0.320243 
        3.72284         1.85456        0.316813 
        3.73853         1.84455        0.313439 
        3.75422         1.82756        0.310113 
        3.76993         1.81495        0.306832 
        3.78564         1.80642          0.3036 
        3.80137         1.79153        0.300409 
        3.81707         1.78628         0.29727 
        3.83279         1.77159        0.294174 
        3.84853         1.76108        0.291117 
        3.86424         1.74987        0.288109 
        3.87992         1.74407        0.285147 
        3.89561         1.73099        0.282228 
        3.91134         1.71773        0.279343 
        3.92704         1.70879        0.276501 
        3.94273         1.69586        0.273702 
        3.95845         1.68805        0.270936 
        3.97418         1.67624        0.268208 
        3.98988         1.66409        0.265521 
        4.00554         1.65544        0.262878 
        4.02125         1.64391        0.260264 
        4.03698         1.63465        0.257681 
        4.05268         1.62539        0.255138 
        4.06839          1.6137        0.252629 
         4.0841         1.60377        0.250153 
        4.09983         1.59222        0.247707 
        4.11555         1.58142        0.245295 
        4.13124         1.57453        0.242921 
        4.14693         1.56434        0.240577 
        4.16266         1.55322        0.238258 
        4.17839         1.54232        0.235971 
        4.19408         1.53015        0.233719 
        4.20977         1.52381        0.231496 
        4.22551         1.51164        0.229296 
        4.24123         1.50612        0.227127 
        4.25691         1.49639        0.224992 
        4.27259         1.48536        0.222883 
        4.28831         1.47485        0.220797 
        4.30404         1.46846        0.218736 
        4.31974          1.4625        0.216705 
        4.33543         1.45032        0.214702 
        4.35116         1.44088        0.212719 
        4.36688          1.4337        0.210761 
        4.38255         1.42898        0.208836 
        4.39825          1.4178         0.20693 
        4.41398         1.41231        0.205044 
         4.4297         1.40312        0.203184 
        4.44541         1.39223        0.201347 
        4.46111         1.38782        0.199534 
        4.47683         1.37842        0.197742 
        4.49251         1.36944        0.195976 
        4.50819         1.36642        0.194231 
         4.5239         1.35816        0.192506 
        4.53962           1.351        0.190799 
        4.55535         1.34164        0.189112 
        4.57106         1.33411        0.187447 
        4.58678         1.32677        0.185803 
         4.6025         1.32127        0.184177 
        4.61821         1.31504        0.182571 
        4.63391          1.3097        0.180987 
         4.6496         1.29906        0.179422 
        4.66532         1.29564        0.177873 
        4.68103         1.28951        0.176342 
        4.69673         1.28231        0.174832 
        4.71241         1.27481         0.17334 
        4.72811         1.27436        0.171863 
        4.74384          1.2659        0.170402 
        4.75955         1.26077         0.16896 
        4.77525         1.25269        0.167535 
        4.79096         1.24763        0.166125 
        4.80669         1.24205         0.16473 
         4.8224         1.23106        0.163353 
        4.83809         1.23082        0.161993 
        4.85379         1.22877        0.160648 
         4.8695         1.22242        0.159316 
        4.88521          1.2131        0.158001 
        4.90093         1.21042          0.1567 
        4.91663         1.20673        0.155415 
        4.93234         1.20149        0.154143 
        4.94807          1.1969        0.152884 
        4.96377         1.18941        0.151641 
        4.97943           1.186        0.150415 
        4.99514         1.18134          0.1492 
        5.01086         1.17509        0.147996 
        5.02654         1.17011         0.14681 
        5.04227         1.16456        0.145632 
          5.058         1.16232        0.144467 
        5.07371         1.15882        0.143317 
        5.08942         1.15696        0.142179 
        5.10513         1.15104        0.141054 
        5.12084         1.14389         0.13994 
        5.13656         1.14016        0.138838 
        5.15225         1.13719         0.13775 
        5.16796         1.13461        0.136672 
        5.18369         1.12811        0.135604 
         5.1994         1.12657         0.13455 
        5.21509         1.12033        0.133508 
        5.23079         1.11726        0.132476 
        5.24649         1.11556        0.131455 
        5.26217         1.10926        0.130446 
        5.27788         1.10241        0.129445 
        5.29359         1.10198        0.128456 
        5.30933         1.09718        0.127475 
        5.32504         1.09581        0.126506 
        5.34073          1.0896        0.125548 
        5.35646         1.08533        0.124598 
        5.37218         1.08443        0.123657 
        5.38789         1.08015        0.122728 
        5.40357         1.07565         0.12181 
        5.41929          1.0721        0.120898 
        5.43502         1.07047        0.119996 
         5.4507          1.0653        0.119106 
        5.46639         1.06171        0.118224 
        5.48212         1.05942        0.117349 
        5.49786         1.05569        0.116482 
        5.51353          1.0524        0.115627 
        5.52921          1.0511        0.114781 
        5.54495         1.05036         0.11394 
        5.56066         1.04623        0.113109 
        5.57637         1.04011        0.112286 
        5.59207         1.03683        0.111473 
        5.60778         1.03602        0.110666 
        5.62346         1.03247        0.109869 
        5.63916         1.02919        0.109079 
        5.65487         1.02581        0.108297 
         5.6706         1.02446        0.107521 
        5.68633         1.02155        0.106752 
        5.70203         1.01583        0.105992 
        5.71773          1.0168         0.10524 
        5.73344         1.01303        0.104495 
        5.74916         1.01068        0.103757 
        5.76486          1.0085        0.103026 
        5.78054         1.00507        0.102304 
        5.79626         1.00362        0.101586 
          5.812        0.998808        0.100875 
         5.8277        0.998441        0.100172 
        5.84339        0.994409       0.0994763 
        5.85911        0.993631       0.0987858 
        5.87484        0.988948       0.0981019 
        5.89053        0.988607       0.0974258 
        5.90623        0.986122       0.0967557 
        5.92195        0.982717       0.0960908 
        5.93767        0.978531       0.0954325 
        5.95336        0.979246       0.0947814 
        5.96905        0.975456       0.0941366 
        5.98476        0.972668       0.0934969 
        6.00048        0.970184       0.0928629 
        6.01617        0.968323       0.0922356 
        6.03185        0.966185       0.0916149 
        6.04756        0.963913       0.0909983 
        6.06331        0.961448       0.0903862 
        6.07903        0.960095       0.0897809 
        6.09473        0.959971       0.0891817 
        6.11044        0.955132       0.0885874 
        6.12616        0.950536       0.0879986 
        6.14186        0.951614       0.0874158 
        6.15755        0.947745       0.0868382 
        6.17326        0.947709       0.0862654 
        6.18898        0.945698       0.0856975 
        6.20467         0.94221       0.0851357 
        6.22036        0.941095        0.084579 
         6.2361         0.93678       0.0840257 
         6.2518         0.93705       0.0834783 
        6.26748        0.931875       0.0829369 
        6.28319        0.932498       0.0823989 
        6.29893        0.931424       0.0818651 
        6.31463        0.927057       0.0813369 
        6.33033        0.924692       0.0808136 
        6.34604        0.922597       0.0802945 
        6.36177        0.920623       0.0797794 
        6.37747        0.918765       0.0792699 
