# k  (h/Mpc)    Pcb(k)  (Mpc/h)^3    Pcb_linear(k) (Mpc/h)^3   ShotnoiseSubtracted = true
      0.0200456         1535.21         1555.47 
      0.0350414         973.622         975.206 
      0.0492313         655.651         651.814 
      0.0637834          543.53         537.546 
      0.0800726         420.998         417.524 
       0.096163         282.328          282.46 
       0.111083         218.321         219.109 
       0.126058         199.131         198.202 
       0.142273         168.154         166.147 
       0.158546         128.338         125.316 
        0.17375         104.522         104.123 
       0.188953         97.1465         95.6878 
       0.204907         88.1219         84.3875 
       0.220756         71.8349         69.4891 
        0.23588         61.7713         59.7204 
         0.2514         55.6584         54.6305 
       0.267535         50.8298         49.4298 
       0.283568         44.5963         42.9438 
       0.299022         39.8725         37.8883 
       0.314451          35.645         34.6838 
       0.330372         33.0495         31.8176 
       0.346141         29.7751         28.6584 
       0.361624          27.198         25.8637 
       0.377134         25.3193         23.7659 
       0.392932         22.5013         21.9767 
       0.408854         21.4423         20.1732 
       0.424564         19.7603         18.5045 
       0.440253         18.1936         17.1162 
       0.455999         17.0463         15.9256 
       0.471626         15.9691         14.8145 
        0.48727         14.8977         13.7677 
       0.502856         13.8535         12.8395 
       0.518488         13.1708         12.0222 
       0.534347         12.5567         11.2591 
       0.550082          11.415          10.553 
       0.565732         10.5212         9.90977 
       0.581496         10.2662         9.32539 
       0.597222         9.80793         8.78984 
       0.612804         9.11563         8.29707 
       0.628434         8.75328          7.8385 
       0.644267         8.35099         7.41144 
       0.660051         7.84954         7.01921 
       0.675724          7.4355         6.65753 
       0.691403         7.16452         6.32077 
       0.707174         6.78932         6.00518 
       0.722871         6.49262         5.71222 
        0.73838         6.19525         5.44178 
       0.754018         5.99548         5.18672 
       0.769845         5.67337         4.94515 
        0.78569         5.46751         4.71871 
       0.801365           5.219         4.50865 
       0.817031         5.02358         4.31156 
       0.832809         4.85231         4.12504 
       0.848511         4.56672         3.95044 
       0.864097         4.40475         3.78719 
       0.879701         4.25124         3.63304 
       0.895507         4.04214         3.48568 
       0.911279         3.98241         3.34682 
        0.92691         3.82507          3.2167 
       0.942635         3.64681          3.0928 
       0.958396         3.51477         2.97517 
       0.974128         3.40989         2.86389 
       0.989692         3.33245          2.7594 
        1.00528         3.18094         2.65998 
        1.02113         3.06143         2.56391 
        1.03692         2.98914         2.47294 
        1.05264         2.88635          2.3868 
        1.06832         2.81089          2.3049 
        1.08405         2.67508         2.22663 
        1.09979         2.61732         2.15196 
        1.11537         2.54534         2.08144 
        1.13105         2.46774         2.01367 
        1.14679         2.40005         1.94866 
        1.16256         2.31323          1.8864 
        1.17828         2.26044         1.82706 
        1.19395         2.19249         1.77048 
         1.2097         2.10428         1.71601 
        1.22537         2.05005         1.66409 
          1.241         2.00453         1.61448 
        1.25666         1.98343         1.56678 
        1.27241         1.88825         1.52077 
        1.28819           1.847         1.47654 
        1.30392          1.8076          1.4342 
        1.31957         1.76403         1.39371 
        1.33529         1.70673         1.35464 
        1.35108         1.66775         1.31691 
        1.36674         1.62002         1.28088 
         1.3824         1.57033         1.24624 
        1.39811         1.53495         1.21277 
        1.41389         1.50793         1.18039 
        1.42964         1.47097         1.14926 
        1.44531         1.43542          1.1194 
        1.46101         1.39858         1.09053 
        1.47667         1.35476         1.06278 
        1.49229         1.34248         1.03606 
        1.50793         1.30141         1.01023 
        1.52367         1.27731        0.985112 
        1.53953          1.2354        0.960682 
        1.55526         1.21339        0.937275 
        1.57092         1.18612        0.914745 
        1.58662         1.16237        0.892901 
        1.60235         1.13285        0.871729 
        1.61809         1.10895        0.851232 
        1.63369         1.09544        0.831576 
        1.64941         1.06218          0.8124 
        1.66519         1.04476        0.793759 
        1.68085         1.01407        0.775836 
        1.69652        0.996532         0.75846 
        1.71228        0.980145        0.741518 
        1.72806        0.953501         0.72508 
        1.74368        0.937539        0.709304 
        1.75933        0.915805        0.693967 
        1.77505        0.901401         0.67901 
        1.79081        0.882593        0.664468 
         1.8065        0.860108        0.650414 
        1.82218        0.850078        0.636779 
        1.83797         0.83535         0.62344 
        1.85367        0.821967        0.610558 
        1.86928        0.806599        0.598116 
        1.88497        0.784868        0.585953 
        1.90073        0.766796        0.574083 
        1.91647        0.759478        0.562553 
        1.93218         0.74607        0.551363 
        1.94787        0.728744        0.540494 
        1.96363        0.713357        0.529874 
        1.97935        0.701707        0.519562 
        1.99499        0.688732        0.509582 
        2.01064         0.67578         0.49985 
         2.0264        0.668695         0.49031 
        2.04216        0.654048        0.481024 
        2.05781        0.640387        0.472036 
        2.07353        0.631645        0.463246 
        2.08928        0.619629        0.454661 
        2.10499        0.609132        0.446316 
        2.12065        0.602644        0.438205 
        2.13633        0.591275        0.430288 
        2.15211        0.580428        0.422516 
        2.16785        0.566708        0.414957 
        2.18349        0.560863        0.407631 
        2.19916        0.550595        0.400465 
        2.21489        0.540688        0.393448 
        2.23063        0.531188        0.386595 
         2.2463        0.526356        0.379935 
        2.26194        0.513357        0.373448 
        2.27765        0.505186        0.367079 
        2.29341        0.499689        0.360842 
        2.30914        0.493189        0.354763 
        2.32486        0.486785        0.348827 
        2.34061        0.477111        0.343017 
        2.35635        0.467374        0.337344 
        2.37203        0.461412        0.331818 
        2.38768         0.45564        0.326428 
        2.40339        0.448854        0.321138 
        2.41914        0.442954        0.315953 
        2.43483        0.435334          0.3109 
         2.4505        0.427714        0.305966 
        2.46622        0.421318        0.301122 
        2.48195        0.417318        0.296382 
        2.49759        0.410574         0.29177 
        2.51328        0.402548        0.287243 
        2.52906        0.396898        0.282784 
        2.54479        0.392624        0.278436 
        2.56049         0.38597        0.274188 
        2.57618        0.381921        0.270032 
        2.59189        0.375596        0.265955 
        2.60758        0.371059        0.261969 
        2.62325        0.366281         0.25807 
        2.63898        0.361447        0.254236 
        2.65468        0.356059        0.250487 
        2.67044         0.35055        0.246799 
        2.68618        0.345299        0.243193 
        2.70184        0.340701        0.239673 
        2.71755        0.335622        0.236214 
        2.73329         0.33283        0.232818 
        2.74897        0.328251        0.229499 
        2.76462        0.323362        0.226253 
        2.78034        0.319838        0.223055 
        2.79607        0.314771        0.219916 
        2.81179        0.311021        0.216841 
        2.82749         0.30708        0.213828 
        2.84321        0.303645        0.210869 
        2.85893        0.299523        0.207967 
        2.87462        0.296058        0.205124 
        2.89033        0.291509        0.202332 
        2.90605        0.288264        0.199589 
        2.92176        0.284586        0.196898 
        2.93747        0.281033        0.194258 
        2.95318         0.27826        0.191666 
        2.96891        0.274798         0.18912 
        2.98456         0.27203        0.186631 
        3.00023        0.268449        0.184183 
        3.01596        0.264792        0.181772 
        3.03164        0.262933         0.17941 
        3.04738        0.258269        0.177084 
         3.0631        0.255915        0.174799 
        3.07883        0.252652        0.172555 
        3.09456        0.249742         0.17035 
        3.11026        0.247067        0.168187 
        3.12596        0.243796        0.166062 
        3.14163          0.2415        0.163979 
        3.15734        0.239617        0.161926 
        3.17308        0.236521        0.159903 
        3.18879        0.233488         0.15792 
        3.20447        0.231549        0.155974 
         3.2202        0.229137        0.154055 
         3.2359        0.226601        0.152171 
        3.25157        0.223762        0.150323 
        3.26729        0.222237          0.1485 
        3.28304        0.219843        0.146703 
        3.29877        0.217221        0.144939 
        3.31446        0.215392        0.143208 
        3.33014        0.213562        0.141506 
        3.34585        0.212158        0.139829 
        3.36158        0.209342        0.138177 
        3.37727        0.207445        0.136556 
        3.39294        0.205287        0.134963 
        3.40867        0.203003         0.13339 
        3.42439        0.201406        0.131843 
        3.44008        0.199493        0.130323 
        3.45578        0.198396        0.128826 
        3.47153        0.196548        0.127349 
        3.48724         0.19489        0.125897 
        3.50292        0.193272        0.124472 
        3.51859        0.190741        0.123069 
        3.53431         0.18938        0.121684 
        3.55007        0.188221        0.120316 
        3.56577        0.186059        0.118975 
        3.58146        0.184359        0.117655 
        3.59719        0.183371        0.116352 
        3.61292        0.181539        0.115068 
        3.62859        0.179351        0.113809 
        3.64429         0.17839        0.112567 
        3.66003        0.176945        0.111339 
        3.67578        0.175347         0.11013 
        3.69146        0.174132        0.108943 
        3.70712        0.172691        0.107776 
        3.72284        0.171535        0.106622 
        3.73853        0.170377        0.105486 
        3.75422         0.16871        0.104367 
        3.76993         0.16768        0.103263 
        3.78564        0.166008        0.102175 
        3.80137        0.164361        0.101101 
        3.81707        0.164111        0.100045 
        3.83279        0.162469       0.0990026 
        3.84853        0.161033       0.0979736 
        3.86424         0.15948       0.0969613 
        3.87992        0.158587       0.0959647 
        3.89561        0.157308       0.0949821 
        3.91134        0.156352       0.0940111 
        3.92704        0.154566       0.0930549 
        3.94273         0.15369       0.0921128 
        3.95845        0.152161       0.0911821 
        3.97418        0.150731       0.0902639 
        3.98988        0.149617       0.0893597 
        4.00554        0.147969       0.0884702 
        4.02125        0.146604       0.0875903 
        4.03698        0.145263        0.086721 
        4.05268        0.143885       0.0858654 
        4.06839        0.142167       0.0850206 
         4.0841        0.140308       0.0841875 
        4.09983        0.138377       0.0833644 
        4.11555        0.136671       0.0825526 
        4.13124        0.135171       0.0817537 
        4.14693        0.134301       0.0809648 
        4.16266        0.132634       0.0801844 
        4.17839        0.131472       0.0794147 
        4.19408        0.130074       0.0786569 
        4.20977        0.128722       0.0779086 
        4.22551        0.127909       0.0771682 
        4.24123        0.126326       0.0764382 
        4.25691        0.125098       0.0757196 
        4.27259           0.124       0.0750099 
        4.28831        0.123015        0.074308 
        4.30404        0.121684       0.0736143 
        4.31974        0.121165       0.0729309 
        4.33543         0.11996       0.0722566 
        4.35116        0.119053       0.0715892 
        4.36688        0.117872       0.0709305 
        4.38255        0.117238       0.0702824 
        4.39825        0.116569       0.0696411 
        4.41398        0.115558       0.0690064 
         4.4297        0.114832       0.0683804 
        4.44541        0.114265       0.0677621 
        4.46111        0.113758        0.067152 
        4.47683        0.112985       0.0665489 
        4.49251        0.112229       0.0659545 
        4.50819        0.111674       0.0653674 
         4.5239        0.111421       0.0647867 
        4.53962        0.110561       0.0642122 
        4.55535        0.110343       0.0636444 
        4.57106        0.109764       0.0630843 
        4.58678        0.109448       0.0625308 
         4.6025          0.1089       0.0619837 
        4.61821        0.108726       0.0614433 
        4.63391        0.108303       0.0609101 
         4.6496        0.108078       0.0603833 
        4.66532        0.107671        0.059862 
        4.68103        0.107918        0.059347 
        4.69673        0.107479       0.0588385 
        4.71241        0.107285       0.0583365 
        4.72811        0.107058       0.0578396 
        4.74384        0.107091       0.0573477 
        4.75955        0.107337       0.0568624 
        4.77525        0.107024       0.0563828 
        4.79096        0.107023       0.0559082 
        4.80669        0.106782       0.0554389 
         4.8224        0.107113       0.0549754 
        4.83809        0.106979       0.0545178 
        4.85379        0.107426        0.054065 
         4.8695        0.107337        0.053617 
        4.88521        0.107505       0.0531743 
        4.90093          0.1078       0.0527364 
        4.91663        0.108175       0.0523039 
        4.93234        0.108391       0.0518758 
        4.94807        0.108716       0.0514521 
        4.96377        0.108923        0.051034 
        4.97943        0.109812       0.0506214 
        4.99514        0.109912       0.0502123 
        5.01086         0.11054       0.0498074 
        5.02654        0.111037       0.0494079 
        5.04227        0.111358       0.0490117 
          5.058        0.112164       0.0486196 
        5.07371        0.112719       0.0482325 
        5.08942        0.113714       0.0478496 
        5.10513        0.113959       0.0474708 
        5.12084        0.114718       0.0470959 
        5.13656        0.115546       0.0467252 
        5.15225        0.116594        0.046359 
        5.16796        0.117414       0.0459961 
        5.18369        0.117639       0.0456368 
         5.1994        0.118828        0.045282 
        5.21509        0.119683       0.0449313 
        5.23079        0.121148       0.0445839 
        5.24649        0.122087       0.0442403 
        5.26217        0.122685       0.0439007 
        5.27788        0.123807       0.0435641 
        5.29359        0.125297        0.043231 
        5.30933        0.126745       0.0429009 
        5.32504        0.127309       0.0425747 
        5.34073        0.128668       0.0422523 
        5.35646        0.130241       0.0419326 
        5.37218        0.130986       0.0416161 
        5.38789        0.132907       0.0413034 
        5.40357        0.134143       0.0409943 
        5.41929        0.135337       0.0406876 
        5.43502        0.136527        0.040384 
         5.4507        0.138373       0.0400843 
        5.46639        0.140337       0.0397875 
        5.48212         0.14166        0.039493 
        5.49786        0.143389       0.0392012 
        5.51353        0.145668       0.0389137 
        5.52921          0.1466       0.0386288 
        5.54495        0.148333        0.038346 
        5.56066        0.151397       0.0380662 
        5.57637        0.152314       0.0377893 
        5.59207        0.155321       0.0375154 
        5.60778        0.156538       0.0372441 
        5.62346        0.159466       0.0369759 
        5.63916        0.160874         0.03671 
        5.65487        0.162461       0.0364466 
         5.6706        0.164912       0.0361854 
        5.68633        0.168366       0.0359267 
        5.70203        0.169764       0.0356711 
        5.71773        0.172311        0.035418 
        5.73344        0.173928       0.0351672 
        5.74916        0.176654       0.0349186 
        5.76486        0.178506       0.0346728 
        5.78054         0.18292       0.0344297 
        5.79626        0.183071       0.0341882 
          5.812        0.186285       0.0339488 
         5.8277        0.189526       0.0337124 
        5.84339        0.192603       0.0334782 
        5.85911        0.195073       0.0332458 
        5.87484        0.196393       0.0330156 
        5.89053        0.200402       0.0327881 
        5.90623        0.202551       0.0325626 
        5.92195        0.205849       0.0323388 
        5.93767        0.208826       0.0321172 
        5.95336        0.211291       0.0318981 
        5.96905        0.215031       0.0316811 
        5.98476        0.218097       0.0314658 
        6.00048        0.221602       0.0312525 
        6.01617        0.223417       0.0310414 
        6.03185        0.226568       0.0308324 
        6.04756         0.22954        0.030625 
        6.06331        0.233076       0.0304189 
        6.07903        0.236528       0.0302152 
        6.09473        0.239679       0.0300136 
        6.11044        0.243284       0.0298136 
        6.12616        0.246514       0.0296154 
        6.14186        0.250172       0.0294193 
        6.15755        0.253449       0.0292249 
        6.17326        0.257025       0.0290321 
        6.18898        0.260791        0.028841 
        6.20467        0.265346       0.0286519 
        6.22036        0.265815       0.0284646 
         6.2361         0.26958       0.0282784 
         6.2518        0.273423       0.0280941 
        6.26748        0.276451       0.0279119 
        6.28319        0.281277       0.0277309 
        6.29893        0.283914       0.0275512 
        6.31463        0.288768       0.0273735 
        6.33033        0.291861       0.0271973 
        6.34604        0.294997       0.0270226 
        6.36177         0.29896       0.0268493 
        6.37747        0.302796       0.0266778 
