# k  (h/Mpc)    Pcb(k)  (Mpc/h)^3    Pcb_linear(k) (Mpc/h)^3   ShotnoiseSubtracted = true
      0.0200456           13005         13188.5 
      0.0350414         8570.69         8268.57 
      0.0492313         5511.03         5526.59 
      0.0637834         4426.21         4557.75 
      0.0800726         3409.49          3540.1 
       0.096163         2531.47         2394.92 
       0.111083         1996.51         1857.78 
       0.126058         1686.44         1680.51 
       0.142273         1439.64         1408.73 
       0.158546         1142.37         1062.53 
        0.17375         984.242         882.836 
       0.188953         917.154         811.317 
       0.204907         776.878         715.504 
       0.220756         686.511         589.184 
        0.23588         604.379         506.357 
         0.2514          538.36         463.201 
       0.267535         519.498         419.106 
       0.283568         449.486         364.112 
       0.299022         425.214         321.247 
       0.314451         425.786         294.077 
       0.330372         363.371         269.775 
       0.346141          334.94         242.989 
       0.361624         317.345         219.293 
       0.377134         294.606         201.506 
       0.392932          283.85         186.336 
       0.408854         269.643         171.045 
       0.424564         258.913         156.896 
       0.440253         233.228         145.125 
       0.455999         220.572          135.03 
       0.471626         219.715         125.609 
        0.48727         207.623         116.734 
       0.502856          189.84         108.864 
       0.518488         189.617         101.934 
       0.534347          176.05         95.4638 
       0.550082         170.579         89.4767 
       0.565732         169.009         84.0229 
       0.581496         157.344         79.0681 
       0.597222         153.179         74.5273 
       0.612804         147.502         70.3492 
       0.628434         143.474          66.461 
       0.644267         135.855         62.8401 
       0.660051         133.197         59.5144 
       0.675724         130.552         56.4479 
       0.691403         127.484         53.5925 
       0.707174         122.541         50.9167 
       0.722871         120.229         48.4327 
        0.73838         118.473         46.1398 
       0.754018         111.552         43.9771 
       0.769845         111.405         41.9289 
        0.78569         107.921         40.0089 
       0.801365         104.012         38.2279 
       0.817031         101.551         36.5568 
       0.832809         99.5116         34.9754 
       0.848511         97.0204          33.495 
       0.864097         95.0655         32.1108 
       0.879701         93.6577         30.8038 
       0.895507         90.7901         29.5544 
       0.911279         88.2852          28.377 
        0.92691         86.4767         27.2738 
       0.942635         84.4182         26.2232 
       0.958396         83.9037         25.2259 
       0.974128         82.1061         24.2823 
       0.989692         79.6886         23.3964 
        1.00528         78.7024         22.5535 
        1.02113         76.6362         21.7389 
        1.03692         76.2503         20.9675 
        1.05264         75.2232         20.2372 
        1.06832         73.0003         19.5428 
        1.08405         71.8643         18.8792 
        1.09979         71.2321          18.246 
        1.11537         69.4003         17.6481 
        1.13105         68.2569         17.0735 
        1.14679         67.3565         16.5223 
        1.16256         65.9306         15.9944 
        1.17828          65.444         15.4913 
        1.19395         64.0127         15.0115 
         1.2097         63.2779         14.5497 
        1.22537         62.0531         14.1095 
          1.241          61.839         13.6889 
        1.25666         59.7321         13.2844 
        1.27241         59.3556         12.8943 
        1.28819         58.7495         12.5193 
        1.30392         57.6365         12.1603 
        1.31957         57.1655          11.817 
        1.33529         56.2519         11.4857 
        1.35108         55.8081         11.1658 
        1.36674         54.7532         10.8604 
         1.3824         54.1628         10.5666 
        1.39811         53.0289         10.2828 
        1.41389         52.3262         10.0083 
        1.42964         51.7001         9.74433 
        1.44531         51.1877         9.49114 
        1.46101         50.7096         9.24642 
        1.47667         49.9558         9.01106 
        1.49229         49.1035         8.78452 
        1.50793         48.5681         8.56551 
        1.52367          48.397         8.35256 
        1.53953         47.5926         8.14543 
        1.55526         46.5555         7.94697 
        1.57092         46.4709         7.75593 
        1.58662           45.94         7.57073 
        1.60235         45.4168         7.39121 
        1.61809         44.4531         7.21742 
        1.63369         44.0939         7.05076 
        1.64941         43.6627         6.88817 
        1.66519         42.7897         6.73012 
        1.68085         42.3399         6.57815 
        1.69652         41.7757         6.43083 
        1.71228         41.3755         6.28718 
        1.72806         41.1523          6.1478 
        1.74368         40.4273         6.01405 
        1.75933         40.2106           5.884 
        1.77505          39.612         5.75719 
        1.79081         39.2412         5.63389 
         1.8065         38.9599         5.51473 
        1.82218         38.0972         5.39912 
        1.83797         37.6031         5.28602 
        1.85367         37.3462         5.17679 
        1.86928         37.0503          5.0713 
        1.88497          36.509         4.96818 
        1.90073         36.0974         4.86754 
        1.91647         36.0064         4.76977 
        1.93218         35.5188         4.67489 
        1.94787         35.1411         4.58274 
        1.96363         34.6934          4.4927 
        1.97935         34.2415         4.40526 
        1.99499         33.9751         4.32064 
        2.01064         33.4146         4.23812 
         2.0264         33.3844         4.15724 
        2.04216         32.8678          4.0785 
        2.05781         32.5615          4.0023 
        2.07353         32.0578         3.92777 
        2.08928         32.0507         3.85498 
        2.10499         31.6389         3.78422 
        2.12065         31.2838         3.71545 
        2.13633         31.0947         3.64833 
        2.15211         30.7036         3.58243 
        2.16785         30.1895         3.51834 
        2.18349         29.9586         3.45622 
        2.19916         29.7212         3.39546 
        2.21489         29.5525         3.33597 
        2.23063         29.1683         3.27786 
         2.2463         28.8746         3.22139 
        2.26194         28.5946         3.16639 
        2.27765         28.2472         3.11239 
        2.29341         27.9195         3.05951 
        2.30914         27.6401         3.00796 
        2.32486         27.4733         2.95763 
        2.34061         27.1714         2.90837 
        2.35635          26.874         2.86027 
        2.37203         26.6227         2.81342 
        2.38768         26.5051         2.76772 
        2.40339         26.1397         2.72286 
        2.41914         26.0558          2.6789 
        2.43483         25.6508         2.63606 
         2.4505         25.5498         2.59422 
        2.46622         25.1477         2.55315 
        2.48195         24.9415         2.51297 
        2.49759         24.7375         2.47386 
        2.51328         24.4583         2.43548 
        2.52906         24.2101         2.39767 
        2.54479         24.1333          2.3608 
        2.56049         23.7626         2.32478 
        2.57618         23.5838         2.28954 
        2.59189         23.4224         2.25498 
        2.60758         23.0514         2.22118 
        2.62325          22.977         2.18812 
        2.63898         22.8151         2.15561 
        2.65468         22.4473         2.12383 
        2.67044         22.3699         2.09256 
        2.68618         22.0881         2.06198 
        2.70184          21.896         2.03214 
        2.71755         21.6691         2.00281 
        2.73329         21.5275         1.97401 
        2.74897         21.2558         1.94588 
        2.76462         21.0554         1.91835 
        2.78034         20.8787         1.89124 
        2.79607         20.7061         1.86463 
        2.81179          20.492         1.83855 
        2.82749         20.3257         1.81301 
        2.84321         20.1265         1.78792 
        2.85893         19.9271         1.76331 
        2.87462         19.7758         1.73921 
        2.89033         19.5346         1.71553 
        2.90605         19.4029         1.69227 
        2.92176         19.2489         1.66946 
        2.93747          19.051         1.64707 
        2.95318         18.9336          1.6251 
        2.96891         18.7163         1.60351 
        2.98456         18.5799         1.58241 
        3.00023         18.3306         1.56165 
        3.01596         18.0879         1.54121 
        3.03164         18.0498         1.52118 
        3.04738         17.8937         1.50146 
         3.0631         17.7461         1.48209 
        3.07883         17.5341         1.46306 
        3.09456         17.3649         1.44437 
        3.11026         17.2117         1.42603 
        3.12596         17.0718         1.40801 
        3.14163         16.9116         1.39034 
        3.15734         16.8413         1.37294 
        3.17308         16.5954         1.35579 
        3.18879         16.4643         1.33898 
        3.20447         16.3722         1.32247 
         3.2202         16.1447          1.3062 
         3.2359          16.028         1.29022 
        3.25157         15.8833         1.27456 
        3.26729         15.7972          1.2591 
        3.28304         15.6357         1.24387 
        3.29877         15.5081         1.22891 
        3.31446         15.4043         1.21423 
        3.33014         15.2021          1.1998 
        3.34585         15.1162         1.18558 
        3.36158         14.9595         1.17157 
        3.37727          14.852         1.15783 
        3.39294         14.7388         1.14433 
        3.40867         14.6421         1.13099 
        3.42439         14.4342         1.11787 
        3.44008          14.311         1.10498 
        3.45578         14.2638         1.09229 
        3.47153           14.09         1.07976 
        3.48724         13.9949         1.06746 
        3.50292         13.8461         1.05537 
        3.51859         13.7524         1.04348 
        3.53431         13.6671         1.03173 
        3.55007         13.5532         1.02014 
        3.56577         13.3718         1.00877 
        3.58146         13.2994        0.997571 
        3.59719         13.1978        0.986521 
        3.61292         13.1194        0.975642 
        3.62859         12.9471        0.964967 
        3.64429          12.862        0.954431 
        3.66003         12.7366         0.94402 
        3.67578         12.6651        0.933768 
        3.69146         12.5741        0.923706 
        3.70712         12.4299        0.913811 
        3.72284         12.3302        0.904023 
        3.73853         12.2588        0.894396 
        3.75422          12.113        0.884904 
        3.76993         12.0419        0.875543 
        3.78564         11.9747        0.866319 
        3.80137         11.8539        0.857214 
        3.81707         11.7066        0.848258 
        3.83279         11.6937        0.839422 
        3.84853          11.566        0.830698 
        3.86424         11.4714        0.822115 
        3.87992         11.3859        0.813665 
        3.89561         11.2556        0.805333 
        3.91134         11.1971        0.797101 
        3.92704         11.1156        0.788993 
        3.94273         10.9939        0.781006 
        3.95845         10.9157        0.773114 
        3.97418         10.8486        0.765329 
        3.98988         10.7604        0.757662 
        4.00554         10.6041        0.750121 
        4.02125         10.5944         0.74266 
        4.03698         10.4705        0.735289 
        4.05268         10.4361        0.728035 
        4.06839         10.3097        0.720873 
         4.0841         10.2495        0.713809 
        4.09983         10.1612         0.70683 
        4.11555         10.0759        0.699946 
        4.13124         9.96983        0.693173 
        4.14693         9.94259        0.686484 
        4.16266         9.86137        0.679867 
        4.17839         9.75959        0.673341 
        4.19408         9.69063        0.666916 
        4.20977         9.60175        0.660571 
        4.22551         9.52221        0.654293 
        4.24123         9.46605        0.648104 
        4.25691         9.39239        0.642011 
        4.27259          9.3026        0.635994 
        4.28831         9.25322        0.630042 
        4.30404         9.15367         0.62416 
        4.31974         9.10812        0.618367 
        4.33543         9.03001        0.612649 
        4.35116         8.95634         0.60699 
        4.36688         8.88694        0.601405 
        4.38255         8.80451        0.595911 
        4.39825         8.75592        0.590473 
        4.41398         8.68799        0.585092 
         4.4297          8.6129        0.579783 
        4.44541         8.54527        0.574541 
        4.46111         8.47647        0.569368 
        4.47683          8.4178        0.564255 
        4.49251         8.34126        0.559215 
        4.50819         8.30593        0.554237 
         4.5239          8.2215        0.549313 
        4.53962         8.17129        0.544442 
        4.55535         8.09924        0.539628 
        4.57106         8.05406        0.534879 
        4.58678         7.97302        0.530186 
         4.6025         7.93073        0.525548 
        4.61821         7.87514        0.520966 
        4.63391         7.78791        0.516444 
         4.6496         7.73032        0.511978 
        4.66532         7.67821        0.507557 
        4.68103         7.62509        0.503191 
        4.69673         7.54958         0.49888 
        4.71241         7.53178        0.494624 
        4.72811         7.44638         0.49041 
        4.74384         7.40375         0.48624 
        4.75955          7.3395        0.482124 
        4.77525         7.30125        0.478059 
        4.79096         7.24023        0.474035 
        4.80669         7.18375        0.470055 
         4.8224         7.12834        0.466126 
        4.83809         7.09636        0.462245 
        4.85379         7.04214        0.458406 
         4.8695         6.97807        0.454608 
        4.88521         6.93387        0.450854 
        4.90093         6.89261        0.447141 
        4.91663         6.83437        0.443474 
        4.93234         6.78472        0.439844 
        4.94807         6.72613        0.436252 
        4.96377         6.67964        0.432707 
        4.97943         6.63981        0.429209 
        4.99514         6.58924         0.42574 
        5.01086         6.54126        0.422306 
        5.02654          6.4963         0.41892 
        5.04227         6.45134         0.41556 
          5.058         6.40274        0.412235 
        5.07371         6.35343        0.408954 
        5.08942         6.31555        0.405707 
        5.10513         6.28233        0.402495 
        5.12084         6.21486        0.399317 
        5.13656          6.1835        0.396173 
        5.15225         6.13642        0.393068 
        5.16796         6.09026        0.389992 
        5.18369         6.05373        0.386946 
         5.1994         6.02701        0.383937 
        5.21509         5.97362        0.380963 
        5.23079         5.93263        0.378017 
        5.24649         5.89007        0.375105 
        5.26217         5.85667        0.372225 
        5.27788         5.81337        0.369371 
        5.29359         5.75833        0.366547 
        5.30933         5.73351        0.363748 
        5.32504         5.68978        0.360982 
        5.34073         5.65254        0.358249 
        5.35646         5.60454        0.355538 
        5.37218         5.58565        0.352855 
        5.38789         5.55179        0.350203 
        5.40357         5.50976        0.347582 
        5.41929         5.46976        0.344982 
        5.43502         5.43941        0.342408 
         5.4507         5.40252        0.339866 
        5.46639         5.34825         0.33735 
        5.48212         5.31667        0.334853 
        5.49786         5.28364        0.332379 
        5.51353         5.26358        0.329942 
        5.52921         5.20841        0.327526 
        5.54495          5.1894        0.325128 
        5.56066         5.15036        0.322756 
        5.57637          5.1195        0.320408 
        5.59207         5.07965        0.318086 
        5.60778         5.05572        0.315785 
        5.62346         5.01484        0.313511 
        5.63916         4.98049        0.311256 
        5.65487         4.96191        0.309023 
         5.6706         4.91974        0.306809 
        5.68633         4.89071        0.304616 
        5.70203         4.84259        0.302448 
        5.71773         4.81487        0.300302 
        5.73344         4.79542        0.298176 
        5.74916         4.75171        0.296068 
        5.76486         4.72769        0.293983 
        5.78054         4.69676        0.291922 
        5.79626         4.67988        0.289875 
          5.812         4.63421        0.287845 
         5.8277         4.60385         0.28584 
        5.84339         4.57785        0.283855 
        5.85911         4.54746        0.281884 
        5.87484         4.51771        0.279933 
        5.89053         4.49125        0.278003 
        5.90623         4.46469        0.276091 
        5.92195         4.43326        0.274194 
        5.93767         4.40756        0.272316 
        5.95336         4.37277        0.270458 
        5.96905         4.34518        0.268618 
        5.98476         4.31808        0.266792 
        6.00048         4.29229        0.264983 
        6.01617         4.26703        0.263193 
        6.03185          4.2489        0.261422 
        6.04756         4.22916        0.259663 
        6.06331         4.18947        0.257916 
        6.07903         4.16392        0.256189 
        6.09473         4.14045        0.254479 
        6.11044         4.11665        0.252783 
        6.12616         4.07922        0.251103 
        6.14186         4.06466         0.24944 
        6.15755         4.04287        0.247792 
        6.17326         4.00293        0.246157 
        6.18898          3.9897        0.244537 
        6.20467          3.9625        0.242934 
        6.22036         3.93606        0.241345 
         6.2361         3.91681        0.239766 
         6.2518         3.88976        0.238204 
        6.26748         3.86744         0.23666 
        6.28319         3.84312        0.235124 
        6.29893         3.82154        0.233601 
        6.31463         3.80397        0.232094 
        6.33033         3.78033        0.230601 
        6.34604         3.75074        0.229119 
        6.36177         3.73481         0.22765 
        6.37747         3.72054        0.226196 
