# k  (h/Mpc)    Pcb(k)  (Mpc/h)^3    Pcb_linear(k) (Mpc/h)^3   ShotnoiseSubtracted = true
      0.0200456         7711.76         7812.71 
      0.0350414         5050.45         4898.21 
      0.0492313          3277.5         3273.89 
      0.0637834         2639.89         2699.96 
      0.0800726         2036.43         2097.12 
       0.096163          1482.2         1418.73 
       0.111083         1164.58         1100.53 
       0.126058         994.367         995.516 
       0.142273         840.834         834.514 
       0.158546         661.978         629.429 
        0.17375         564.442         522.982 
       0.188953         520.228         480.615 
       0.204907         440.062         423.857 
       0.220756         385.041         349.026 
        0.23588         336.393          299.96 
         0.2514         301.077         274.395 
       0.267535         286.256         248.273 
       0.283568         246.997         215.696 
       0.299022          230.61         190.303 
       0.314451         223.508         174.208 
       0.330372         193.474         159.812 
       0.346141         177.603         143.944 
       0.361624         165.995         129.907 
       0.377134         151.761          119.37 
       0.392932         146.583         110.383 
       0.408854         137.816         101.325 
       0.424564         130.766         92.9432 
       0.440253         118.266         85.9703 
       0.455999         109.456         79.9901 
       0.471626         106.357         74.4093 
        0.48727         101.861         69.1517 
       0.502856         93.0321         64.4897 
       0.518488         90.9236         60.3847 
       0.534347         84.9337         56.5517 
       0.550082         82.5241          53.005 
       0.565732         80.2392         49.7743 
       0.581496         73.4402         46.8391 
       0.597222         71.4067         44.1491 
       0.612804         68.4522         41.6741 
       0.628434         66.9175         39.3708 
       0.644267         63.0412         37.2258 
       0.660051         61.0215         35.2557 
       0.675724         59.1564         33.4391 
       0.691403         57.8178         31.7476 
       0.707174         55.5237         30.1625 
       0.722871         54.2268          28.691 
        0.73838          52.192         27.3327 
       0.754018         49.0738         26.0515 
       0.769845         48.6207         24.8382 
        0.78569          46.973         23.7008 
       0.801365         45.3749         22.6458 
       0.817031         43.7113         21.6558 
       0.832809          42.785          20.719 
       0.848511         41.7222         19.8421 
       0.864097         40.7944         19.0221 
       0.879701         39.7909         18.2478 
       0.895507         38.2825         17.5077 
       0.911279         37.4118         16.8102 
        0.92691         36.6602         16.1567 
       0.942635         35.6893         15.5343 
       0.958396         35.3727         14.9435 
       0.974128         34.4074         14.3846 
       0.989692         33.2337         13.8598 
        1.00528         32.5985         13.3604 
        1.02113         31.7615         12.8779 
        1.03692         31.5014         12.4209 
        1.05264         30.7163         11.9883 
        1.06832         29.9932         11.5769 
        1.08405         29.3072         11.1838 
        1.09979         29.0401         10.8087 
        1.11537         28.1643         10.4546 
        1.13105         27.5164         10.1142 
        1.14679         27.0406         9.78764 
        1.16256         26.6618          9.4749 
        1.17828         26.2966         9.17687 
        1.19395          25.527         8.89267 
         1.2097         25.4506         8.61907 
        1.22537         24.7473         8.35831 
          1.241         24.3861         8.10914 
        1.25666         23.8164         7.86951 
        1.27241         23.6425         7.63846 
        1.28819         22.9637          7.4163 
        1.30392         22.7745         7.20364 
        1.31957         22.4914         7.00026 
        1.33529         22.0534         6.80399 
        1.35108         21.6654         6.61448 
        1.36674         21.3463         6.43355 
         1.3824         20.9868         6.25955 
        1.39811         20.5521         6.09142 
        1.41389         20.2707         5.92882 
        1.42964         20.2084         5.77243 
        1.44531         19.7427         5.62245 
        1.46101         19.5149         5.47748 
        1.47667         19.2553         5.33805 
        1.49229         18.8198         5.20385 
        1.50793         18.7275         5.07411 
        1.52367         18.3181         4.94796 
        1.53953         18.2538         4.82526 
        1.55526         17.8787         4.70769 
        1.57092         17.7195         4.59453 
        1.58662         17.4817         4.48481 
        1.60235         17.2324         4.37847 
        1.61809         16.9828         4.27552 
        1.63369         16.8159         4.17679 
        1.64941         16.5512         4.08048 
        1.66519         16.4008         3.98685 
        1.68085          16.038         3.89682 
        1.69652          15.945         3.80955 
        1.71228          15.856         3.72445 
        1.72806         15.5283         3.64189 
        1.74368         15.3843         3.56265 
        1.75933         15.2151         3.48562 
        1.77505          15.041         3.41049 
        1.79081         14.8457         3.33745 
         1.8065         14.6947         3.26686 
        1.82218         14.5362         3.19838 
        1.83797         14.4566         3.13138 
        1.85367          14.287         3.06668 
        1.86928         14.1498         3.00418 
        1.88497          13.934         2.94309 
        1.90073         13.7935         2.88347 
        1.91647         13.5651         2.82556 
        1.93218         13.5629         2.76935 
        1.94787         13.3524         2.71476 
        1.96363         13.2154         2.66142 
        1.97935         13.0062         2.60963 
        1.99499         12.9015          2.5595 
        2.01064         12.7222         2.51062 
         2.0264         12.6238          2.4627 
        2.04216         12.5821         2.41606 
        2.05781         12.3746         2.37092 
        2.07353         12.2913         2.32677 
        2.08928         12.1268         2.28365 
        2.10499         11.9591         2.24173 
        2.12065         11.9058         2.20099 
        2.13633         11.8007         2.16123 
        2.15211          11.625         2.12219 
        2.16785         11.6008         2.08423 
        2.18349         11.4298         2.04743 
        2.19916         11.3151         2.01144 
        2.21489         11.1585         1.97619 
        2.23063         11.1178         1.94177 
         2.2463         10.9783         1.90831 
        2.26194         10.8829         1.87573 
        2.27765         10.7245         1.84374 
        2.29341           10.67         1.81242 
        2.30914         10.5503         1.78188 
        2.32486           10.51         1.75207 
        2.34061         10.3797         1.72288 
        2.35635         10.2728         1.69439 
        2.37203         10.1906         1.66664 
        2.38768           10.06         1.63957 
        2.40339         10.0622         1.61299 
        2.41914         9.91122         1.58695 
        2.43483         9.78876         1.56157 
         2.4505         9.71127         1.53679 
        2.46622           9.658         1.51246 
        2.48195         9.56687         1.48865 
        2.49759         9.45759         1.46549 
        2.51328         9.40748         1.44275 
        2.52906         9.29656         1.42035 
        2.54479         9.21647         1.39851 
        2.56049         9.11925         1.37718 
        2.57618         9.09846          1.3563 
        2.59189         8.99551         1.33582 
        2.60758         8.88524          1.3158 
        2.62325         8.83642         1.29622 
        2.63898         8.78342         1.27696 
        2.65468         8.68346         1.25813 
        2.67044         8.64086         1.23961 
        2.68618          8.5321         1.22149 
        2.70184         8.48598         1.20381 
        2.71755         8.40045         1.18644 
        2.73329         8.33396         1.16938 
        2.74897         8.27059         1.15272 
        2.76462         8.19244         1.13641 
        2.78034         8.11927         1.12035 
        2.79607         8.05785         1.10458 
        2.81179          8.0095         1.08914 
        2.82749         7.93426         1.07401 
        2.84321         7.88699         1.05914 
        2.85893          7.7967         1.04457 
        2.87462         7.75767         1.03029 
        2.89033         7.66533         1.01626 
        2.90605         7.62411         1.00248 
        2.92176         7.57882        0.988968 
        2.93747         7.50346        0.975708 
        2.95318         7.45651        0.962689 
        2.96891         7.39342          0.9499 
        2.98456         7.31293          0.9374 
        3.00023         7.26417        0.925106 
        3.01596         7.21138        0.912994 
        3.03164         7.16401        0.901133 
        3.04738         7.10218        0.889447 
         3.0631         7.02882        0.877973 
        3.07883          6.9884          0.8667 
        3.09456         6.91786        0.855626 
        3.11026         6.85217        0.844762 
        3.12596         6.81699        0.834088 
        3.14163         6.79107        0.823622 
        3.15734         6.72527        0.813312 
        3.17308          6.6768        0.803152 
        3.18879         6.62863        0.793194 
        3.20447          6.5603        0.783418 
         3.2202         6.51022        0.773777 
         3.2359         6.46405        0.764315 
        3.25157         6.43696        0.755033 
        3.26729         6.38447        0.745876 
        3.28304         6.30888        0.736854 
        3.29877         6.29359        0.727992 
        3.31446         6.24647        0.719295 
        3.33014         6.18507        0.710747 
        3.34585          6.1314        0.702325 
        3.36158         6.10505        0.694027 
        3.37727         6.06445        0.685888 
        3.39294         6.01721        0.677887 
        3.40867          5.9805        0.669984 
        3.42439         5.92428        0.662212 
        3.44008         5.88129        0.654578 
        3.45578         5.84331        0.647058 
        3.47153         5.80356        0.639639 
        3.48724         5.74002         0.63235 
        3.50292         5.70398         0.62519 
        3.51859         5.67555        0.618145 
        3.53431         5.62046        0.611186 
        3.55007         5.57472        0.604318 
        3.56577         5.54138        0.597581 
        3.58146         5.51856         0.59095 
        3.59719         5.45763        0.584404 
        3.61292         5.43858        0.577959 
        3.62859         5.39464        0.571636 
        3.64429         5.35718        0.565394 
        3.66003         5.31368        0.559227 
        3.67578          5.2812        0.553154 
        3.69146         5.25637        0.547193 
        3.70712          5.1998        0.541331 
        3.72284         5.17317        0.535533 
        3.73853         5.14257         0.52983 
        3.75422         5.09999        0.524207 
        3.76993         5.06532        0.518662 
        3.78564         5.02896        0.513198 
        3.80137          4.9882        0.507804 
        3.81707         4.95001        0.502499 
        3.83279         4.92396        0.497264 
        3.84853         4.88494        0.492096 
        3.86424         4.84362        0.487012 
        3.87992          4.8234        0.482006 
        3.89561          4.7752        0.477071 
        3.91134         4.75569        0.472194 
        3.92704         4.72446        0.467391 
        3.94273          4.6938        0.462659 
        3.95845         4.66247        0.457984 
        3.97418         4.62917        0.453373 
        3.98988         4.59811        0.448831 
        4.00554         4.57082        0.444363 
        4.02125         4.53667        0.439944 
        4.03698         4.49299        0.435577 
        4.05268         4.46288         0.43128 
        4.06839         4.41989        0.427037 
         4.0841         4.41668        0.422852 
        4.09983         4.36253        0.418718 
        4.11555          4.3485         0.41464 
        4.13124         4.29816        0.410628 
        4.14693          4.2736        0.406665 
        4.16266          4.2466        0.402746 
        4.17839         4.22364         0.39888 
        4.19408         4.19758        0.395073 
        4.20977         4.17205        0.391315 
        4.22551         4.13846        0.387596 
        4.24123         4.10177        0.383929 
        4.25691         4.08236         0.38032 
        4.27259         4.04904        0.376756 
        4.28831          4.0223         0.37323 
        4.30404         3.99117        0.369746 
        4.31974          3.9714        0.366313 
        4.33543         3.93096        0.362927 
        4.35116         3.90899        0.359574 
        4.36688         3.89735        0.356266 
        4.38255         3.86279        0.353011 
        4.39825         3.83886        0.349789 
        4.41398         3.82025        0.346602 
         4.4297         3.78991        0.343457 
        4.44541         3.76909        0.340352 
        4.46111         3.73963        0.337287 
        4.47683         3.71339        0.334258 
        4.49251         3.69549        0.331272 
        4.50819         3.67818        0.328324 
         4.5239          3.6464        0.325407 
        4.53962         3.62362        0.322521 
        4.55535         3.59904         0.31967 
        4.57106         3.58125        0.316856 
        4.58678         3.55692        0.314076 
         4.6025         3.53396        0.311328 
        4.61821         3.50739        0.308614 
        4.63391         3.48045        0.305936 
         4.6496         3.45736         0.30329 
        4.66532         3.43581        0.300671 
        4.68103         3.42489        0.298085 
        4.69673         3.39101        0.295531 
        4.71241         3.37303         0.29301 
        4.72811         3.35869        0.290513 
        4.74384         3.33931        0.288043 
        4.75955         3.30759        0.285605 
        4.77525         3.28911        0.283197 
        4.79096         3.26924        0.280813 
        4.80669         3.25991        0.278455 
         4.8224         3.23239        0.276128 
        4.83809         3.21072        0.273829 
        4.85379         3.19531        0.271555 
         4.8695         3.16353        0.269304 
        4.88521         3.15263        0.267081 
        4.90093         3.13024        0.264882 
        4.91663         3.11719        0.262709 
        4.93234         3.09704        0.260559 
        4.94807         3.07862        0.258431 
        4.96377         3.05987        0.256331 
        4.97943         3.03704        0.254258 
        4.99514         3.02728        0.252203 
        5.01086         3.00294         0.25017 
        5.02654         2.98429        0.248163 
        5.04227         2.97388        0.246173 
          5.058           2.947        0.244204 
        5.07371         2.93647         0.24226 
        5.08942         2.91504        0.240336 
        5.10513         2.90884        0.238434 
        5.12084         2.88512        0.236551 
        5.13656         2.86683        0.234689 
        5.15225         2.84671        0.232849 
        5.16796         2.82913        0.231027 
        5.18369         2.82134        0.229222 
         5.1994         2.79767         0.22744 
        5.21509         2.78363        0.225678 
        5.23079          2.7651        0.223933 
        5.24649         2.75426        0.222208 
        5.26217         2.73724        0.220502 
        5.27788         2.71517        0.218811 
        5.29359         2.70097        0.217138 
        5.30933         2.69007         0.21548 
        5.32504         2.67376        0.213842 
        5.34073         2.65799        0.212223 
        5.35646         2.64436        0.210617 
        5.37218         2.62865        0.209027 
        5.38789         2.61636        0.207456 
        5.40357         2.60026        0.205904 
        5.41929         2.58084        0.204363 
        5.43502         2.56747        0.202839 
         5.4507         2.55817        0.201333 
        5.46639         2.54168        0.199842 
        5.48212         2.52911        0.198363 
        5.49786         2.50797        0.196897 
        5.51353         2.49446        0.195454 
        5.52921         2.48666        0.194023 
        5.54495         2.47386        0.192602 
        5.56066          2.4601        0.191197 
        5.57637         2.43946        0.189806 
        5.59207         2.43079         0.18843 
        5.60778         2.42106        0.187068 
        5.62346          2.4079         0.18572 
        5.63916         2.39163        0.184385 
        5.65487         2.37986        0.183062 
         5.6706         2.36873         0.18175 
        5.68633         2.35345        0.180451 
        5.70203         2.34148        0.179167 
        5.71773          2.3294        0.177896 
        5.73344          2.3149        0.176636 
        5.74916         2.30569        0.175387 
        5.76486         2.29084        0.174152 
        5.78054         2.27828        0.172931 
        5.79626         2.27009        0.171718 
          5.812         2.25773        0.170516 
         5.8277         2.24755        0.169329 
        5.84339         2.23397        0.168152 
        5.85911         2.22157        0.166985 
        5.87484         2.21236        0.165829 
        5.89053         2.19685        0.164686 
        5.90623         2.18765        0.163553 
        5.92195         2.17655        0.162429 
        5.93767         2.16742        0.161317 
        5.95336         2.15508        0.160216 
        5.96905          2.1489        0.159126 
        5.98476         2.13332        0.158045 
        6.00048         2.12108        0.156973 
        6.01617         2.11375        0.155913 
        6.03185         2.09908        0.154863 
        6.04756         2.09029        0.153821 
        6.06331         2.07484        0.152787 
        6.07903         2.06411        0.151763 
        6.09473         2.05778         0.15075 
        6.11044         2.05009        0.149746 
        6.12616         2.03629        0.148751 
        6.14186         2.02865        0.147765 
        6.15755         2.01788        0.146789 
        6.17326         2.00692        0.145821 
        6.18898         1.99557        0.144861 
        6.20467         1.99198        0.143911 
        6.22036         1.97982         0.14297 
         6.2361         1.97185        0.142035 
         6.2518         1.96373         0.14111 
        6.26748         1.95113        0.140195 
        6.28319         1.94154        0.139285 
        6.29893          1.9338        0.138383 
        6.31463         1.92268         0.13749 
        6.33033         1.91694        0.136605 
        6.34604         1.90492        0.135728 
        6.36177         1.89735        0.134857 
        6.37747         1.88799        0.133996 
