# k  (h/Mpc)    Pcb(k)  (Mpc/h)^3    Pcb_linear(k) (Mpc/h)^3   ShotnoiseSubtracted = true
      0.0200456         5854.04         5928.75 
      0.0350414         3823.28         3717.06 
      0.0492313         2490.56         2484.43 
      0.0637834         2009.18         2048.89 
      0.0800726         1550.76         1591.42 
       0.096163         1119.11         1076.62 
       0.111083         877.684         835.147 
       0.126058         753.398         755.458 
       0.142273         634.871          633.28 
       0.158546         497.617         477.649 
        0.17375         422.757          396.87 
       0.188953         388.004          364.72 
       0.204907         328.535         321.648 
       0.220756         285.957         264.862 
        0.23588         248.915         227.628 
         0.2514         223.626         208.228 
       0.267535         210.685         188.405 
       0.283568         181.973         163.683 
       0.299022         168.388         144.414 
       0.314451         161.229         132.199 
       0.330372          140.93         121.275 
       0.346141         128.922         109.233 
       0.361624         119.559         98.5813 
       0.377134         109.015         90.5852 
       0.392932         105.241         83.7656 
       0.408854         98.0828         76.8916 
       0.424564         92.8931         70.5309 
       0.440253         84.2776         65.2394 
       0.455999         77.2846         60.7013 
       0.471626         74.3431         56.4663 
        0.48727         71.5493         52.4765 
       0.502856         65.7704         48.9387 
       0.518488         63.2318         45.8235 
       0.534347         59.2958         42.9149 
       0.550082         57.3175         40.2234 
       0.565732         55.3524         37.7717 
       0.581496         50.9318         35.5443 
       0.597222         49.0778          33.503 
       0.612804         46.9382         31.6248 
       0.628434         45.9888         29.8769 
       0.644267         43.3062         28.2492 
       0.660051         41.6201         26.7541 
       0.675724         40.0032         25.3756 
       0.691403          39.144          24.092 
       0.707174         37.5679         22.8891 
       0.722871         36.5093         21.7725 
        0.73838          34.845         20.7417 
       0.754018         32.8271         19.7695 
       0.769845         32.3941         18.8487 
        0.78569         31.2262         17.9856 
       0.801365         30.1925          17.185 
       0.817031         28.9453         16.4338 
       0.832809         28.3452         15.7229 
       0.848511         27.4452         15.0574 
       0.864097         26.7598         14.4351 
       0.879701         26.1707         13.8475 
       0.895507         25.1393         13.2859 
       0.911279         24.3599         12.7566 
        0.92691         23.9312         12.2607 
       0.942635         23.3323         11.7884 
       0.958396         22.8172         11.3401 
       0.974128         22.1835         10.9159 
       0.989692         21.2318         10.5176 
        1.00528         20.9488         10.1387 
        1.02113         20.3501          9.7725 
        1.03692         20.0272         9.42575 
        1.05264         19.5631         9.09743 
        1.06832         19.1422         8.78528 
        1.08405         18.5956         8.48695 
        1.09979         18.3495         8.20231 
        1.11537         17.7139         7.93355 
        1.13105         17.4424         7.67524 
        1.14679         16.9844         7.42745 
        1.16256         16.7255         7.19013 
        1.17828         16.4373         6.96396 
        1.19395         16.0665         6.74829 
         1.2097         15.8222         6.54067 
        1.22537         15.4591         6.34279 
          1.241          15.114         6.15371 
        1.25666         14.8581         5.97186 
        1.27241         14.6597         5.79653 
        1.28819         14.0997         5.62794 
        1.30392         14.1725         5.46655 
        1.31957          13.816         5.31222 
        1.33529         13.5717         5.16328 
        1.35108         13.3678         5.01947 
        1.36674         13.1232         4.88217 
         1.3824         12.8423         4.75013 
        1.39811         12.5909         4.62254 
        1.41389         12.4407         4.49915 
        1.42964         12.3077         4.38047 
        1.44531         12.0697         4.26665 
        1.46101         11.9194         4.15664 
        1.47667         11.6904         4.05084 
        1.49229         11.4032           3.949 
        1.50793         11.3349         3.85054 
        1.52367         11.1589         3.75481 
        1.53953         11.0275          3.6617 
        1.55526         10.7678         3.57248 
        1.57092         10.7136         3.48661 
        1.58662         10.5464         3.40335 
        1.60235         10.4083         3.32265 
        1.61809         10.2148         3.24452 
        1.63369         10.0803          3.1696 
        1.64941         9.91935         3.09651 
        1.66519         9.85058         3.02546 
        1.68085         9.60061         2.95715 
        1.69652         9.61086         2.89092 
        1.71228         9.44387         2.82634 
        1.72806         9.28795         2.76369 
        1.74368         9.19711         2.70356 
        1.75933         9.07496          2.6451 
        1.77505         8.94276         2.58809 
        1.79081         8.83797         2.53266 
         1.8065         8.75281         2.47909 
        1.82218         8.68435         2.42712 
        1.83797         8.57088         2.37628 
        1.85367         8.46873         2.32718 
        1.86928         8.34708         2.27976 
        1.88497         8.24309          2.2334 
        1.90073         8.12888         2.18815 
        1.91647         7.96731          2.1442 
        1.93218         7.94251         2.10155 
        1.94787         7.82362         2.06013 
        1.96363         7.75813         2.01965 
        1.97935         7.64847         1.98034 
        1.99499         7.55533          1.9423 
        2.01064         7.48156         1.90521 
         2.0264         7.37726         1.86885 
        2.04216          7.3772         1.83345 
        2.05781         7.27888          1.7992 
        2.07353         7.18497         1.76569 
        2.08928         7.09908         1.73297 
        2.10499         7.02649         1.70116 
        2.12065         6.96088         1.67025 
        2.13633         6.86144         1.64007 
        2.15211         6.81185         1.61045 
        2.16785         6.73012         1.58164 
        2.18349         6.65629         1.55371 
        2.19916         6.61855          1.5264 
        2.21489          6.5299         1.49965 
        2.23063         6.49043         1.47353 
         2.2463          6.3929         1.44814 
        2.26194         6.33198         1.42342 
        2.27765           6.263         1.39915 
        2.29341         6.19351         1.37537 
        2.30914         6.15725          1.3522 
        2.32486         6.10111         1.32958 
        2.34061         6.04423         1.30743 
        2.35635         6.00371         1.28581 
        2.37203         5.91195         1.26475 
        2.38768         5.84617          1.2442 
        2.40339         5.81342         1.22404 
        2.41914         5.73669         1.20427 
        2.43483          5.7357         1.18501 
         2.4505         5.65297         1.16621 
        2.46622         5.59104         1.14774 
        2.48195          5.5801         1.12968 
        2.49759         5.49712          1.1121 
        2.51328         5.45099         1.09485 
        2.52906         5.40019         1.07785 
        2.54479         5.36326         1.06128 
        2.56049         5.28412         1.04508 
        2.57618         5.26269         1.02924 
        2.59189         5.26314          1.0137 
        2.60758         5.17219        0.998512 
        2.62325         5.11685        0.983648 
        2.63898         5.11384        0.969035 
        2.65468         5.05143        0.954748 
        2.67044         5.02697        0.940688 
        2.68618         4.94548        0.926943 
        2.70184         4.93101        0.913528 
        2.71755         4.88959        0.900343 
        2.73329         4.82809        0.887399 
        2.74897         4.79243         0.87475 
        2.76462         4.77054        0.862376 
        2.78034          4.7209        0.850189 
        2.79607         4.70138        0.838225 
        2.81179         4.64641        0.826504 
        2.82749         4.60751        0.815021 
        2.84321         4.58257        0.803742 
        2.85893         4.54441        0.792679 
        2.87462         4.51263        0.781843 
        2.89033         4.46797          0.7712 
        2.90605         4.43142        0.760745 
        2.92176         4.40027        0.750489 
        2.93747         4.36033        0.740427 
        2.95318          4.3326        0.730546 
        2.96891         4.30031        0.720842 
        2.98456         4.25938        0.711356 
        3.00023         4.23849        0.702026 
        3.01596         4.19595        0.692835 
        3.03164          4.1704        0.683834 
        3.04738         4.13893        0.674967 
         3.0631         4.11004        0.666259 
        3.07883         4.07451        0.657704 
        3.09456         4.03277        0.649301 
        3.11026         4.01165        0.641057 
        3.12596         3.98551        0.632956 
        3.14163         3.95761        0.625015 
        3.15734         3.92825         0.61719 
        3.17308         3.91905        0.609481 
        3.18879         3.86971        0.601923 
        3.20447         3.84472        0.594505 
         3.2202         3.82069        0.587189 
         3.2359         3.79146        0.580008 
        3.25157         3.76492        0.572965 
        3.26729          3.7446        0.566016 
        3.28304         3.71086        0.559169 
        3.29877         3.68627        0.552444 
        3.31446         3.67649        0.545845 
        3.33014          3.6333        0.539358 
        3.34585         3.61011        0.532967 
        3.36158         3.58625        0.526669 
        3.37727         3.55151        0.520493 
        3.39294         3.53649        0.514422 
        3.40867         3.51728        0.508425 
        3.42439          3.4993        0.502526 
        3.44008         3.47334        0.496733 
        3.45578         3.44154        0.491026 
        3.47153          3.4155        0.485397 
        3.48724          3.3896        0.479865 
        3.50292         3.36718        0.474432 
        3.51859         3.34896        0.469086 
        3.53431         3.32081        0.463805 
        3.55007         3.30886        0.458593 
        3.56577         3.27884        0.453481 
        3.58146         3.26056        0.448449 
        3.59719         3.24911        0.443481 
        3.61292         3.21507        0.438591 
        3.62859         3.19753        0.433792 
        3.64429         3.18178        0.429056 
        3.66003         3.15859        0.424375 
        3.67578         3.14907        0.419767 
        3.69146         3.12395        0.415243 
        3.70712         3.10316        0.410795 
        3.72284         3.08621        0.406395 
        3.73853         3.06017        0.402067 
        3.75422         3.03061          0.3978 
        3.76993         3.03196        0.393592 
        3.78564         3.00866        0.389446 
        3.80137          2.9819        0.385352 
        3.81707         2.96127        0.381326 
        3.83279         2.94321        0.377354 
        3.84853         2.92115        0.373432 
        3.86424         2.90123        0.369574 
        3.87992         2.88839        0.365775 
        3.89561         2.86565         0.36203 
        3.91134          2.8493        0.358329 
        3.92704         2.82853        0.354684 
        3.94273          2.8147        0.351094 
        3.95845         2.79842        0.347546 
        3.97418         2.77226        0.344047 
        3.98988         2.76165          0.3406 
        4.00554         2.74249         0.33721 
        4.02125         2.71823        0.333856 
        4.03698         2.70541        0.330542 
        4.05268          2.6812        0.327281 
        4.06839         2.66568        0.324061 
         4.0841         2.64773        0.320886 
        4.09983         2.63653        0.317749 
        4.11555         2.61741        0.314654 
        4.13124         2.59873        0.311609 
        4.14693         2.57959        0.308602 
        4.16266         2.56626        0.305628 
        4.17839         2.55059        0.302694 
        4.19408         2.53907        0.299806 
        4.20977         2.52209        0.296953 
        4.22551         2.50006        0.294131 
        4.24123         2.48825        0.291349 
        4.25691         2.47054         0.28861 
        4.27259         2.45191        0.285905 
        4.28831         2.43556        0.283229 
        4.30404          2.4255        0.280585 
        4.31974         2.40755        0.277981 
        4.33543         2.39541        0.275411 
        4.35116         2.38419        0.272867 
        4.36688          2.3652        0.270356 
        4.38255         2.35704        0.267886 
        4.39825         2.33949        0.265441 
        4.41398         2.32475        0.263022 
         4.4297         2.31238        0.260636 
        4.44541         2.29753         0.25828 
        4.46111         2.28141        0.255954 
        4.47683         2.27152        0.253655 
        4.49251         2.25221         0.25139 
        4.50819         2.24344        0.249152 
         4.5239         2.22239        0.246938 
        4.53962         2.21949        0.244749 
        4.55535          2.2034        0.242585 
        4.57106         2.18766         0.24045 
        4.58678          2.1783         0.23834 
         4.6025         2.16682        0.236255 
        4.61821         2.15551        0.234195 
        4.63391         2.14323        0.232162 
         4.6496         2.12902        0.230155 
        4.66532         2.11567        0.228168 
        4.68103          2.1038        0.226205 
        4.69673         2.09492        0.224267 
        4.71241         2.08286        0.222353 
        4.72811         2.07369        0.220459 
        4.74384         2.06466        0.218584 
        4.75955         2.04808        0.216734 
        4.77525         2.03955        0.214907 
        4.79096         2.02753        0.213098 
        4.80669         2.01512        0.211309 
         4.8224         2.00149        0.209542 
        4.83809         1.99662        0.207798 
        4.85379         1.98795        0.206072 
         4.8695         1.97723        0.204365 
        4.88521         1.96307        0.202677 
        4.90093         1.95405        0.201008 
        4.91663         1.94259         0.19936 
        4.93234         1.93176        0.197728 
        4.94807         1.92341        0.196113 
        4.96377         1.91809        0.194519 
        4.97943         1.90352        0.192947 
        4.99514           1.896        0.191387 
        5.01086         1.88781        0.189844 
        5.02654         1.87398        0.188321 
        5.04227         1.86586        0.186811 
          5.058          1.8577        0.185316 
        5.07371         1.84964        0.183841 
        5.08942         1.83608        0.182382 
        5.10513         1.83128        0.180938 
        5.12084         1.81958        0.179509 
        5.13656         1.81264        0.178096 
        5.15225         1.80044          0.1767 
        5.16796         1.79477        0.175317 
        5.18369         1.78446        0.173948 
         5.1994         1.77692        0.172595 
        5.21509         1.76676        0.171258 
        5.23079         1.76015        0.169934 
        5.24649         1.75163        0.168625 
        5.26217          1.7445         0.16733 
        5.27788          1.7333        0.166047 
        5.29359         1.72914        0.164778 
        5.30933         1.71918        0.163519 
        5.32504         1.71063        0.162276 
        5.34073         1.70438        0.161047 
        5.35646         1.69287        0.159829 
        5.37218         1.68677        0.158622 
        5.38789         1.68001        0.157431 
        5.40357         1.67571        0.156252 
        5.41929          1.6678        0.155083 
        5.43502         1.65808        0.153926 
         5.4507          1.6491        0.152784 
        5.46639         1.63875        0.151652 
        5.48212          1.6328         0.15053 
        5.49786         1.63048        0.149418 
        5.51353         1.62395        0.148322 
        5.52921         1.61426        0.147236 
        5.54495         1.60591        0.146158 
        5.56066         1.60034        0.145092 
        5.57637         1.59452        0.144036 
        5.59207         1.58499        0.142992 
        5.60778         1.58079        0.141958 
        5.62346         1.57244        0.140936 
        5.63916         1.56424        0.139922 
        5.65487         1.55785        0.138918 
         5.6706         1.55115        0.137923 
        5.68633         1.54718        0.136937 
        5.70203         1.53852        0.135963 
        5.71773         1.53318        0.134998 
        5.73344         1.52741        0.134042 
        5.74916         1.51803        0.133095 
        5.76486         1.51591        0.132157 
        5.78054         1.50966        0.131231 
        5.79626          1.5031         0.13031 
          5.812         1.49206        0.129398 
         5.8277         1.48771        0.128497 
        5.84339         1.48275        0.127604 
        5.85911          1.4773        0.126718 
        5.87484         1.47095        0.125841 
        5.89053         1.46544        0.124974 
        5.90623         1.46051        0.124114 
        5.92195         1.45351        0.123261 
        5.93767         1.44795        0.122417 
        5.95336         1.43911        0.121582 
        5.96905         1.43571        0.120755 
        5.98476         1.43164        0.119934 
        6.00048         1.42563        0.119121 
        6.01617         1.42124        0.118316 
        6.03185         1.41493         0.11752 
        6.04756         1.40963        0.116729 
        6.06331         1.40476        0.115944 
        6.07903         1.39685        0.115167 
        6.09473         1.39201        0.114399 
        6.11044         1.38765        0.113636 
        6.12616         1.38444        0.112881 
        6.14186         1.37944        0.112133 
        6.15755         1.37248        0.111392 
        6.17326         1.36931        0.110658 
        6.18898         1.36111        0.109929 
        6.20467         1.35752        0.109209 
        6.22036         1.35217        0.108494 
         6.2361         1.34913        0.107785 
         6.2518         1.34335        0.107083 
        6.26748         1.33634        0.106388 
        6.28319         1.33395        0.105698 
        6.29893         1.32674        0.105013 
        6.31463         1.32259        0.104336 
        6.33033         1.31802        0.103664 
        6.34604         1.31339        0.102998 
        6.36177         1.30962        0.102338 
        6.37747         1.30664        0.101684 
