# k  (h/Mpc)    Pcb(k)  (Mpc/h)^3    Pcb_linear(k) (Mpc/h)^3   ShotnoiseSubtracted = true
      0.0200456         687.358         696.164 
      0.0350414         437.375         436.463 
      0.0492313         293.583         291.725 
      0.0637834         242.423         240.584 
      0.0800726          187.71         186.867 
       0.096163         126.652         126.418 
       0.111083         97.9747         98.0643 
       0.126058         88.8252         88.7071 
       0.142273         74.7672         74.3607 
       0.158546         56.8853         56.0863 
        0.17375         46.6256         46.6011 
       0.188953         43.0181          42.826 
       0.204907         38.6747         37.7684 
       0.220756         31.6166         31.1005 
        0.23588         27.1648         26.7285 
         0.2514         24.5934         24.4504 
       0.267535         22.3313         22.1228 
       0.283568         19.5142         19.2199 
       0.299022         17.3483         16.9573 
       0.314451         15.5845         15.5231 
       0.330372         14.4038         14.2403 
       0.346141         12.9874         12.8264 
       0.361624         11.7966         11.5756 
       0.377134         10.9202         10.6367 
       0.392932         9.80001         9.83589 
       0.408854          9.2469         9.02873 
       0.424564         8.45055         8.28185 
       0.440253         7.80781         7.66052 
       0.455999         7.30887         7.12765 
       0.471626         6.83273         6.63036 
        0.48727         6.32526         6.16187 
       0.502856         5.87264         5.74646 
       0.518488         5.57714         5.38067 
       0.534347         5.28592         5.03913 
       0.550082         4.83303          4.7231 
       0.565732         4.45797         4.43521 
       0.581496          4.3127         4.17367 
       0.597222         4.09146         3.93398 
       0.612804         3.82128         3.71343 
       0.628434         3.65915          3.5082 
       0.644267          3.4511         3.31706 
       0.660051          3.2463         3.14151 
       0.675724          3.0857         2.97964 
       0.691403         2.95608         2.82892 
       0.707174         2.79185         2.68768 
       0.722871         2.65254         2.55656 
        0.73838         2.53875         2.43552 
       0.754018         2.44954         2.32136 
       0.769845         2.31296         2.21325 
        0.78569         2.21652          2.1119 
       0.801365         2.11085         2.01789 
       0.817031         2.02778         1.92968 
       0.832809         1.94157          1.8462 
       0.848511         1.84197         1.76806 
       0.864097         1.76186         1.69499 
       0.879701         1.69316           1.626 
       0.895507         1.62665         1.56005 
       0.911279         1.58401          1.4979 
        0.92691         1.51606         1.43967 
       0.942635          1.4511         1.38421 
       0.958396         1.39082         1.33157 
       0.974128         1.34208         1.28176 
       0.989692         1.30423           1.235 
        1.00528         1.24808          1.1905 
        1.02113         1.19681          1.1475 
        1.03692         1.16797         1.10679 
        1.05264         1.12307         1.06824 
        1.06832         1.08983         1.03158 
        1.08405         1.03655        0.996551 
        1.09979         1.00931        0.963128 
        1.11537        0.980475         0.93157 
        1.13105         0.95037        0.901239 
        1.14679        0.923967        0.872143 
        1.16256        0.883727        0.844276 
        1.17828        0.859552        0.817719 
        1.19395        0.832997        0.792395 
         1.2097        0.797655        0.768016 
        1.22537        0.781549        0.744781 
          1.241        0.758627        0.722578 
        1.25666        0.747096        0.701226 
        1.27241        0.710896        0.680637 
        1.28819        0.692221        0.660841 
        1.30392        0.676095        0.641891 
        1.31957        0.658156        0.623769 
        1.33529        0.635781        0.606281 
        1.35108        0.618391        0.589394 
        1.36674        0.595504        0.573272 
         1.3824          0.5858        0.557767 
        1.39811        0.567956        0.542785 
        1.41389         0.55483        0.528297 
        1.42964        0.541465        0.514362 
        1.44531        0.523267        0.500997 
        1.46101        0.512223        0.488079 
        1.47667        0.492978        0.475655 
        1.49229         0.48731        0.463697 
        1.50793        0.470606        0.452137 
        1.52367        0.460783        0.440896 
        1.53953        0.446657        0.429962 
        1.55526        0.437322        0.419486 
        1.57092        0.424725        0.409403 
        1.58662        0.416486        0.399627 
        1.60235        0.406275        0.390151 
        1.61809        0.393091        0.380977 
        1.63369        0.391042         0.37218 
        1.64941         0.37692        0.363597 
        1.66519        0.368421        0.355254 
        1.68085        0.358136        0.347233 
        1.69652        0.351014        0.339456 
        1.71228        0.344676        0.331873 
        1.72806        0.333501        0.324516 
        1.74368        0.329523        0.317456 
        1.75933        0.320152        0.310591 
        1.77505        0.313548        0.303898 
        1.79081          0.3068        0.297389 
         1.8065        0.297496        0.291099 
        1.82218         0.29319        0.284996 
        1.83797        0.286127        0.279027 
        1.85367        0.282432        0.273261 
        1.86928        0.274867        0.267693 
        1.88497        0.268771        0.262249 
        1.90073         0.26244        0.256936 
        1.91647        0.258406        0.251776 
        1.93218        0.251833        0.246768 
        1.94787        0.247204        0.241903 
        1.96363        0.241339         0.23715 
        1.97935        0.236362        0.232535 
        1.99499        0.231741        0.228068 
        2.01064        0.226882        0.223712 
         2.0264        0.222075        0.219443 
        2.04216        0.219193        0.215287 
        2.05781        0.214128        0.211264 
        2.07353        0.208576         0.20733 
        2.08928         0.20421        0.203488 
        2.10499        0.201648        0.199753 
        2.12065        0.198235        0.196123 
        2.13633         0.19419         0.19258 
        2.15211        0.190509        0.189101 
        2.16785        0.186016        0.185718 
        2.18349        0.182184        0.182439 
        2.19916        0.179755        0.179232 
        2.21489        0.175861        0.176092 
        2.23063        0.173169        0.173024 
         2.2463        0.169825        0.170043 
        2.26194        0.165288         0.16714 
        2.27765        0.163093         0.16429 
        2.29341        0.160514        0.161498 
        2.30914        0.157902        0.158778 
        2.32486        0.154815        0.156121 
        2.34061        0.152162         0.15352 
        2.35635        0.148638        0.150981 
        2.37203        0.146001        0.148509 
        2.38768        0.143587        0.146096 
        2.40339        0.141784        0.143728 
        2.41914        0.139296        0.141408 
        2.43483        0.136905        0.139146 
         2.4505        0.133641        0.136938 
        2.46622        0.131559         0.13477 
        2.48195        0.129761        0.132649 
        2.49759        0.127643        0.130584 
        2.51328        0.125397        0.128559 
        2.52906        0.123464        0.126563 
        2.54479        0.120889        0.124617 
        2.56049        0.118843        0.122715 
        2.57618        0.116931        0.120855 
        2.59189        0.115407        0.119031 
        2.60758        0.113724        0.117247 
        2.62325        0.111481        0.115501 
        2.63898        0.109692        0.113786 
        2.65468        0.107547        0.112108 
        2.67044        0.106292        0.110457 
        2.68618        0.104462        0.108843 
        2.70184        0.102684        0.107268 
        2.71755        0.100849         0.10572 
        2.73329       0.0995529          0.1042 
        2.74897       0.0982669        0.102715 
        2.76462       0.0965195        0.101262 
        2.78034       0.0951835       0.0998306 
        2.79607       0.0934374       0.0984257 
        2.81179       0.0926914       0.0970494 
        2.82749       0.0906777        0.095701 
        2.84321       0.0894236       0.0943766 
        2.85893       0.0883251       0.0930776 
        2.87462       0.0867701       0.0918053 
        2.89033       0.0855974       0.0905555 
        2.90605       0.0841028       0.0893279 
        2.92176       0.0832233       0.0881236 
        2.93747       0.0817144        0.086942 
        2.95318       0.0807437       0.0857819 
        2.96891       0.0795747       0.0846423 
        2.98456       0.0782596       0.0835285 
        3.00023       0.0774153        0.082433 
        3.01596        0.076188       0.0813538 
        3.03164       0.0755152       0.0802969 
        3.04738       0.0739485       0.0792556 
         3.0631       0.0732332       0.0782332 
        3.07883       0.0720615       0.0772287 
        3.09456        0.071091       0.0762419 
        3.11026       0.0702965       0.0752739 
        3.12596       0.0690927       0.0743227 
        3.14163       0.0681972       0.0733902 
        3.15734       0.0676405       0.0724714 
        3.17308       0.0667277       0.0715662 
        3.18879       0.0659389       0.0706788 
        3.20447       0.0647382       0.0698077 
         3.2202       0.0644024       0.0689486 
         3.2359       0.0634188       0.0681055 
        3.25157       0.0625696       0.0672784 
        3.26729       0.0615998       0.0664625 
        3.28304       0.0612223       0.0656585 
        3.29877        0.060318       0.0648689 
        3.31446        0.059541       0.0640939 
        3.33014       0.0591113       0.0633323 
        3.34585       0.0585439       0.0625818 
        3.36158       0.0577818       0.0618424 
        3.37727       0.0571659       0.0611171 
        3.39294       0.0563045       0.0604042 
        3.40867       0.0556494          0.0597 
        3.42439       0.0552152       0.0590074 
        3.44008       0.0543347       0.0583272 
        3.45578       0.0539905       0.0576571 
        3.47153       0.0532411       0.0569961 
        3.48724       0.0527861       0.0563465 
        3.50292        0.052262       0.0557086 
        3.51859       0.0516886       0.0550808 
        3.53431       0.0510156       0.0544607 
        3.55007       0.0507601       0.0538487 
        3.56577       0.0502117       0.0532484 
        3.58146       0.0497502       0.0526575 
        3.59719       0.0492688       0.0520743 
        3.61292        0.048862          0.0515 
        3.62859       0.0482692       0.0509365 
        3.64429       0.0478021       0.0503804 
        3.66003       0.0474942       0.0498308 
        3.67578       0.0469433       0.0492896 
        3.69146       0.0464389       0.0487585 
        3.70712       0.0462259       0.0482362 
        3.72284        0.045864       0.0477195 
        3.73853        0.045403       0.0472113 
        3.75422       0.0451159       0.0467103 
        3.76993         0.04458       0.0462162 
        3.78564       0.0442673       0.0457293 
        3.80137       0.0438995       0.0452487 
        3.81707       0.0435255       0.0447759 
        3.83279       0.0433388       0.0443095 
        3.84853       0.0428719        0.043849 
        3.86424       0.0424924        0.043396 
        3.87992       0.0421074       0.0429499 
        3.89561       0.0418121       0.0425101 
        3.91134       0.0415703       0.0420756 
        3.92704       0.0410185       0.0416476 
        3.94273        0.040709        0.041226 
        3.95845       0.0403635       0.0408094 
        3.97418       0.0402482       0.0403985 
        3.98988       0.0396218       0.0399938 
        4.00554       0.0393243       0.0395957 
        4.02125       0.0387908       0.0392019 
        4.03698       0.0382007       0.0388128 
        4.05268       0.0376466       0.0384299 
        4.06839       0.0371916       0.0380518 
         4.0841       0.0365734       0.0376789 
        4.09983       0.0360566       0.0373105 
        4.11555       0.0355215       0.0369472 
        4.13124        0.034932       0.0365897 
        4.14693       0.0345409       0.0362366 
        4.16266        0.034085       0.0358873 
        4.17839       0.0336655       0.0355428 
        4.19408       0.0331726       0.0352036 
        4.20977       0.0328079       0.0348687 
        4.22551        0.032437       0.0345374 
        4.24123        0.031944       0.0342106 
        4.25691       0.0315845        0.033889 
        4.27259       0.0312242       0.0335714 
        4.28831       0.0310001       0.0332572 
        4.30404       0.0307408       0.0329468 
        4.31974       0.0303925       0.0326409 
        4.33543       0.0301446       0.0323392 
        4.35116       0.0298454       0.0320404 
        4.36688       0.0296071       0.0317456 
        4.38255       0.0292927       0.0314556 
        4.39825       0.0291443       0.0311685 
        4.41398       0.0289646       0.0308845 
         4.4297       0.0287938       0.0306043 
        4.44541       0.0285961       0.0303276 
        4.46111       0.0284555       0.0300545 
        4.47683       0.0282676       0.0297846 
        4.49251       0.0281535       0.0295186 
        4.50819       0.0280141       0.0292558 
         4.5239       0.0278835       0.0289959 
        4.53962       0.0278129       0.0287388 
        4.55535       0.0277288       0.0284847 
        4.57106       0.0277052        0.028234 
        4.58678       0.0275674       0.0279862 
         4.6025       0.0275971       0.0277414 
        4.61821       0.0276558       0.0274996 
        4.63391       0.0276586       0.0272609 
         4.6496       0.0275767       0.0270251 
        4.66532       0.0275693       0.0267918 
        4.68103       0.0275909       0.0265613 
        4.69673       0.0275771       0.0263338 
        4.71241       0.0276983       0.0261091 
        4.72811       0.0277258       0.0258867 
        4.74384       0.0278144       0.0256665 
        4.75955        0.027906       0.0254493 
        4.77525       0.0280405       0.0252347 
        4.79096       0.0281006       0.0250223 
        4.80669        0.028201       0.0248122 
         4.8224       0.0284519       0.0246048 
        4.83809       0.0286082       0.0243999 
        4.85379       0.0286618       0.0241973 
         4.8695        0.028872       0.0239968 
        4.88521       0.0290361       0.0237986 
        4.90093       0.0292851       0.0236027 
        4.91663        0.029459       0.0234091 
        4.93234       0.0295838       0.0232175 
        4.94807       0.0299186       0.0230279 
        4.96377       0.0302075       0.0228408 
        4.97943       0.0305708       0.0226561 
        4.99514       0.0306052        0.022473 
        5.01086       0.0310207       0.0222918 
        5.02654       0.0313742        0.022113 
        5.04227       0.0315966       0.0219356 
          5.058       0.0320182       0.0217602 
        5.07371       0.0323892       0.0215869 
        5.08942       0.0326514       0.0214156 
        5.10513       0.0331688        0.021246 
        5.12084       0.0335264       0.0210782 
        5.13656        0.033871       0.0209123 
        5.15225       0.0344318       0.0207484 
        5.16796       0.0349588        0.020586 
        5.18369       0.0353459       0.0204252 
         5.1994       0.0358482       0.0202664 
        5.21509       0.0362702       0.0201094 
        5.23079       0.0367536       0.0199539 
        5.24649       0.0373402       0.0198002 
        5.26217       0.0380383       0.0196482 
        5.27788       0.0385939       0.0194975 
        5.29359       0.0393277       0.0193484 
        5.30933       0.0398401       0.0192007 
        5.32504       0.0403637       0.0190547 
        5.34073       0.0411153       0.0189104 
        5.35646       0.0418529       0.0187673 
        5.37218       0.0426628       0.0186257 
        5.38789       0.0434027       0.0184857 
        5.40357       0.0439801       0.0183474 
        5.41929       0.0449053       0.0182101 
        5.43502       0.0456092       0.0180743 
         5.4507         0.04656       0.0179401 
        5.46639       0.0475661       0.0178073 
        5.48212       0.0481618       0.0176755 
        5.49786       0.0491815       0.0175449 
        5.51353       0.0504742       0.0174162 
        5.52921       0.0511266       0.0172887 
        5.54495       0.0521736       0.0171621 
        5.56066       0.0531516       0.0170369 
        5.57637       0.0543617        0.016913 
        5.59207       0.0557953       0.0167904 
        5.60778       0.0566548        0.016669 
        5.62346       0.0579868       0.0165489 
        5.63916       0.0590482       0.0164299 
        5.65487       0.0602487        0.016312 
         5.6706       0.0615092       0.0161951 
        5.68633       0.0626893       0.0160794 
        5.70203       0.0637725        0.015965 
        5.71773       0.0660042       0.0158517 
        5.73344       0.0671329       0.0157394 
        5.74916       0.0690116       0.0156282 
        5.76486        0.070034       0.0155181 
        5.78054       0.0714369       0.0154093 
        5.79626       0.0727683       0.0153012 
          5.812       0.0747871       0.0151941 
         5.8277       0.0764704       0.0150883 
        5.84339       0.0781809       0.0149835 
        5.85911       0.0801284       0.0148795 
        5.87484       0.0819806       0.0147765 
        5.89053       0.0842281       0.0146746 
        5.90623       0.0863181       0.0145737 
        5.92195       0.0882434       0.0144735 
        5.93767       0.0903061       0.0143744 
        5.95336       0.0923153       0.0142763 
        5.96905       0.0945564       0.0141792 
        5.98476       0.0969916       0.0140828 
        6.00048       0.0987073       0.0139873 
        6.01617        0.100709       0.0138929 
        6.03185        0.104056       0.0137994 
        6.04756        0.106577       0.0137065 
        6.06331        0.108392       0.0136143 
        6.07903         0.11188       0.0135231 
        6.09473        0.115088       0.0134329 
        6.11044         0.11708       0.0133434 
        6.12616         0.12007       0.0132547 
        6.14186        0.122254       0.0131669 
        6.15755        0.125928       0.0130799 
        6.17326        0.129689       0.0129936 
        6.18898        0.131421       0.0129081 
        6.20467          0.1365       0.0128234 
        6.22036        0.138066       0.0127396 
         6.2361        0.142378       0.0126563 
         6.2518        0.145533       0.0125738 
        6.26748        0.149152       0.0124923 
        6.28319        0.152527       0.0124112 
        6.29893        0.157087       0.0123308 
        6.31463        0.160338       0.0122513 
        6.33033        0.164929       0.0121724 
        6.34604        0.168481       0.0120942 
        6.36177          0.1716       0.0120167 
        6.37747        0.177588       0.0119399 
