# k  (h/Mpc)    Pcb(k)  (Mpc/h)^3    Pcb_linear(k) (Mpc/h)^3   ShotnoiseSubtracted = true
      0.0200456              56         56.8407 
      0.0350414         41.8821         41.6385 
      0.0492313         30.7081         30.5643 
      0.0637834          26.147         26.2476 
      0.0800726          21.046         21.1607 
       0.096163         15.3716         15.2346 
       0.111083         12.4158         12.2953 
       0.126058         11.1502         11.1928 
       0.142273         9.48908         9.53496 
       0.158546         7.51153         7.48123 
        0.17375         6.41493         6.37754 
       0.188953         5.87312         5.88239 
       0.204907         5.18408         5.22799 
       0.220756         4.41328         4.40898 
        0.23588          3.8676          3.8646 
         0.2514           3.554          3.5577 
       0.267535         3.23112         3.23574 
       0.283568         2.85306         2.85212 
       0.299022         2.55578         2.55439 
       0.314451           2.366         2.35588 
       0.330372         2.17259         2.17223 
       0.346141         1.97635         1.97443 
       0.361624         1.80134         1.80134 
       0.377134         1.66455         1.66799 
       0.392932         1.56171         1.55075 
       0.408854         1.43127          1.4332 
       0.424564         1.33199         1.32514 
       0.440253         1.23608         1.23429 
       0.455999         1.15135         1.15476 
       0.471626         1.07675         1.08006 
        0.48727          1.0132         1.00996 
       0.502856        0.951195        0.947519 
       0.518488        0.888485        0.891761 
       0.534347        0.833866        0.839319 
       0.550082        0.791533        0.790695 
       0.565732        0.751196        0.746306 
       0.581496        0.706068        0.705642 
       0.597222        0.668036        0.668121 
       0.612804        0.633303        0.633452 
       0.628434        0.600028        0.601085 
       0.644267        0.571642        0.570801 
       0.660051        0.543992        0.542811 
       0.675724        0.516039        0.516885 
       0.691403        0.491597        0.492648 
       0.707174        0.469159        0.469845 
       0.722871        0.451448        0.448594 
        0.73838        0.427669        0.428902 
       0.754018        0.408706        0.410259 
       0.769845        0.389792        0.392537 
        0.78569        0.375009        0.375862 
       0.801365        0.360252        0.360337 
       0.817031        0.345672        0.345717 
       0.832809        0.330774        0.331833 
       0.848511        0.318122         0.31879 
       0.864097        0.306858        0.306552 
       0.879701        0.295903        0.294959 
       0.895507        0.282398         0.28384 
       0.911279        0.273187         0.27333 
        0.92691        0.264337        0.263449 
       0.942635        0.253103        0.254012 
       0.958396        0.244759        0.245026 
       0.974128         0.23619          0.2365 
       0.989692        0.228207        0.228471 
        1.00528          0.2196         0.22081 
        1.02113        0.213717        0.213387 
        1.03692        0.206594        0.206339 
        1.05264        0.199239        0.199647 
        1.06832        0.192974        0.193268 
        1.08405        0.186536        0.187157 
        1.09979         0.18112         0.18131 
        1.11537        0.174554        0.175776 
        1.13105        0.169162        0.170445 
        1.14679        0.164474        0.165317 
        1.16256        0.160183        0.160395 
        1.17828        0.155471        0.155693 
        1.19395        0.150999        0.151199 
         1.2097         0.14627        0.146863 
        1.22537        0.141753         0.14272 
          1.241        0.137905        0.138753 
        1.25666        0.134539         0.13493 
        1.27241        0.130483        0.131236 
        1.28819         0.12678        0.127676 
        1.30392        0.123825         0.12426 
        1.31957        0.120247        0.120988 
        1.33529        0.117527        0.117823 
        1.35108        0.113875        0.114761 
        1.36674         0.11146        0.111831 
         1.3824          0.1082        0.109009 
        1.39811        0.105297        0.106276 
        1.41389        0.103166        0.103628 
        1.42964        0.100294        0.101076 
        1.44531       0.0978639       0.0986243 
        1.46101       0.0953527       0.0962499 
        1.47667        0.093259       0.0939622 
        1.49229       0.0910238       0.0917562 
        1.50793       0.0888966       0.0896198 
        1.52367       0.0868091       0.0875387 
        1.53953       0.0844986       0.0855109 
        1.55526       0.0826552       0.0835646 
        1.57092       0.0811469        0.081688 
        1.58662       0.0791763       0.0798655 
        1.60235       0.0772723        0.078096 
        1.61809       0.0756039       0.0763801 
        1.63369       0.0739175       0.0747319 
        1.64941       0.0722665       0.0731213 
        1.66519        0.070801       0.0715532 
        1.68085       0.0691828        0.070043 
        1.69652       0.0678351       0.0685766 
        1.71228       0.0661834       0.0671446 
        1.72806       0.0650931        0.065753 
        1.74368       0.0636201       0.0644155 
        1.75933       0.0623482       0.0631131 
        1.77505       0.0611974       0.0618412 
        1.79081       0.0597999       0.0606027 
         1.8065       0.0586951        0.059404 
        1.82218       0.0573289       0.0582393 
        1.83797        0.056277       0.0570983 
        1.85367       0.0551066       0.0559947 
        1.86928       0.0538827       0.0549273 
        1.88497       0.0529469       0.0538825 
        1.90073       0.0517721       0.0528613 
        1.91647       0.0511677        0.051868 
        1.93218       0.0503319       0.0509027 
        1.94787       0.0490715       0.0499638 
        1.96363       0.0481411       0.0490452 
        1.97935       0.0472402        0.048152 
        1.99499       0.0464566       0.0472865 
        2.01064       0.0455206       0.0464413 
         2.0264       0.0447917       0.0456117 
        2.04216       0.0440239       0.0448032 
        2.05781       0.0430879       0.0440197 
        2.07353       0.0424176       0.0432524 
        2.08928       0.0416867        0.042502 
        2.10499       0.0410093       0.0417717 
        2.12065       0.0402537        0.041061 
        2.13633       0.0395714       0.0403665 
        2.15211       0.0389166       0.0396838 
        2.16785       0.0380081       0.0390191 
        2.18349       0.0375183        0.038374 
        2.19916       0.0368289       0.0377423 
        2.21489       0.0362045        0.037123 
        2.23063       0.0357334       0.0365174 
         2.2463        0.035116       0.0359282 
        2.26194       0.0345539       0.0353537 
        2.27765       0.0340174        0.034789 
        2.29341       0.0333454       0.0342353 
        2.30914       0.0328227       0.0336951 
        2.32486       0.0322584       0.0331669 
        2.34061       0.0317354       0.0326494 
        2.35635       0.0313238       0.0321435 
        2.37203       0.0309514       0.0316503 
        2.38768       0.0305003       0.0311686 
        2.40339       0.0299198       0.0306953 
        2.41914       0.0294407       0.0302309 
        2.43483       0.0290915       0.0297779 
         2.4505        0.028539       0.0293351 
        2.46622       0.0280953       0.0288999 
        2.48195       0.0276509       0.0284736 
        2.49759       0.0272739       0.0280583 
        2.51328       0.0267764       0.0276504 
        2.52906       0.0264414       0.0272481 
        2.54479       0.0261067       0.0268554 
        2.56049       0.0256303       0.0264714 
        2.57618       0.0252929       0.0260952 
        2.59189        0.024879        0.025726 
        2.60758       0.0246364       0.0253646 
        2.62325       0.0241628       0.0250106 
        2.63898       0.0239186       0.0246623 
        2.65468        0.023485       0.0243214 
        2.67044       0.0231771       0.0239856 
        2.68618       0.0228288       0.0236571 
        2.70184       0.0226483        0.023336 
        2.71755       0.0222663       0.0230203 
        2.73329       0.0220191       0.0227099 
        2.74897       0.0216385       0.0224064 
        2.76462       0.0213346       0.0221092 
        2.78034       0.0210949       0.0218162 
        2.79607       0.0207832       0.0215283 
        2.81179       0.0204875        0.021246 
        2.82749       0.0202635       0.0209692 
        2.84321       0.0199608        0.020697 
        2.85893       0.0196994       0.0204298 
        2.87462       0.0194332       0.0201679 
        2.89033       0.0191916       0.0199104 
        2.90605       0.0189182       0.0196572 
        2.92176       0.0187279       0.0194087 
        2.93747       0.0184565       0.0191646 
        2.95318       0.0182206       0.0189247 
        2.96891       0.0179482       0.0186889 
        2.98456       0.0177203       0.0184581 
        3.00023       0.0176101       0.0182311 
        3.01596       0.0173169       0.0180071 
        3.03164       0.0170906       0.0177877 
        3.04738       0.0169013       0.0175713 
         3.0631        0.016614       0.0173586 
        3.07883       0.0164849       0.0171495 
        3.09456       0.0162797       0.0169439 
        3.11026       0.0160364        0.016742 
        3.12596        0.015911       0.0165435 
        3.14163       0.0156997       0.0163487 
        3.15734       0.0155535       0.0161567 
        3.17308       0.0153461       0.0159673 
        3.18879       0.0151163       0.0157815 
        3.20447       0.0149895        0.015599 
         3.2202       0.0147836       0.0154188 
         3.2359       0.0146248       0.0152419 
        3.25157       0.0144445       0.0150682 
        3.26729       0.0142874       0.0148967 
        3.28304       0.0141544       0.0147276 
        3.29877       0.0139762       0.0145613 
        3.31446        0.013796        0.014398 
        3.33014       0.0136566       0.0142374 
        3.34585       0.0135413       0.0140791 
        3.36158         0.01336       0.0139229 
        3.37727       0.0131921       0.0137697 
        3.39294       0.0130556       0.0136189 
        3.40867        0.012938       0.0134699 
        3.42439       0.0127717       0.0133232 
        3.44008       0.0126553        0.013179 
        3.45578       0.0125048       0.0130368 
        3.47153        0.012385       0.0128965 
        3.48724       0.0122528       0.0127585 
        3.50292       0.0121319       0.0126229 
        3.51859       0.0120589       0.0124894 
        3.53431       0.0118861       0.0123574 
        3.55007       0.0117572        0.012227 
        3.56577       0.0116286        0.012099 
        3.58146       0.0115237       0.0119729 
        3.59719       0.0114401       0.0118484 
        3.61292       0.0113091       0.0117257 
        3.62859       0.0111575       0.0116052 
        3.64429       0.0110867       0.0114863 
        3.66003       0.0110024       0.0113686 
        3.67578       0.0108653       0.0112527 
        3.69146       0.0107865       0.0111388 
        3.70712       0.0106508       0.0110267 
        3.72284       0.0105683       0.0109158 
        3.73853       0.0104481       0.0108066 
        3.75422       0.0103691       0.0106989 
        3.76993       0.0102902       0.0105926 
        3.78564       0.0101984       0.0104878 
        3.80137        0.010093       0.0103843 
        3.81707      0.00998978       0.0102824 
        3.83279      0.00989053       0.0101818 
        3.84853      0.00982693       0.0100824 
        3.86424      0.00972808      0.00998455 
        3.87992      0.00965784      0.00988815 
        3.89561      0.00958554      0.00979304 
        3.91134      0.00948455      0.00969901 
        3.92704      0.00941526      0.00960633 
        3.94273      0.00934602      0.00951498 
        3.95845      0.00926682      0.00942466 
        3.97418      0.00918303      0.00933551 
        3.98988      0.00907812      0.00924765 
        4.00554      0.00900678      0.00916118 
        4.02125      0.00890699      0.00907558 
        4.03698      0.00878049      0.00899095 
        4.05268      0.00868531      0.00890761 
        4.06839      0.00860265      0.00882528 
         4.0841      0.00846883      0.00874403 
        4.09983      0.00840483       0.0086637 
        4.11555      0.00827658      0.00858443 
        4.13124      0.00819589      0.00850638 
        4.14693      0.00810191      0.00842925 
        4.16266      0.00801917      0.00835291 
        4.17839      0.00793722      0.00827757 
        4.19408      0.00783683      0.00820335 
        4.20977      0.00775487      0.00813002 
        4.22551      0.00769118      0.00805742 
        4.24123      0.00762322      0.00798579 
        4.25691      0.00757337      0.00791524 
        4.27259      0.00748029      0.00784553 
        4.28831      0.00742525      0.00777653 
        4.30404      0.00734404      0.00770831 
        4.31974       0.0073174      0.00764107 
        4.33543      0.00724354      0.00757467 
        4.35116      0.00718994      0.00750892 
        4.36688      0.00713978      0.00744398 
        4.38255      0.00711014      0.00738007 
        4.39825      0.00708297      0.00731677 
        4.41398      0.00700886       0.0072541 
         4.4297      0.00697038      0.00719225 
        4.44541      0.00695096      0.00713113 
        4.46111      0.00690786      0.00707078 
        4.47683      0.00689679       0.0070111 
        4.49251      0.00684915      0.00695223 
        4.50819      0.00681842      0.00689406 
         4.5239      0.00679731      0.00683649 
        4.53962      0.00679295      0.00677951 
        4.55535      0.00676529      0.00672316 
        4.57106      0.00677217      0.00666754 
        4.58678        0.006746      0.00661255 
         4.6025      0.00674135      0.00655817 
        4.61821      0.00673096      0.00650442 
        4.63391       0.0067256      0.00645136 
         4.6496      0.00670285      0.00639891 
        4.66532      0.00672605      0.00634697 
        4.68103      0.00671604      0.00629564 
        4.69673      0.00671146      0.00624493 
        4.71241      0.00677307      0.00619485 
        4.72811      0.00676937      0.00614523 
        4.74384      0.00677241       0.0060961 
        4.75955      0.00679186      0.00604759 
        4.77525      0.00681663      0.00599965 
        4.79096      0.00684646      0.00595217 
        4.80669      0.00686744      0.00590519 
         4.8224      0.00690009      0.00585877 
        4.83809      0.00692534      0.00581291 
        4.85379      0.00698668      0.00576752 
         4.8695      0.00701145      0.00572259 
        4.88521      0.00705164      0.00567815 
        4.90093      0.00707832       0.0056342 
        4.91663      0.00716072      0.00559075 
        4.93234      0.00717236      0.00554771 
        4.94807      0.00723206      0.00550511 
        4.96377      0.00728526      0.00546305 
        4.97943      0.00738195      0.00542151 
        4.99514      0.00740821      0.00538031 
        5.01086      0.00747723      0.00533951 
        5.02654      0.00754489      0.00529924 
        5.04227      0.00760353      0.00525928 
          5.058      0.00771032      0.00521971 
        5.07371      0.00776424      0.00518063 
        5.08942      0.00789122      0.00514196 
        5.10513      0.00794117      0.00510368 
        5.12084      0.00802797      0.00506577 
        5.13656      0.00813133      0.00502827 
        5.15225       0.0082407      0.00499121 
        5.16796       0.0083489      0.00495447 
        5.18369      0.00843827      0.00491807 
         5.1994      0.00857345      0.00488211 
        5.21509      0.00864514      0.00484654 
        5.23079       0.0087574      0.00481129 
        5.24649      0.00888523      0.00477643 
        5.26217       0.0090157      0.00474194 
        5.27788      0.00913542      0.00470774 
        5.29359      0.00925789      0.00467388 
        5.30933      0.00941802      0.00464031 
        5.32504      0.00952392      0.00460713 
        5.34073      0.00968902      0.00457432 
        5.35646      0.00985274      0.00454176 
        5.37218       0.0100641      0.00450952 
        5.38789       0.0101778      0.00447764 
        5.40357       0.0103168      0.00444612 
        5.41929       0.0104765      0.00441483 
        5.43502       0.0107348      0.00438385 
         5.4507       0.0108804      0.00435324 
        5.46639       0.0110152      0.00432292 
        5.48212       0.0111977      0.00429282 
        5.49786       0.0115071      0.00426298 
        5.51353       0.0116934      0.00423357 
        5.52921       0.0118262      0.00420442 
        5.54495       0.0121002      0.00417546 
        5.56066       0.0123447       0.0041468 
        5.57637       0.0125869      0.00411842 
        5.59207       0.0128077      0.00409034 
        5.60778       0.0130797      0.00406251 
        5.62346       0.0133113      0.00403498 
        5.63916        0.013515      0.00400769 
        5.65487       0.0138126      0.00398063 
         5.6706        0.014053       0.0039538 
        5.68633       0.0143921      0.00392721 
        5.70203        0.014704      0.00390092 
        5.71773       0.0149909      0.00387488 
        5.73344       0.0151799      0.00384906 
        5.74916       0.0156312      0.00382346 
        5.76486       0.0159277      0.00379813 
        5.78054       0.0162229      0.00377307 
        5.79626       0.0165719      0.00374818 
          5.812       0.0169584      0.00372348 
         5.8277        0.017263      0.00369908 
        5.84339       0.0177044       0.0036749 
        5.85911       0.0181692       0.0036509 
        5.87484       0.0185089      0.00362712 
        5.89053       0.0188935       0.0036036 
        5.90623       0.0194426      0.00358028 
        5.92195       0.0197133      0.00355712 
        5.93767       0.0201595      0.00353419 
        5.95336       0.0207517       0.0035115 
        5.96905       0.0212902      0.00348902 
        5.98476       0.0216259      0.00346671 
        6.00048       0.0223004      0.00344459 
        6.01617       0.0225607       0.0034227 
        6.03185       0.0230923      0.00340102 
        6.04756       0.0238457      0.00337948 
        6.06331       0.0242725      0.00335809 
        6.07903       0.0249924      0.00333692 
        6.09473       0.0253999      0.00331597 
        6.11044       0.0263178      0.00329517 
        6.12616       0.0267208      0.00327456 
        6.14186       0.0274408      0.00325415 
        6.15755       0.0282772      0.00323392 
        6.17326       0.0285999      0.00321384 
        6.18898       0.0295367      0.00319393 
        6.20467       0.0301409      0.00317422 
        6.22036       0.0311256      0.00315469 
         6.2361       0.0316515      0.00313527 
         6.2518       0.0325784      0.00311604 
        6.26748       0.0332323      0.00309702 
        6.28319       0.0344368      0.00307811 
        6.29893       0.0352218      0.00305935 
        6.31463       0.0361317      0.00304077 
        6.33033       0.0368773      0.00302236 
        6.34604       0.0377881      0.00300408 
        6.36177       0.0387395      0.00298595 
        6.37747       0.0400392      0.00296799 
