# k  (h/Mpc)    Pcb(k)  (Mpc/h)^3    Pcb_linear(k) (Mpc/h)^3   ShotnoiseSubtracted = true
      0.0200456         9763.03          9925.9 
      0.0350414         7448.41         7271.18 
      0.0492313          5292.5         5337.33 
      0.0637834         4416.37         4583.53 
      0.0800726         3533.91         3695.23 
       0.096163         2736.71         2660.37 
       0.111083         2245.74         2147.09 
       0.126058         1915.77         1954.56 
       0.142273         1655.02         1665.06 
       0.158546         1353.21         1306.42 
        0.17375         1190.08         1113.69 
       0.188953         1108.72         1027.22 
       0.204907         949.953         912.947 
       0.220756         850.273         769.924 
        0.23588         757.451         674.862 
         0.2514         683.286         621.268 
       0.267535         662.663         565.046 
       0.283568         579.409         498.056 
       0.299022         551.913         446.065 
       0.314451         554.162         411.399 
       0.330372         478.521          379.33 
       0.346141         444.759         344.788 
       0.361624         424.789         314.562 
       0.377134         395.188         291.275 
       0.392932         385.528         270.802 
       0.408854         366.525         250.274 
       0.424564         353.444         231.405 
       0.440253         319.755         215.539 
       0.455999         305.819         201.653 
       0.471626         304.733         188.607 
        0.48727         290.854         176.366 
       0.502856         266.507         165.462 
       0.518488         267.243         155.725 
       0.534347         248.627         146.567 
       0.550082         243.039         138.076 
       0.565732         240.918         130.325 
       0.581496         226.168         123.224 
       0.597222         220.939         116.672 
       0.612804         214.935         110.618 
       0.628434         207.698         104.965 
       0.644267         198.552          99.677 
       0.660051         194.208         94.7892 
       0.675724         192.459         90.2618 
       0.691403         187.381         86.0294 
       0.707174         181.278         82.0474 
       0.722871         178.487         78.3365 
        0.73838         176.411         74.8978 
       0.754018         166.064         71.6422 
       0.769845         165.864         68.5474 
        0.78569         161.718         65.6354 
       0.801365         157.145         62.9244 
       0.817031         152.837         60.3714 
       0.832809         150.492         57.9469 
       0.848511         147.041         55.6692 
       0.864097         144.577         53.5322 
       0.879701          142.69         51.5077 
       0.895507         138.413         49.5661 
       0.911279         135.487         47.7306 
        0.92691         132.718         46.0052 
       0.942635          130.25         44.3572 
       0.958396         128.583         42.7881 
       0.974128         125.812         41.2991 
       0.989692         123.296         39.8971 
        1.00528         121.535         38.5594 
        1.02113          118.35          37.263 
        1.03692         117.993         36.0322 
        1.05264         116.449         34.8637 
        1.06832           112.8         33.7498 
        1.08405         111.989         32.6825 
        1.09979         111.094         31.6616 
        1.11537         108.242         30.6952 
        1.13105         106.955         29.7641 
        1.14679         105.034         28.8688 
        1.16256         103.101         28.0092 
        1.17828         101.998         27.1882 
        1.19395         99.2848         26.4034 
         1.2097         99.2698         25.6461 
        1.22537         96.9174         24.9228 
          1.241         96.6331           24.23 
        1.25666         93.4323         23.5624 
        1.27241         92.8497         22.9172 
        1.28819         92.1679         22.2956 
        1.30392         90.2583         21.6992 
        1.31957         89.4505         21.1277 
        1.33529         88.2634          20.575 
        1.35108         87.5742         20.0403 
        1.36674         86.1951         19.5288 
         1.3824          85.301         19.0358 
        1.39811         83.3114         18.5586 
        1.41389          82.311         18.0962 
        1.42964          81.313         17.6506 
        1.44531          80.607         17.2224 
        1.46101         79.6945         16.8078 
        1.47667         78.5396         16.4083 
        1.49229         77.6909         16.0231 
        1.50793         76.6486           15.65 
        1.52367         76.1162         15.2866 
        1.53953         74.6743         14.9325 
        1.55526         73.6434         14.5926 
        1.57092         73.5097         14.2649 
        1.58662          72.314         13.9466 
        1.60235          71.289         13.6376 
        1.61809         70.2277          13.338 
        1.63369         69.3683         13.0502 
        1.64941         69.1173         12.7689 
        1.66519         67.5293         12.4951 
        1.68085         67.2384         12.2314 
        1.69652         65.6895         11.9753 
        1.71228         65.5468         11.7252 
        1.72806          64.748         11.4822 
        1.74368         63.8111         11.2487 
        1.75933         63.3835         11.0212 
        1.77505         62.7373         10.7991 
        1.79081         61.7752         10.5828 
         1.8065         61.2941         10.3735 
        1.82218         59.6098         10.1701 
        1.83797         59.3832         9.97088 
        1.85367         58.9295         9.77816 
        1.86928         58.4694         9.59177 
        1.88497         57.3254         9.40931 
        1.90073          56.623         9.23099 
        1.91647         56.3805         9.05753 
        1.93218         56.0338         8.88897 
        1.94787         55.0525         8.72501 
        1.96363         54.1127          8.5646 
        1.97935         53.7805         8.40862 
        1.99499         53.1506         8.25747 
        2.01064         52.5752         8.10988 
         2.0264         52.2093         7.96502 
        2.04216         51.3843         7.82383 
        2.05781         50.7535           7.687 
        2.07353         50.0292         7.55301 
        2.08928         49.8895         7.42197 
        2.10499         49.4255         7.29444 
        2.12065          48.752         7.17034 
        2.13633         48.4242         7.04906 
        2.15211         47.6123         6.92985 
        2.16785         46.9245         6.81377 
        2.18349         46.4279         6.70111 
        2.19916         45.9944         6.59081 
        2.21489          45.694         6.48266 
        2.23063         45.0493         6.37691 
         2.2463         44.7609         6.27402 
        2.26194         44.0979          6.1737 
        2.27765         43.5929         6.07508 
        2.29341         43.0916          5.9784 
        2.30914          42.751         5.88405 
        2.32486         42.0417         5.79183 
        2.34061         41.8308         5.70145 
        2.35635         41.3287         5.61312 
        2.37203         40.9971         5.52699 
        2.38768         40.6188         5.44287 
        2.40339         40.2781         5.36022 
        2.41914         39.8002         5.27913 
        2.43483          39.311         5.20002 
         2.4505         39.0066         5.12269 
        2.46622          38.546         5.04669 
        2.48195         38.2534         4.97225 
        2.49759         37.6623         4.89973 
        2.51328         37.3161          4.8285 
        2.52906         37.0544         4.75824 
        2.54479         36.6869         4.68967 
        2.56049         36.4093          4.6226 
        2.57618         35.9033         4.55692 
        2.59189         35.4675         4.49244 
        2.60758         35.2015         4.42933 
        2.62325         34.8924         4.36752 
        2.63898         34.6585         4.30669 
        2.65468         34.1305         4.24717 
        2.67044         33.8376         4.18853 
        2.68618         33.5819         4.13115 
        2.70184         33.1444         4.07509 
        2.71755         32.8976         4.01995 
        2.73329         32.4793         3.96576 
        2.74897         32.1651         3.91275 
        2.76462         31.8862         3.86085 
        2.78034         31.5651         3.80969 
        2.79607         31.2476         3.75941 
        2.81179          31.029         3.71012 
        2.82749          30.646         3.66177 
        2.84321           30.37         3.61425 
        2.85893         30.1513         3.56759 
        2.87462         29.8342         3.52185 
        2.89033         29.5266         3.47689 
        2.90605         29.2357         3.43268 
        2.92176         28.9902         3.38927 
        2.93747         28.6644         3.34664 
        2.95318         28.5243         3.30475 
        2.96891         28.1881         3.26357 
        2.98456         27.8688         3.22328 
        3.00023         27.5648         3.18363 
        3.01596         27.2414         3.14452 
        3.03164         27.0705          3.1062 
        3.04738         26.8728         3.06841 
         3.0631         26.6081         3.03127 
        3.07883         26.2558         2.99475 
        3.09456         26.0798         2.95885 
        3.11026         25.7332          2.9236 
        3.12596         25.4563         2.88894 
        3.14163         25.2356         2.85493 
        3.15734         25.0635         2.82139 
        3.17308         24.8414         2.78832 
        3.18879         24.6067         2.75587 
        3.20447         24.3735           2.724 
         3.2202         24.0866         2.69254 
         3.2359         23.9358         2.66164 
        3.25157         23.6682          2.6313 
        3.26729         23.5332         2.60136 
        3.28304         23.2837         2.57182 
        3.29877         23.0177         2.54279 
        3.31446         22.8242         2.51428 
        3.33014         22.5703         2.48624 
        3.34585         22.4791         2.45858 
        3.36158          22.191         2.43131 
        3.37727         22.0169         2.40455 
        3.39294         21.8536         2.37822 
        3.40867         21.6393         2.35219 
        3.42439         21.4315         2.32658 
        3.44008         21.2124          2.3014 
        3.45578         21.0284         2.27658 
        3.47153         20.8006         2.25207 
        3.48724         20.6679         2.22798 
        3.50292         20.4879          2.2043 
        3.51859         20.2834         2.18098 
        3.53431         20.1315         2.15792 
        3.55007         19.8934         2.13515 
        3.56577         19.7703         2.11281 
        3.58146         19.5507         2.09079 
        3.59719         19.4451         2.06905 
        3.61292           19.23         2.04762 
        3.62859          18.994         2.02658 
        3.64429         18.8613         2.00581 
        3.66003         18.7533         1.98526 
        3.67578         18.6152         1.96501 
        3.69146         18.3365         1.94513 
        3.70712         18.2278         1.92556 
        3.72284         18.0586         1.90619 
        3.73853          17.965         1.88713 
        3.75422         17.7244         1.86832 
        3.76993         17.5973         1.84975 
        3.78564         17.4466         1.83145 
        3.80137          17.306         1.81337 
        3.81707         17.1202         1.79558 
        3.83279         17.0074         1.77801 
        3.84853         16.8255         1.76066 
        3.86424         16.6355         1.74357 
        3.87992          16.571         1.72673 
        3.89561         16.4079         1.71013 
        3.91134         16.2792          1.6937 
        3.92704         16.1387         1.67752 
        3.94273         16.0005         1.66157 
        3.95845         15.8413          1.6458 
        3.97418         15.6714         1.63023 
        3.98988         15.5724         1.61489 
        4.00554         15.4657         1.59978 
        4.02125         15.2977         1.58484 
        4.03698         15.2071         1.57006 
        4.05268         15.0617         1.55551 
        4.06839         14.9066         1.54113 
         4.0841         14.8166         1.52694 
        4.09983         14.6384         1.51291 
        4.11555         14.5254         1.49907 
        4.13124         14.4352         1.48544 
        4.14693         14.2875         1.47197 
        4.16266         14.1922         1.45864 
        4.17839         14.0597         1.44548 
        4.19408         13.9687         1.43252 
        4.20977         13.8229         1.41972 
        4.22551         13.7252         1.40704 
        4.24123          13.611         1.39453 
        4.25691         13.5014         1.38221 
        4.27259         13.3733         1.37004 
        4.28831         13.3104         1.35799 
        4.30404         13.2004         1.34608 
        4.31974          13.063         1.33433 
        4.33543         12.9173         1.32274 
        4.35116         12.8614         1.31126 
        4.36688         12.6988         1.29992 
        4.38255         12.6162         1.28876 
        4.39825         12.5309          1.2777 
        4.41398         12.4235         1.26676 
         4.4297         12.3304         1.25596 
        4.44541         12.2365         1.24528 
        4.46111         12.1281         1.23475 
        4.47683         12.0063         1.22432 
        4.49251         11.9141         1.21404 
        4.50819         11.8213         1.20389 
         4.5239         11.7731         1.19383 
        4.53962         11.6404         1.18388 
        4.55535         11.5627         1.17404 
        4.57106         11.4871         1.16433 
        4.58678         11.4002         1.15473 
         4.6025         11.3003         1.14523 
        4.61821         11.2107         1.13585 
        4.63391         11.1105         1.12658 
         4.6496         11.0218         1.11742 
        4.66532         10.9441         1.10835 
        4.68103         10.8372         1.09939 
        4.69673         10.7591         1.09053 
        4.71241         10.6552         1.08178 
        4.72811         10.6094         1.07312 
        4.74384         10.5187         1.06454 
        4.75955         10.4258         1.05607 
        4.77525         10.3362          1.0477 
        4.79096         10.2832         1.03941 
        4.80669         10.1862          1.0312 
         4.8224         10.1012          1.0231 
        4.83809         10.0288         1.01509 
        4.85379         9.95945         1.00716 
         4.8695         9.87465        0.999316 
        4.88521         9.79359        0.991557 
        4.90093          9.7327         0.98388 
        4.91663         9.64954        0.976293 
        4.93234         9.58176        0.968778 
        4.94807         9.51416        0.961339 
        4.96377         9.45098        0.953993 
        4.97943         9.37003         0.94674 
        4.99514         9.28679        0.939545 
        5.01086         9.23729         0.93242 
        5.02654         9.14654        0.925389 
        5.04227         9.07289         0.91841 
          5.058         9.01345          0.9115 
        5.07371         8.97339        0.904676 
        5.08942          8.8729        0.897922 
        5.10513         8.81093        0.891238 
        5.12084         8.75606        0.884618 
        5.13656         8.70316        0.878069 
        5.15225         8.60763        0.871597 
        5.16796         8.55399        0.865182 
        5.18369         8.49553        0.858825 
         5.1994         8.43937        0.852546 
        5.21509         8.37863        0.846335 
        5.23079         8.29881         0.84018 
        5.24649         8.25652        0.834091 
        5.26217         8.19669        0.828068 
        5.27788         8.13153        0.822097 
        5.29359         8.07653        0.816184 
        5.30933         7.99986        0.810322 
        5.32504         7.95909        0.804528 
        5.34073          7.9012        0.798797 
        5.35646         7.84285        0.793112 
        5.37218         7.78739        0.787482 
        5.38789         7.71999        0.781916 
        5.40357         7.66571        0.776411 
        5.41929         7.63189        0.770947 
        5.43502         7.57058        0.765537 
         5.4507         7.52379        0.760191 
        5.46639         7.46463        0.754897 
        5.48212         7.40369        0.749641 
        5.49786         7.35997         0.74443 
        5.51353          7.3087        0.739295 
        5.52921          7.2516        0.734203 
        5.54495         7.19522        0.729146 
        5.56066          7.1608        0.724142 
        5.57637         7.10646        0.719186 
        5.59207         7.05161        0.714282 
        5.60778         7.00608        0.709422 
        5.62346         6.94417        0.704615 
        5.63916         6.90844        0.699848 
        5.65487         6.86393        0.695124 
         5.6706         6.81535        0.690438 
        5.68633         6.76874        0.685795 
        5.70203         6.73623        0.681204 
        5.71773         6.66626        0.676656 
        5.73344         6.62252        0.672148 
        5.74916         6.58658        0.667678 
        5.76486         6.53748        0.663255 
        5.78054         6.49581        0.658879 
        5.79626         6.45156        0.654531 
          5.812          6.3959        0.650219 
         5.8277         6.35897        0.645958 
        5.84339         6.31339        0.641736 
        5.85911         6.27229        0.637544 
        5.87484         6.23565        0.633391 
        5.89053         6.18415        0.629284 
        5.90623         6.15369        0.625211 
        5.92195         6.11606        0.621168 
        5.93767         6.07857        0.617164 
        5.95336         6.03356        0.613202 
        5.96905         5.98045        0.609276 
        5.98476         5.94819         0.60538 
        6.00048         5.90839        0.601517 
        6.01617            5.87        0.597694 
        6.03185         5.83716        0.593908 
        6.04756         5.80804        0.590147 
        6.06331         5.75769        0.586411 
        6.07903         5.70324        0.582716 
        6.09473         5.67668        0.579056 
        6.11044          5.6513        0.575425 
        6.12616         5.60166        0.571826 
        6.14186         5.56402        0.568261 
        6.15755          5.5302        0.564728 
        6.17326         5.50419        0.561222 
        6.18898         5.46283        0.557745 
        6.20467         5.43614        0.554304 
        6.22036         5.38522        0.550892 
         6.2361         5.35737        0.547501 
         6.2518         5.32331        0.544144 
        6.26748         5.30093        0.540823 
        6.28319         5.25976         0.53752 
        6.29893         5.22948        0.534243 
        6.31463         5.18276        0.530999 
        6.33033         5.15638        0.527784 
        6.34604         5.12967        0.524593 
        6.36177         5.08582        0.521425 
        6.37747          5.0626        0.518291 
