# k  (h/Mpc)    Pcb(k)  (Mpc/h)^3    Pcb_linear(k) (Mpc/h)^3   ShotnoiseSubtracted = true
      0.0200456         10934.8         11170.8 
      0.0350414         7934.04         8183.11 
      0.0492313         5945.57         6006.73 
      0.0637834         5229.59         5158.38 
      0.0800726         4196.72         4158.67 
       0.096163         2920.05         2994.03 
       0.111083         2343.26         2416.38 
       0.126058         2205.36          2199.7 
       0.142273         1911.59         1873.88 
       0.158546         1594.07         1470.27 
        0.17375         1290.31         1253.36 
       0.188953         1258.27         1156.05 
       0.204907         1186.09         1027.45 
       0.220756          1008.7         866.486 
        0.23588         892.052         759.501 
         0.2514         784.472         699.186 
       0.267535         767.064         635.912 
       0.283568         697.423          560.52 
       0.299022         651.084         502.009 
       0.314451         613.853         462.995 
       0.330372         567.909         426.904 
       0.346141         517.884          388.03 
       0.361624         498.726         354.014 
       0.377134         465.303         327.806 
       0.392932         442.409         304.765 
       0.408854         425.772         281.663 
       0.424564         405.343         260.427 
       0.440253         392.295         242.571 
       0.455999         369.833         226.943 
       0.471626         345.497         212.261 
        0.48727          336.83         198.486 
       0.502856         325.866         186.214 
       0.518488          322.35         175.256 
       0.534347         303.427          164.95 
       0.550082         286.046         155.394 
       0.565732         282.874          146.67 
       0.581496         268.583         138.678 
       0.597222         262.386         131.304 
       0.612804         253.276         124.491 
       0.628434         244.929          118.13 
       0.644267          237.17         112.178 
       0.660051         234.259         106.677 
       0.675724         229.786         101.582 
       0.691403         223.319         96.8189 
       0.707174         214.027         92.3376 
       0.722871         212.297         88.1612 
        0.73838         208.007         84.2912 
       0.754018         201.905         80.6273 
       0.769845         196.125         77.1444 
        0.78569         194.064         73.8672 
       0.801365           188.7         70.8162 
       0.817031         182.652          67.943 
       0.832809         180.001         65.2144 
       0.848511         175.738          62.651 
       0.864097         173.044          60.246 
       0.879701         169.179         57.9676 
       0.895507         164.881         55.7825 
       0.911279         161.824         53.7168 
        0.92691         160.536          51.775 
       0.942635         156.985         49.9204 
       0.958396         156.602         48.1544 
       0.974128         151.981         46.4787 
       0.989692         148.351         44.9009 
        1.00528         145.844         43.3954 
        1.02113         145.018         41.9364 
        1.03692         139.566         40.5513 
        1.05264         138.444         39.2362 
        1.06832         135.584         37.9826 
        1.08405         133.831         36.7814 
        1.09979         133.172         35.6325 
        1.11537         128.828         34.5449 
        1.13105         128.496         33.4971 
        1.14679         127.413         32.4894 
        1.16256         125.327         31.5221 
        1.17828         122.381          30.598 
        1.19395         120.982         29.7148 
         1.2097         118.612         28.8626 
        1.22537         118.238         28.0485 
          1.241           115.6         27.2689 
        1.25666         113.487         26.5175 
        1.27241         112.026         25.7914 
        1.28819         110.471         25.0918 
        1.30392         109.208         24.4206 
        1.31957         107.633         23.7774 
        1.33529         105.591         23.1555 
        1.35108         104.385         22.5537 
        1.36674         103.326          21.978 
         1.3824         101.409         21.4233 
        1.39811         100.486         20.8862 
        1.41389         98.9435         20.3657 
        1.42964          97.729         19.8643 
        1.44531         95.4549         19.3824 
        1.46101         94.6042         18.9158 
        1.47667         94.0433         18.4662 
        1.49229         92.1701         18.0326 
        1.50793         91.4662         17.6128 
        1.52367         90.3411         17.2038 
        1.53953         88.9318         16.8053 
        1.55526         88.0513         16.4228 
        1.57092         87.5657          16.054 
        1.58662         85.6994         15.6958 
        1.60235         85.1195          15.348 
        1.61809         83.8548         15.0108 
        1.63369         82.6343         14.6869 
        1.64941         81.9164         14.3704 
        1.66519         80.3622         14.0622 
        1.68085         79.6742         13.7654 
        1.69652         78.1927         13.4772 
        1.71228         77.8291         13.1958 
        1.72806          76.878         12.9223 
        1.74368         75.9998         12.6594 
        1.75933         75.0157         12.4035 
        1.77505         74.3424         12.1535 
        1.79081         73.0755         11.9101 
         1.8065         72.6071         11.6745 
        1.82218         71.4065         11.4456 
        1.83797         70.8698         11.2214 
        1.85367         69.8966         11.0045 
        1.86928         69.5213         10.7947 
        1.88497           68.27         10.5894 
        1.90073         67.3674         10.3887 
        1.91647          67.008         10.1935 
        1.93218         65.9702         10.0038 
        1.94787         65.2307         9.81927 
        1.96363         64.3678         9.63875 
        1.97935         64.0265         9.46321 
        1.99499         62.9795          9.2931 
        2.01064           62.74           9.127 
         2.0264         61.3096         8.96397 
        2.04216         60.8727         8.80507 
        2.05781         60.1661         8.65108 
        2.07353         59.4662         8.50029 
        2.08928         58.7495         8.35281 
        2.10499         58.4161         8.20929 
        2.12065         57.6936         8.06962 
        2.13633         57.2943         7.93313 
        2.15211         56.8763         7.79897 
        2.16785         55.7883         7.66833 
        2.18349         55.4042         7.54155 
        2.19916         54.7964         7.41741 
        2.21489         54.2917          7.2957 
        2.23063         53.5729         7.17668 
         2.2463         53.0663         7.06089 
        2.26194         52.1093         6.94798 
        2.27765         51.6504           6.837 
        2.29341         51.1369         6.72819 
        2.30914         50.4583         6.62201 
        2.32486          49.791         6.51822 
        2.34061         49.4192         6.41651 
        2.35635         48.8926          6.3171 
        2.37203         48.2639         6.22016 
        2.38768          47.847          6.1255 
        2.40339         47.4396         6.03248 
        2.41914         47.0575         5.94122 
        2.43483         46.3594         5.85219 
         2.4505         45.8639         5.76516 
        2.46622         45.4826         5.67963 
        2.48195         45.0184         5.59586 
        2.49759         44.4011         5.51424 
        2.51328         43.8141         5.43407 
        2.52906         43.6143         5.35501 
        2.54479         42.8873         5.27783 
        2.56049         42.4433         5.20235 
        2.57618         42.0586         5.12844 
        2.59189         41.5937         5.05587 
        2.60758         41.3288         4.98484 
        2.62325          40.798         4.91528 
        2.63898         40.4158         4.84682 
        2.65468         39.8426         4.77983 
        2.67044         39.4222         4.71384 
        2.68618         39.1364         4.64927 
        2.70184         38.7071         4.58618 
        2.71755         38.5016         4.52412 
        2.73329          37.896         4.46313 
        2.74897         37.5053         4.40348 
        2.76462         37.0117         4.34507 
        2.78034         36.8438         4.28749 
        2.79607         36.3631         4.23091 
        2.81179         36.0745         4.17543 
        2.82749         35.7343         4.12102 
        2.84321         35.2955         4.06754 
        2.85893         34.8962         4.01503 
        2.87462          34.521         3.96355 
        2.89033         34.2919         3.91295 
        2.90605         33.9906         3.86319 
        2.92176         33.7368         3.81434 
        2.93747         33.3218         3.76637 
        2.95318         32.8692         3.71922 
        2.96891         32.6246         3.67288 
        2.98456         32.2295         3.62754 
        3.00023          31.947         3.58291 
        3.01596         31.6075          3.5389 
        3.03164         31.4398         3.49577 
        3.04738         31.1937         3.45324 
         3.0631         30.7874         3.41144 
        3.07883         30.4561         3.37034 
        3.09456         30.1655         3.32994 
        3.11026         29.8621         3.29027 
        3.12596         29.6365         3.25126 
        3.14163         29.2738         3.21298 
        3.15734         29.0041         3.17524 
        3.17308         28.6963         3.13802 
        3.18879         28.4448         3.10151 
        3.20447          28.179         3.06564 
         3.2202         27.8791         3.03023 
         3.2359         27.5946         2.99545 
        3.25157         27.5287         2.96131 
        3.26729         27.2098         2.92761 
        3.28304         26.8399         2.89437 
        3.29877          26.559          2.8617 
        3.31446         26.3691         2.82961 
        3.33014         26.1135         2.79805 
        3.34585         25.9249         2.76693 
        3.36158         25.6154         2.73624 
        3.37727         25.3497         2.70612 
        3.39294         25.2135         2.67649 
        3.40867          24.976          2.6472 
        3.42439         24.6801         2.61837 
        3.44008         24.4568         2.59003 
        3.45578         24.3117          2.5621 
        3.47153         23.9424         2.53452 
        3.48724          23.743         2.50741 
        3.50292         23.5875         2.48075 
        3.51859         23.3495         2.45451 
        3.53431         23.1273         2.42856 
        3.55007         22.8956         2.40294 
        3.56577         22.6905         2.37779 
        3.58146         22.5603         2.35301 
        3.59719         22.2348         2.32854 
        3.61292         22.0536         2.30443 
        3.62859         21.8477         2.28075 
        3.64429         21.6718         2.25737 
        3.66003         21.5134         2.23424 
        3.67578         21.2594         2.21146 
        3.69146         21.0933         2.18908 
        3.70712         20.8537         2.16706 
        3.72284         20.8009         2.14526 
        3.73853         20.4995          2.1238 
        3.75422         20.3151         2.10264 
        3.76993         20.1928         2.08174 
        3.78564         19.9582         2.06115 
        3.80137         19.8162          2.0408 
        3.81707         19.6204         2.02077 
        3.83279         19.4861           2.001 
        3.84853         19.2641         1.98147 
        3.86424         19.1138         1.96224 
        3.87992         18.9562          1.9433 
        3.89561         18.7418          1.9246 
        3.91134         18.6119         1.90612 
        3.92704         18.4848         1.88791 
        3.94273         18.2917         1.86996 
        3.95845          18.112         1.85221 
        3.97418          17.996         1.83469 
        3.98988         17.8104         1.81742 
        4.00554         17.6669         1.80042 
        4.02125         17.5022          1.7836 
        4.03698         17.3987         1.76697 
        4.05268         17.1745         1.75059 
        4.06839          17.047         1.73441 
         4.0841          16.925         1.71844 
        4.09983         16.7379         1.70266 
        4.11555         16.6223         1.68708 
        4.13124         16.5195         1.67174 
        4.14693         16.3144         1.65658 
        4.16266         16.1948         1.64158 
        4.17839         16.0632         1.62677 
        4.19408         15.8748         1.61219 
        4.20977         15.8207         1.59777 
        4.22551         15.6763         1.58351 
        4.24123         15.5401         1.56943 
        4.25691         15.4231         1.55556 
        4.27259         15.2542         1.54186 
        4.28831          15.091          1.5283 
        4.30404          15.038          1.5149 
        4.31974         14.8698         1.50168 
        4.33543         14.7597         1.48863 
        4.35116         14.6541         1.47571 
        4.36688         14.5538         1.46295 
        4.38255         14.4056         1.45039 
        4.39825         14.2708         1.43795 
        4.41398         14.2064         1.42563 
         4.4297         14.0295         1.41348 
        4.44541         13.9311         1.40146 
        4.46111         13.7969          1.3896 
        4.47683         13.7188         1.37787 
        4.49251         13.6132         1.36631 
        4.50819         13.4867         1.35487 
         4.5239         13.3917         1.34356 
        4.53962         13.2661         1.33236 
        4.55535         13.1619         1.32129 
        4.57106         13.0559         1.31036 
        4.58678         12.9471         1.29955 
         4.6025         12.8316         1.28886 
        4.61821          12.748          1.2783 
        4.63391         12.6443         1.26787 
         4.6496          12.542         1.25756 
        4.66532         12.4363         1.24736 
        4.68103         12.3216         1.23727 
        4.69673         12.2519          1.2273 
        4.71241         12.1291         1.21746 
        4.72811         12.0412         1.20771 
        4.74384         11.9613         1.19805 
        4.75955         11.8611         1.18852 
        4.77525         11.7563          1.1791 
        4.79096         11.6873         1.16977 
        4.80669         11.5936         1.16053 
         4.8224         11.4796         1.15141 
        4.83809         11.3996          1.1424 
        4.85379          11.327         1.13348 
         4.8695         11.2485         1.12465 
        4.88521         11.1434         1.11591 
        4.90093         11.0554         1.10728 
        4.91663         10.9829         1.09874 
        4.93234         10.8872         1.09028 
        4.94807          10.821         1.08191 
        4.96377         10.7106         1.07364 
        4.97943         10.6224         1.06548 
        4.99514         10.5623         1.05738 
        5.01086         10.5014         1.04936 
        5.02654         10.4252         1.04145 
        5.04227         10.3262         1.03359 
          5.058         10.2381         1.02582 
        5.07371         10.1811         1.01814 
        5.08942         10.0981         1.01054 
        5.10513         10.0191         1.00301 
        5.12084         9.93841        0.995564 
        5.13656         9.87605        0.988194 
        5.15225         9.78806         0.98091 
        5.16796           9.733         0.97369 
        5.18369          9.6636        0.966537 
         5.1994         9.56468        0.959469 
        5.21509         9.50529         0.95248 
        5.23079         9.44112        0.945552 
        5.24649         9.37807        0.938701 
        5.26217         9.30796        0.931922 
        5.27788         9.22486        0.925202 
        5.29359         9.17593        0.918548 
        5.30933         9.07477         0.91195 
        5.32504         9.03168        0.905429 
        5.34073         8.98502         0.89898 
        5.35646          8.8934        0.892582 
        5.37218         8.83719        0.886245 
        5.38789         8.78087        0.879981 
        5.40357         8.72558        0.873786 
        5.41929         8.65972        0.867637 
        5.43502         8.57356        0.861548 
         5.4507         8.52571        0.855532 
        5.46639         8.47326        0.849574 
        5.48212         8.41144        0.843659 
        5.49786         8.36151        0.837794 
        5.51353         8.29505        0.832015 
        5.52921         8.23654        0.826285 
        5.54495         8.17365        0.820593 
        5.56066         8.11723        0.814961 
        5.57637         8.05445        0.809384 
        5.59207         8.01507        0.803865 
        5.60778          7.9438        0.798396 
        5.62346         7.89097        0.792986 
        5.63916         7.83439        0.787621 
        5.65487         7.78555        0.782304 
         5.6706         7.72198        0.777031 
        5.68633         7.65884        0.771805 
        5.70203         7.63393        0.766638 
        5.71773         7.56534         0.76152 
        5.73344         7.50414        0.756447 
        5.74916         7.47179        0.751416 
        5.76486         7.43417        0.746438 
        5.78054         7.36112        0.741514 
        5.79626         7.30905         0.73662 
          5.812         7.25933        0.731767 
         5.8277         7.21494        0.726972 
        5.84339         7.15788         0.72222 
        5.85911         7.11816        0.717503 
        5.87484         7.07625        0.712829 
        5.89053         7.03431        0.708206 
        5.90623         6.97633        0.703623 
        5.92195         6.91997        0.699073 
        5.93767         6.88635        0.694567 
        5.95336         6.83276        0.690107 
        5.96905         6.78759         0.68569 
        5.98476         6.74305        0.681305 
        6.00048         6.70881        0.676958 
        6.01617         6.65922        0.672655 
        6.03185         6.60273        0.668395 
        6.04756         6.56728        0.664162 
        6.06331          6.5177        0.659957 
        6.07903         6.47835        0.655798 
        6.09473         6.44252        0.651679 
        6.11044         6.39786        0.647593 
        6.12616         6.36161        0.643542 
        6.14186         6.31823        0.639531 
        6.15755         6.28184        0.635554 
        6.17326         6.23118        0.631609 
        6.18898         6.17538        0.627696 
        6.20467         6.14806        0.623823 
        6.22036         6.11092        0.619984 
         6.2361         6.06286        0.616167 
         6.2518         6.03246        0.612389 
        6.26748         5.99683        0.608651 
        6.28319         5.94882        0.604934 
        6.29893         5.91051        0.601246 
        6.31463         5.88397        0.597595 
        6.33033         5.84068        0.593977 
        6.34604         5.81013        0.590385 
        6.36177         5.77749        0.586821 
        6.37747         5.73455        0.583293 
