# k  (h/Mpc)    Pcb(k)  (Mpc/h)^3    Pcb_linear(k) (Mpc/h)^3   ShotnoiseSubtracted = true
      0.0200456         11547.1         11799.7 
      0.0350414         8371.04         8643.86 
      0.0492313            6275         6344.93 
      0.0637834         5523.74         5448.82 
      0.0800726          4431.7         4392.82 
       0.096163         3081.23          3162.6 
       0.111083          2473.6         2552.43 
       0.126058          2328.4         2323.55 
       0.142273         2018.58         1979.39 
       0.158546         1688.68         1553.05 
        0.17375         1365.69         1323.93 
       0.188953         1333.31         1221.14 
       0.204907         1257.17          1085.3 
       0.220756         1070.93         915.273 
        0.23588         947.748         802.264 
         0.2514         832.625         738.553 
       0.267535         816.237         671.717 
       0.283568         742.227          592.08 
       0.299022         693.755         530.274 
       0.314451         655.404         489.064 
       0.330372         606.111          450.94 
       0.346141         554.041         409.878 
       0.361624         533.626         373.946 
       0.377134          497.47         346.263 
       0.392932         474.423         321.924 
       0.408854         456.827         297.522 
       0.424564         434.169          275.09 
       0.440253         421.293         256.229 
       0.455999         397.281         239.721 
       0.471626          371.94         224.212 
        0.48727         362.405         209.661 
       0.502856         350.857         196.698 
       0.518488         347.356         185.123 
       0.534347         326.453         174.237 
       0.550082         308.499         164.143 
       0.565732         305.773         154.928 
       0.581496          289.96         146.486 
       0.597222          283.71         138.697 
       0.612804         274.141           131.5 
       0.628434         264.736         124.781 
       0.644267         256.535         118.494 
       0.660051         253.135         112.684 
       0.675724         248.609         107.302 
       0.691403         241.607          102.27 
       0.707174         231.797         97.5366 
       0.722871          229.83          93.125 
        0.73838         225.322         89.0372 
       0.754018         218.987          85.167 
       0.769845         212.306         81.4879 
        0.78569          210.77         78.0263 
       0.801365          204.67         74.8034 
       0.817031         198.305         71.7685 
       0.832809         195.542         68.8862 
       0.848511         190.856         66.1786 
       0.864097         188.228         63.6382 
       0.879701         183.973         61.2315 
       0.895507         179.286         58.9233 
       0.911279           175.5         56.7413 
        0.92691         174.642         54.6902 
       0.942635         170.749         52.7311 
       0.958396         170.223         50.8657 
       0.974128          165.36         49.0957 
       0.989692          161.46          47.429 
        1.00528         158.898         45.8387 
        1.02113         158.064         44.2976 
        1.03692         152.281         42.8345 
        1.05264         150.538         41.4454 
        1.06832         147.625         40.1212 
        1.08405         145.683         38.8524 
        1.09979         145.024         37.6387 
        1.11537         140.289         36.4899 
        1.13105         139.758         35.3831 
        1.14679         138.784         34.3187 
        1.16256         136.482         33.2969 
        1.17828         133.427         32.3208 
        1.19395         131.809         31.3879 
         1.2097          129.63         30.4877 
        1.22537         128.759         29.6278 
          1.241          126.05         28.8043 
        1.25666         123.899         28.0106 
        1.27241         122.163         27.2436 
        1.28819         120.599         26.5046 
        1.30392         119.261         25.7956 
        1.31957         117.629         25.1162 
        1.33529         115.201         24.4592 
        1.35108         113.893         23.8236 
        1.36674         112.846         23.2154 
         1.3824         110.636         22.6295 
        1.39811          109.76         22.0621 
        1.41389          108.04         21.5124 
        1.42964         106.528         20.9827 
        1.44531         104.057         20.4737 
        1.46101         103.281         19.9808 
        1.47667         102.458         19.5059 
        1.49229         100.556          19.048 
        1.50793         99.7231         18.6044 
        1.52367         98.5483         18.1724 
        1.53953         96.9133         17.7515 
        1.55526         95.9682         17.3474 
        1.57092         95.2446         16.9579 
        1.58662         93.2849         16.5795 
        1.60235         92.7576         16.2122 
        1.61809         91.2517          15.856 
        1.63369         90.1306         15.5138 
        1.64941         89.3484         15.1795 
        1.66519          87.515         14.8539 
        1.68085         86.7746         14.5404 
        1.69652         85.0267          14.236 
        1.71228         84.8289         13.9388 
        1.72806         83.5879         13.6499 
        1.74368         82.7169         13.3722 
        1.75933         81.5337         13.1018 
        1.77505         80.8243         12.8378 
        1.79081         79.4258         12.5807 
         1.8065         78.8601         12.3319 
        1.82218         77.4939         12.0901 
        1.83797          76.945         11.8532 
        1.85367         75.9326         11.6241 
        1.86928         75.6603         11.4025 
        1.88497         74.0895         11.1856 
        1.90073         73.1458         10.9736 
        1.91647         72.7018         10.7674 
        1.93218          71.601          10.567 
        1.94787         70.7259         10.3721 
        1.96363         69.7486         10.1815 
        1.97935         69.4526         9.99603 
        1.99499         68.2785         9.81634 
        2.01064         67.8508         9.64088 
         2.0264          66.447         9.46868 
        2.04216         65.8519         9.30083 
        2.05781         65.1608         9.13817 
        2.07353         64.3296         8.97889 
        2.08928         63.5002         8.82311 
        2.10499         63.1869         8.67151 
        2.12065         62.4308         8.52398 
        2.13633         61.8534          8.3798 
        2.15211         61.4629         8.23808 
        2.16785         60.4365         8.10009 
        2.18349         59.9633         7.96617 
        2.19916         59.2108         7.83504 
        2.21489         58.7299         7.70648 
        2.23063         57.9876         7.58076 
         2.2463         57.4334         7.45845 
        2.26194         56.3656         7.33918 
        2.27765         55.9422         7.22195 
        2.29341         55.4347         7.10702 
        2.30914          54.585         6.99486 
        2.32486         53.8242         6.88522 
        2.34061         53.4194         6.77779 
        2.35635         52.8784         6.67278 
        2.37203         52.1512         6.57038 
        2.38768         51.7675         6.47039 
        2.40339         51.1952         6.37214 
        2.41914         50.9002         6.27573 
        2.43483         50.2701         6.18169 
         2.4505         49.7056         6.08976 
        2.46622          49.216         5.99942 
        2.48195          48.671         5.91093 
        2.49759         47.9992         5.82472 
        2.51328         47.4167         5.74003 
        2.52906         47.0882         5.65652 
        2.54479         46.4669           5.575 
        2.56049         45.8532         5.49527 
        2.57618         45.5167         5.41719 
        2.59189         44.9504         5.34054 
        2.60758          44.645         5.26551 
        2.62325         44.0673         5.19203 
        2.63898         43.6857         5.11972 
        2.65468         43.0348         5.04896 
        2.67044         42.5258         4.97925 
        2.68618         42.2675         4.91104 
        2.70184         41.8452          4.8444 
        2.71755         41.5886         4.77884 
        2.73329         40.8341         4.71442 
        2.74897         40.4571         4.65141 
        2.76462         39.9013         4.58971 
        2.78034         39.7598         4.52889 
        2.79607         39.2208         4.46913 
        2.81179         38.8844         4.41052 
        2.82749         38.3932         4.35305 
        2.84321         38.0826         4.29656 
        2.85893         37.6231         4.24109 
        2.87462         37.1625         4.18672 
        2.89033         36.8859         4.13326 
        2.90605         36.5437          4.0807 
        2.92176         36.2618          4.0291 
        2.93747         35.8644         3.97843 
        2.95318         35.3907         3.92863 
        2.96891         35.0006         3.87968 
        2.98456         34.7152         3.83178 
        3.00023         34.2934         3.78464 
        3.01596         33.9561         3.73815 
        3.03164         33.7703         3.69259 
        3.04738         33.4553         3.64767 
         3.0631          33.059         3.60352 
        3.07883         32.7036         3.56011 
        3.09456         32.4103         3.51743 
        3.11026         32.0681         3.47553 
        3.12596         31.8148         3.43432 
        3.14163         31.4057         3.39389 
        3.15734         31.1654         3.35402 
        3.17308          30.783          3.3147 
        3.18879         30.5027         3.27613 
        3.20447         30.2505         3.23824 
         3.2202         29.9127         3.20084 
         3.2359         29.6198         3.16411 
        3.25157         29.4951         3.12805 
        3.26729         29.1895         3.09245 
        3.28304         28.7889         3.05734 
        3.29877         28.4579         3.02283 
        3.31446         28.2541         2.98893 
        3.33014         28.0159         2.95559 
        3.34585         27.8211         2.92272 
        3.36158         27.4126          2.8903 
        3.37727         27.1645         2.85849 
        3.39294         27.0151         2.82719 
        3.40867         26.7314         2.79625 
        3.42439         26.4003          2.7658 
        3.44008         26.2216         2.73586 
        3.45578         26.0423         2.70636 
        3.47153         25.6686         2.67723 
        3.48724          25.419         2.64858 
        3.50292         25.2807         2.62043 
        3.51859         24.9924         2.59271 
        3.53431         24.7897          2.5653 
        3.55007         24.5484         2.53823 
        3.56577         24.3039         2.51167 
        3.58146         24.1939          2.4855 
        3.59719         23.8505         2.45965 
        3.61292         23.6497         2.43418 
        3.62859         23.3974         2.40917 
        3.64429         23.1802         2.38447 
        3.66003          23.029         2.36004 
        3.67578         22.7566         2.33597 
        3.69146         22.5661         2.31234 
        3.70712          22.302         2.28907 
        3.72284          22.227         2.26605 
        3.73853         21.9448         2.24338 
        3.75422         21.7397         2.22102 
        3.76993         21.6076         2.19896 
        3.78564         21.3606          2.1772 
        3.80137         21.1936         2.15571 
        3.81707         20.9861         2.13455 
        3.83279         20.8385         2.11367 
        3.84853         20.6011         2.09304 
        3.86424         20.4334         2.07272 
        3.87992         20.2587         2.05271 
        3.89561         20.0424         2.03297 
        3.91134         19.9244         2.01345 
        3.92704         19.7514         1.99421 
        3.94273         19.5562         1.97524 
        3.95845         19.3545         1.95649 
        3.97418         19.2217         1.93799 
        3.98988         19.0153         1.91975 
        4.00554         18.8741          1.9018 
        4.02125          18.723         1.88403 
        4.03698         18.5373         1.86646 
        4.05268         18.3831         1.84916 
        4.06839         18.2078         1.83207 
         4.0841         18.0758          1.8152 
        4.09983         17.8639         1.79852 
        4.11555         17.7683         1.78207 
        4.13124         17.6407         1.76587 
        4.14693         17.4299         1.74985 
        4.16266         17.2898         1.73401 
        4.17839         17.1471         1.71837 
        4.19408         16.9696         1.70296 
        4.20977         16.8579         1.68774 
        4.22551         16.7402         1.67266 
        4.24123         16.6034         1.65779 
        4.25691         16.4823         1.64315 
        4.27259         16.2978         1.62868 
        4.28831         16.1001         1.61435 
        4.30404         16.0414         1.60019 
        4.31974         15.8644         1.58623 
        4.33543         15.7515         1.57245 
        4.35116         15.6182          1.5588 
        4.36688         15.5321         1.54532 
        4.38255         15.3784         1.53205 
        4.39825         15.2717         1.51891 
        4.41398         15.1432          1.5059 
         4.4297         14.9706         1.49306 
        4.44541         14.8895         1.48037 
        4.46111         14.7546         1.46784 
        4.47683         14.6355         1.45545 
        4.49251         14.5283         1.44323 
        4.50819         14.3975         1.43116 
         4.5239         14.3045         1.41921 
        4.53962         14.1485         1.40738 
        4.55535          14.036         1.39568 
        4.57106         13.9338         1.38414 
        4.58678         13.8041         1.37272 
         4.6025         13.7086         1.36143 
        4.61821         13.6071         1.35027 
        4.63391         13.5024         1.33926 
         4.6496         13.3776         1.32837 
        4.66532          13.255         1.31759 
        4.68103         13.1409         1.30693 
        4.69673         13.0895         1.29641 
        4.71241         12.9613         1.28601 
        4.72811         12.8427         1.27571 
        4.74384         12.7688         1.26551 
        4.75955         12.6507         1.25544 
        4.77525         12.5388         1.24548 
        4.79096         12.4755         1.23563 
        4.80669         12.3647         1.22588 
         4.8224         12.2409         1.21624 
        4.83809         12.1746         1.20672 
        4.85379         12.0622          1.1973 
         4.8695         11.9884         1.18797 
        4.88521         11.8833         1.17875 
        4.90093         11.8069         1.16962 
        4.91663          11.708          1.1606 
        4.93234          11.614         1.15167 
        4.94807          11.523         1.14282 
        4.96377         11.4216         1.13409 
        4.97943         11.3419         1.12547 
        4.99514         11.2665         1.11692 
        5.01086         11.1901         1.10845 
        5.02654         11.0948         1.10009 
        5.04227         11.0189         1.09179 
          5.058         10.9076         1.08358 
        5.07371         10.8627         1.07546 
        5.08942         10.7702         1.06743 
        5.10513         10.6861         1.05949 
        5.12084         10.6072         1.05162 
        5.13656         10.5489         1.04383 
        5.15225         10.4382         1.03614 
        5.16796         10.3616         1.02851 
        5.18369         10.2909         1.02096 
         5.1994         10.1975         1.01349 
        5.21509         10.1335         1.00611 
        5.23079         10.0701        0.998791 
        5.24649         9.99157        0.991553 
        5.26217         9.92146        0.984393 
        5.27788         9.84861        0.977295 
        5.29359         9.78493        0.970266 
        5.30933         9.66915        0.963297 
        5.32504         9.63062        0.956409 
        5.34073         9.57967        0.949597 
        5.35646         9.47221        0.942838 
        5.37218         9.41957        0.936145 
        5.38789         9.35612        0.929528 
        5.40357         9.30325        0.922984 
        5.41929         9.23195        0.916489 
        5.43502         9.13984        0.910057 
         5.4507         9.08387        0.903702 
        5.46639         9.01379        0.897408 
        5.48212         8.95926         0.89116 
        5.49786         8.90128        0.884965 
        5.51353         8.82666        0.878861 
        5.52921         8.78149        0.872808 
        5.54495         8.72011        0.866796 
        5.56066          8.6448        0.860847 
        5.57637         8.58106        0.854956 
        5.59207         8.53978        0.849126 
        5.60778         8.47309        0.843349 
        5.62346         8.42458        0.837634 
        5.63916         8.34943        0.831968 
        5.65487         8.29375        0.826351 
         5.6706         8.22808        0.820781 
        5.68633         8.17528        0.815261 
        5.70203         8.13186        0.809803 
        5.71773         8.06637        0.804397 
        5.73344         8.00348        0.799038 
        5.74916         7.95658        0.793724 
        5.76486          7.9167        0.788466 
        5.78054         7.84627        0.783264 
        5.79626         7.78026        0.778095 
          5.812         7.72049        0.772968 
         5.8277         7.68362        0.767903 
        5.84339          7.6246        0.762885 
        5.85911         7.57729        0.757901 
        5.87484         7.53545        0.752964 
        5.89053         7.47859        0.748081 
        5.90623         7.42274         0.74324 
        5.92195         7.38084        0.738434 
        5.93767         7.33163        0.733674 
        5.95336         7.28262        0.728963 
        5.96905         7.23137        0.724297 
        5.98476         7.18283        0.719665 
        6.00048         7.14068        0.715073 
        6.01617         7.08821        0.710528 
        6.03185         7.03013        0.706028 
        6.04756         6.99298        0.701557 
        6.06331         6.94106        0.697116 
        6.07903         6.89367        0.692722 
        6.09473         6.84944        0.688372 
        6.11044         6.79898        0.684055 
        6.12616         6.77434        0.679776 
        6.14186         6.72812        0.675539 
        6.15755         6.68746        0.671339 
        6.17326         6.62462        0.667171 
        6.18898         6.58144        0.663037 
        6.20467         6.54332        0.658947 
        6.22036         6.49395        0.654891 
         6.2361         6.44685         0.65086 
         6.2518         6.41642        0.646869 
        6.26748         6.37137        0.642921 
        6.28319         6.33682        0.638995 
        6.29893         6.29028        0.635099 
        6.31463         6.25076        0.631243 
        6.33033          6.2105         0.62742 
        6.34604         6.17241        0.623627 
        6.36177         6.13775        0.619862 
        6.37747         6.10368        0.616135 
