# k  (h/Mpc)    Pcb(k)  (Mpc/h)^3    Pcb_linear(k) (Mpc/h)^3   ShotnoiseSubtracted = true
      0.0200456         22476.1           22930 
      0.0350414         17308.6         16797.3 
      0.0492313         12022.4         12329.9 
      0.0637834         9966.88         10588.5 
      0.0800726         7929.44         8536.43 
       0.096163         6340.17         6145.79 
       0.111083         5215.43         4960.05 
       0.126058         4378.37         4515.28 
       0.142273         3856.54         3846.49 
       0.158546         3162.65            3018 
        0.17375         2853.25         2572.76 
       0.188953         2729.48         2373.01 
       0.204907         2358.58         2109.02 
       0.220756         2138.46         1778.62 
        0.23588         1915.31         1559.01 
         0.2514         1746.15         1435.21 
       0.267535         1686.05         1305.33 
       0.283568          1510.7         1150.57 
       0.299022         1444.98         1030.46 
       0.314451         1507.06         950.382 
       0.330372         1345.63         876.298 
       0.346141          1238.3         796.502 
       0.361624         1189.92         726.678 
       0.377134         1144.53         672.881 
       0.392932         1093.24         625.585 
       0.408854         1050.55         578.165 
       0.424564         1029.88         534.573 
       0.440253         961.424         497.922 
       0.455999         920.759         465.843 
       0.471626         936.276         435.705 
        0.48727         887.274         407.428 
       0.502856         855.708         382.238 
       0.518488         829.199         359.744 
       0.534347         798.384         338.589 
       0.550082          762.96         318.974 
       0.565732         752.319         301.067 
       0.581496         737.849         284.662 
       0.597222         724.484         269.526 
       0.612804         707.698          255.54 
       0.628434         680.329         242.483 
       0.644267         662.523         230.266 
       0.660051         655.855         218.975 
       0.675724         644.189         208.516 
       0.691403         624.708         198.738 
       0.707174          608.04          189.54 
       0.722871           602.1         180.967 
        0.73838         589.677         173.023 
       0.754018         577.742         165.502 
       0.769845         568.912         158.353 
        0.78569         557.439         151.626 
       0.801365         540.239         145.363 
       0.817031         535.457         139.465 
       0.832809         527.053         133.864 
       0.848511         518.661         128.603 
       0.864097         510.082         123.666 
       0.879701         508.637         118.989 
       0.895507         488.848         114.504 
       0.911279         483.934         110.264 
        0.92691         477.462         106.278 
       0.942635         472.727         102.471 
       0.958396         458.718         98.8457 
       0.974128         452.488         95.4061 
       0.989692         439.916         92.1673 
        1.00528         437.067         89.0769 
        1.02113         428.702         86.0822 
        1.03692          422.93         83.2389 
        1.05264         417.509         80.5395 
        1.06832         408.449         77.9662 
        1.08405         407.519         75.5006 
        1.09979         398.391         73.1422 
        1.11537         388.146         70.9097 
        1.13105         384.232         68.7589 
        1.14679         377.907         66.6905 
        1.16256         376.089         64.7048 
        1.17828         369.721          62.808 
        1.19395         361.513          60.995 
         1.2097          358.84         59.2457 
        1.22537         352.571         57.5747 
          1.241         346.236         55.9744 
        1.25666         342.393          54.432 
        1.27241         337.961         52.9416 
        1.28819         329.926         51.5055 
        1.30392         330.019         50.1278 
        1.31957         321.326         48.8075 
        1.33529         317.286         47.5309 
        1.35108         315.449         46.2956 
        1.36674         307.072         45.1138 
         1.3824         304.352         43.9751 
        1.39811         300.336         42.8727 
        1.41389         293.812         41.8044 
        1.42964          290.78          40.775 
        1.44531         286.727         39.7859 
        1.46101         281.591         38.8281 
        1.47667         279.263         37.9052 
        1.49229          275.13         37.0153 
        1.50793         271.347         36.1534 
        1.52367         267.096         35.3139 
        1.53953         262.482         34.4959 
        1.55526          260.27         33.7107 
        1.57092         257.456         32.9537 
        1.58662         252.319         32.2185 
        1.60235         249.196         31.5046 
        1.61809         247.114         30.8124 
        1.63369         242.599         30.1475 
        1.64941         239.358         29.4978 
        1.66519         236.345         28.8652 
        1.68085         232.051          28.256 
        1.69652         229.444         27.6644 
        1.71228         226.161         27.0867 
        1.72806         223.365         26.5254 
        1.74368         221.171         25.9858 
        1.75933         219.533         25.4604 
        1.77505         216.058         24.9473 
        1.79081         212.676         24.4477 
         1.8065         211.237         23.9641 
        1.82218          206.24         23.4942 
        1.83797         204.563          23.034 
        1.85367          201.48         22.5888 
        1.86928         198.466         22.1582 
        1.88497         196.259         21.7367 
        1.90073         194.825         21.3247 
        1.91647         190.948          20.924 
        1.93218         188.867         20.5346 
        1.94787         185.977         20.1559 
        1.96363         184.877         19.7853 
        1.97935         182.877          19.425 
        1.99499         180.411         19.0758 
        2.01064          175.97         18.7348 
         2.0264         175.648         18.4002 
        2.04216         172.887          18.074 
        2.05781         170.339         17.7579 
        2.07353          169.46         17.4484 
        2.08928         167.363         17.1457 
        2.10499         164.938         16.8511 
        2.12065         163.086         16.5644 
        2.13633         160.857         16.2842 
        2.15211         158.272         16.0088 
        2.16785          157.06         15.7406 
        2.18349         155.149         15.4804 
        2.19916         152.866         15.2256 
        2.21489          151.09         14.9758 
        2.23063          149.66         14.7314 
         2.2463         147.405         14.4938 
        2.26194         146.142          14.262 
        2.27765         143.675         14.0342 
        2.29341         142.836         13.8108 
        2.30914         141.189         13.5929 
        2.32486         138.687         13.3798 
        2.34061         137.001         13.1711 
        2.35635         136.342          12.967 
        2.37203         134.047          12.768 
        2.38768         133.262         12.5737 
        2.40339         130.374         12.3828 
        2.41914         129.336         12.1954 
        2.43483         128.084         12.0127 
         2.4505         126.898          11.834 
        2.46622         124.759         11.6585 
        2.48195         123.715         11.4865 
        2.49759         121.433          11.319 
        2.51328          120.48         11.1544 
        2.52906         119.558         10.9921 
        2.54479         117.867         10.8337 
        2.56049         116.462         10.6788 
        2.57618         115.147         10.5271 
        2.59189         114.363         10.3781 
        2.60758         112.534         10.2323 
        2.62325         111.576         10.0895 
        2.63898         110.444         9.94899 
        2.65468         109.097         9.81148 
        2.67044         108.225         9.67602 
        2.68618         106.527         9.54347 
        2.70184         105.275         9.41396 
        2.71755         104.468         9.28658 
        2.73329         102.747         9.16139 
        2.74897         102.046         9.03894 
        2.76462         101.412         8.91904 
        2.78034         99.8928         8.80085 
        2.79607         98.5846         8.68471 
        2.81179         97.7971         8.57083 
        2.82749         96.8542         8.45915 
        2.84321         95.3878         8.34936 
        2.85893          93.975         8.24158 
        2.87462         93.5802         8.13592 
        2.89033         92.3259         8.03204 
        2.90605         91.3598          7.9299 
        2.92176         90.6783         7.82963 
        2.93747         89.7331         7.73116 
        2.95318         88.3299         7.63439 
        2.96891         87.7114         7.53925 
        2.98456         86.5214         7.44618 
        3.00023         85.7886         7.35457 
        3.01596          85.026         7.26424 
        3.03164         84.0768          7.1757 
        3.04738          83.497          7.0884 
         3.0631          82.336         7.00261 
        3.07883         81.7975         6.91825 
        3.09456          80.692         6.83531 
        3.11026          79.958         6.75388 
        3.12596         79.0883          6.6738 
        3.14163         78.4407         6.59523 
        3.15734         77.4474         6.51775 
        3.17308          76.824         6.44135 
        3.18879         75.9902         6.36641 
        3.20447         75.1426         6.29278 
         3.2202         74.1081          6.2201 
         3.2359         73.6003         6.14871 
        3.25157         72.9713         6.07864 
        3.26729         72.0268         6.00945 
        3.28304         71.0539         5.94123 
        3.29877         70.5754         5.87416 
        3.31446         69.7221          5.8083 
        3.33014         69.1179         5.74351 
        3.34585         68.6477         5.67963 
        3.36158         68.1087         5.61664 
        3.37727         67.4686         5.55481 
        3.39294         66.6585         5.49398 
        3.40867          65.852         5.43386 
        3.42439         65.1842         5.37468 
        3.44008         64.5002         5.31652 
        3.45578         64.0447         5.25918 
        3.47153         63.5323         5.20257 
        3.48724         62.9431         5.14691 
        3.50292         62.1867          5.0922 
        3.51859         61.8435         5.03832 
        3.53431          61.093         4.98507 
        3.55007         60.4233         4.93247 
        3.56577         59.7646         4.88084 
        3.58146         59.1741         4.82999 
        3.59719         58.7495         4.77975 
        3.61292         58.0675         4.73026 
        3.62859         57.5951         4.68166 
        3.64429         57.1289         4.63366 
        3.66003         56.5319          4.5862 
        3.67578          55.927         4.53942 
        3.69146         55.4425         4.49349 
        3.70712         54.9746         4.44828 
        3.72284         54.4918         4.40354 
        3.73853          54.015         4.35949 
        3.75422         53.4321         4.31605 
        3.76993          53.058         4.27316 
        3.78564         52.5458         4.23088 
        3.80137         52.0139         4.18912 
        3.81707         51.5878         4.14801 
        3.83279           51.03         4.10743 
        3.84853         50.5501         4.06733 
        3.86424         50.0945         4.02786 
        3.87992         49.6447         3.98897 
        3.89561         49.3656          3.9506 
        3.91134         48.7542         3.91267 
        3.92704         48.4135         3.87528 
        3.94273         47.9593         3.83843 
        3.95845          47.455         3.80199 
        3.97418         47.0905         3.76603 
        3.98988          46.635         3.73059 
        4.00554          46.102          3.6957 
        4.02125         45.9141         3.66117 
        4.03698         45.3805         3.62703 
        4.05268          45.155         3.59341 
        4.06839         44.6929          3.5602 
         4.0841         44.3559         3.52742 
        4.09983         43.8547         3.49502 
        4.11555         43.5338         3.46304 
        4.13124         43.0945         3.43155 
        4.14693         42.7855         3.40044 
        4.16266         42.3481         3.36964 
        4.17839         41.9224         3.33925 
        4.19408         41.6227         3.30931 
        4.20977         41.2429         3.27972 
        4.22551          40.976         3.25043 
        4.24123         40.6297         3.22154 
        4.25691         40.1851         3.19308 
        4.27259          39.888         3.16496 
        4.28831         39.5915         3.13712 
        4.30404         39.2667          3.1096 
        4.31974         38.9702         3.08247 
        4.33543          38.522         3.05569 
        4.35116          38.203         3.02917 
        4.36688         37.9018         3.00297 
        4.38255         37.6697         2.97719 
        4.39825         37.3698         2.95165 
        4.41398         37.1078         2.92637 
         4.4297         36.6995         2.90142 
        4.44541         36.5029         2.87676 
        4.46111         36.0848         2.85242 
        4.47683         35.8587         2.82834 
        4.49251         35.5774         2.80459 
        4.50819         35.1955         2.78113 
         4.5239         34.8687          2.7579 
        4.53962         34.6206         2.73492 
        4.55535         34.3243         2.71218 
        4.57106         34.0041         2.68975 
        4.58678         33.8856         2.66756 
         4.6025          33.565         2.64563 
        4.61821         33.2669         2.62394 
        4.63391         32.9859         2.60253 
         4.6496         32.7173         2.58138 
        4.66532         32.4691         2.56043 
        4.68103         32.1122         2.53972 
        4.69673         31.9767         2.51926 
        4.71241         31.6808         2.49906 
        4.72811         31.4952         2.47904 
        4.74384         31.2712         2.45922 
        4.75955         31.0024         2.43965 
        4.77525          30.614         2.42031 
        4.79096         30.4518         2.40116 
        4.80669         30.2222          2.3822 
         4.8224          30.012         2.36348 
        4.83809          29.752         2.34498 
        4.85379         29.5876         2.32667 
         4.8695         29.2974         2.30854 
        4.88521         29.0544         2.29062 
        4.90093         28.8017         2.27289 
        4.91663         28.6846         2.25536 
        4.93234         28.3536           2.238 
        4.94807         28.1337         2.22081 
        4.96377         27.9291         2.20384 
        4.97943         27.7755         2.18709 
        4.99514         27.5892         2.17047 
        5.01086         27.3003         2.15401 
        5.02654         27.0248         2.13776 
        5.04227         26.8444         2.12164 
          5.058         26.6493         2.10568 
        5.07371         26.4595         2.08991 
        5.08942         26.2499         2.07431 
        5.10513          26.104         2.05887 
        5.12084         25.9005         2.04358 
        5.13656         25.7062         2.02845 
        5.15225         25.5521          2.0135 
        5.16796         25.3559         1.99868 
        5.18369         25.0993         1.98399 
         5.1994         24.9348         1.96949 
        5.21509         24.7559         1.95514 
        5.23079         24.5603         1.94092 
        5.24649         24.3355         1.92685 
        5.26217         24.1962         1.91294 
        5.27788         24.0775         1.89915 
        5.29359         23.8457         1.88549 
        5.30933         23.6664         1.87194 
        5.32504         23.4913         1.85856 
        5.34073         23.2987         1.84532 
        5.35646         23.1028         1.83219 
        5.37218          22.988         1.81918 
        5.38789         22.8121         1.80632 
        5.40357         22.6487         1.79361 
        5.41929         22.5045         1.78098 
        5.43502          22.358         1.76848 
         5.4507         22.1871         1.75614 
        5.46639         21.9786          1.7439 
        5.48212         21.8036         1.73176 
        5.49786         21.6869         1.71973 
        5.51353         21.5146         1.70786 
        5.52921         21.3822          1.6961 
        5.54495          21.195         1.68442 
        5.56066         21.0064         1.67286 
        5.57637          20.861         1.66141 
        5.59207         20.7661         1.65008 
        5.60778         20.6293         1.63885 
        5.62346         20.4766         1.62775 
        5.63916         20.3397         1.61674 
        5.65487         20.1647         1.60582 
         5.6706         20.0324           1.595 
        5.68633         19.9073         1.58427 
        5.70203         19.7755         1.57366 
        5.71773         19.6121         1.56316 
        5.73344         19.4839         1.55275 
        5.74916         19.3336         1.54242 
        5.76486         19.2164          1.5322 
        5.78054         19.0567         1.52209 
        5.79626         18.9763         1.51205 
          5.812         18.8131         1.50209 
         5.8277         18.6696         1.49224 
        5.84339         18.5422         1.48249 
        5.85911         18.4569         1.47281 
        5.87484         18.2791         1.46321 
        5.89053           18.17         1.45372 
        5.90623         18.0233         1.44432 
        5.92195         17.9092         1.43498 
        5.93767         17.8109         1.42572 
        5.95336         17.6495         1.41657 
        5.96905         17.5389          1.4075 
        5.98476         17.4224          1.3985 
        6.00048         17.3164         1.38958 
        6.01617         17.2013         1.38075 
        6.03185          17.087           1.372 
        6.04756         16.9867         1.36331 
        6.06331          16.859         1.35468 
        6.07903         16.7563         1.34615 
        6.09473         16.5944         1.33769 
        6.11044         16.5123          1.3293 
        6.12616         16.4132         1.32099 
        6.14186         16.3041         1.31275 
        6.15755         16.1776         1.30459 
        6.17326         16.0793         1.29649 
        6.18898         15.9426         1.28846 
        6.20467         15.8431         1.28051 
        6.22036          15.745         1.27263 
         6.2361         15.6517         1.26479 
         6.2518         15.5347         1.25704 
        6.26748         15.4394         1.24937 
        6.28319         15.3498         1.24174 
        6.29893         15.2655         1.23417 
        6.31463         15.1327         1.22667 
        6.33033         15.0409         1.21925 
        6.34604         14.9231         1.21187 
        6.36177         14.8483         1.20456 
        6.37747         14.7264         1.19732 
