# k  (h/Mpc)    Pcb(k)  (Mpc/h)^3    Pcb_linear(k) (Mpc/h)^3   ShotnoiseSubtracted = true
      0.0200456         21477.4         21905.4 
      0.0350414         16529.6         16046.7 
      0.0492313         11499.4         11778.9 
      0.0637834         9536.05         10115.4 
      0.0800726         7589.56         8154.98 
       0.096163         6055.58         5871.16 
       0.111083         4981.48         4738.41 
       0.126058         4184.25         4313.51 
       0.142273         3681.19         3674.61 
       0.158546         3018.85         2883.14 
        0.17375         2717.91         2457.79 
       0.188953         2594.97         2266.97 
       0.204907         2241.54         2014.78 
       0.220756         2030.17         1699.14 
        0.23588         1817.87         1489.35 
         0.2514         1655.01         1371.07 
       0.267535         1599.93            1247 
       0.283568         1430.38         1099.16 
       0.299022         1368.57         984.418 
       0.314451         1426.13         907.915 
       0.330372         1267.91         837.141 
       0.346141         1166.87         760.911 
       0.361624         1121.62         694.206 
       0.377134         1077.23         642.814 
       0.392932         1030.72         597.631 
       0.408854         988.976          552.33 
       0.424564         968.972         510.686 
       0.440253           902.1         475.672 
       0.455999         863.914         445.026 
       0.471626         879.825         416.235 
        0.48727         832.889         389.222 
       0.502856          799.86         365.157 
       0.518488         777.623         343.669 
       0.534347         746.313         323.459 
       0.550082         712.961          304.72 
       0.565732         704.116         287.614 
       0.581496         690.769         271.942 
       0.597222         676.576         257.482 
       0.612804         661.516         244.122 
       0.628434         635.531         231.648 
       0.644267         618.315         219.977 
       0.660051         611.832          209.19 
       0.675724         600.518         199.198 
       0.691403         583.822         189.858 
       0.707174         566.921          181.07 
       0.722871         560.423          172.88 
        0.73838         549.977         165.292 
       0.754018         537.482         158.107 
       0.769845         529.904         151.277 
        0.78569         519.551         144.851 
       0.801365         502.706         138.868 
       0.817031         498.706         133.233 
       0.832809         491.302         127.883 
       0.848511         483.096         122.856 
       0.864097         474.051          118.14 
       0.879701         471.766         113.672 
       0.895507         453.759         109.387 
       0.911279         448.584         105.337 
        0.92691         443.276         101.529 
       0.942635         439.251         97.8918 
       0.958396         424.928         94.4288 
       0.974128         419.822         91.1429 
       0.989692         407.192         88.0488 
        1.00528         405.239         85.0965 
        1.02113         397.575         82.2356 
        1.03692         391.908         79.5194 
        1.05264          386.49         76.9406 
        1.06832         378.964         74.4823 
        1.08405         377.268         72.1269 
        1.09979         369.412         69.8738 
        1.11537         359.322         67.7411 
        1.13105         355.854         65.6864 
        1.14679         350.325         63.7105 
        1.16256         348.286         61.8135 
        1.17828         342.411         60.0014 
        1.19395         334.569         58.2695 
         1.2097         332.898         56.5983 
        1.22537         326.815          55.002 
          1.241         320.649         53.4732 
        1.25666         317.081         51.9998 
        1.27241          312.68         50.5759 
        1.28819         305.642          49.204 
        1.30392         305.782         47.8879 
        1.31957         297.055         46.6266 
        1.33529         293.649         45.4069 
        1.35108         291.819         44.2269 
        1.36674         284.118         43.0979 
         1.3824         282.236         42.0101 
        1.39811         278.751         40.9569 
        1.41389          271.78         39.9364 
        1.42964         269.408          38.953 
        1.44531         265.962         38.0081 
        1.46101         261.451         37.0931 
        1.47667         258.619         36.2114 
        1.49229          255.04         35.3613 
        1.50793         251.846         34.5379 
        1.52367         248.103         33.7359 
        1.53953         243.021         32.9544 
        1.55526         241.722         32.2044 
        1.57092          239.16         31.4811 
        1.58662         234.197         30.7788 
        1.60235         231.463         30.0968 
        1.61809         229.185         29.4356 
        1.63369          224.93         28.8004 
        1.64941         222.144         28.1797 
        1.66519         219.406         27.5754 
        1.68085         215.559         26.9934 
        1.69652         213.118         26.4282 
        1.71228         210.099         25.8764 
        1.72806         207.609         25.3401 
        1.74368         205.688         24.8246 
        1.75933         204.097         24.3227 
        1.77505         200.907         23.8325 
        1.79081         197.139         23.3552 
         1.8065          195.77         22.8933 
        1.82218         191.436         22.4444 
        1.83797         190.007         22.0047 
        1.85367         187.119         21.5794 
        1.86928         184.374          21.168 
        1.88497         182.523         20.7654 
        1.90073         180.845         20.3718 
        1.91647         177.186          19.989 
        1.93218         175.574          19.617 
        1.94787         172.907         19.2552 
        1.96363         172.093         18.9012 
        1.97935         169.963          18.557 
        1.99499         167.632         18.2234 
        2.01064         163.536         17.8977 
         2.0264         163.277          17.578 
        2.04216             161         17.2664 
        2.05781          158.22         16.9644 
        2.07353         157.203         16.6687 
        2.08928         155.335         16.3795 
        2.10499         153.486         16.0981 
        2.12065         151.667         15.8242 
        2.13633         149.564         15.5565 
        2.15211         147.049         15.2935 
        2.16785         145.867         15.0373 
        2.18349         144.119         14.7887 
        2.19916         142.132         14.5452 
        2.21489          140.69         14.3066 
        2.23063         139.055         14.0732 
         2.2463         137.023         13.8461 
        2.26194         135.888         13.6247 
        2.27765         133.485         13.4071 
        2.29341          132.72         13.1937 
        2.30914          131.26         12.9855 
        2.32486         128.673          12.782 
        2.34061         127.453         12.5825 
        2.35635         126.749         12.3876 
        2.37203         124.357         12.1975 
        2.38768         123.637         12.0118 
        2.40339         121.208         11.8295 
        2.41914         120.269         11.6505 
        2.43483          119.19         11.4759 
         2.4505         117.721         11.3052 
        2.46622         115.977         11.1375 
        2.48195         114.949         10.9732 
        2.49759         113.043         10.8132 
        2.51328         112.185          10.656 
        2.52906         111.056         10.5009 
        2.54479         109.533         10.3496 
        2.56049         108.214         10.2016 
        2.57618         107.011         10.0567 
        2.59189         106.404         9.91435 
        2.60758         104.537         9.77506 
        2.62325         104.054         9.63866 
        2.63898          102.82         9.50442 
        2.65468         101.643         9.37305 
        2.67044         100.439         9.24365 
        2.68618         99.1451         9.11702 
        2.70184         97.9327          8.9933 
        2.71755         97.2024         8.87161 
        2.73329         95.4945         8.75201 
        2.74897         94.9213         8.63504 
        2.76462         94.1031          8.5205 
        2.78034          92.602         8.40759 
        2.79607         91.5615         8.29664 
        2.81179         90.9169         8.18784 
        2.82749         89.8147         8.08115 
        2.84321         88.5632         7.97627 
        2.85893         87.2842         7.87331 
        2.87462         86.7908         7.77237 
        2.89033         85.7419         7.67313 
        2.90605         85.0577         7.57556 
        2.92176          84.129         7.47976 
        2.93747         83.3297         7.38569 
        2.95318         81.9921         7.29325 
        2.96891         81.4312         7.20236 
        2.98456         80.4255         7.11345 
        3.00023         79.6958         7.02593 
        3.01596         79.0184         6.93964 
        3.03164         78.0315         6.85506 
        3.04738          77.539         6.77166 
         3.0631         76.4985          6.6897 
        3.07883          75.945         6.60911 
        3.09456         74.8699         6.52988 
        3.11026         74.1403         6.45208 
        3.12596         73.4322         6.37559 
        3.14163         72.7252         6.30052 
        3.15734         71.7962         6.22651 
        3.17308         71.2567         6.15352 
        3.18879         70.4816         6.08192 
        3.20447         69.8048         6.01158 
         3.2202         68.8643         5.94216 
         3.2359         68.3159         5.87396 
        3.25157         67.7473         5.80701 
        3.26729         66.8878         5.74092 
        3.28304         65.9572         5.67574 
        3.29877         65.5937         5.61168 
        3.31446         64.8647         5.54875 
        3.33014         64.2822         5.48686 
        3.34585         63.7901         5.42583 
        3.36158         63.3285         5.36566 
        3.37727         62.5451         5.30659 
        3.39294         61.9436         5.24849 
        3.40867         61.3036         5.19105 
        3.42439         60.5867         5.13452 
        3.44008         59.9779         5.07895 
        3.45578         59.6152         5.02417 
        3.47153         59.1305         4.97009 
        3.48724         58.4006         4.91692 
        3.50292         57.7211         4.86466 
        3.51859         57.4246         4.81319 
        3.53431         56.6808         4.76231 
        3.55007          56.013         4.71206 
        3.56577         55.5265         4.66274 
        3.58146         54.9034         4.61416 
        3.59719         54.4689         4.56617 
        3.61292         53.8518         4.51889 
        3.62859         53.4348         4.47246 
        3.64429         53.1011         4.42661 
        3.66003         52.5096         4.38126 
        3.67578          51.984         4.33658 
        3.69146         51.5351          4.2927 
        3.70712         51.1245         4.24951 
        3.72284         50.6283         4.20677 
        3.73853         50.1401         4.16469 
        3.75422         49.5966         4.12318 
        3.76993         49.2548         4.08222 
        3.78564         48.8347         4.04183 
        3.80137         48.2912         4.00193 
        3.81707         47.9203         3.96266 
        3.83279         47.3973         3.92389 
        3.84853         46.8232         3.88558 
        3.86424         46.5205         3.84787 
        3.87992         46.1474         3.81072 
        3.89561         45.7789         3.77407 
        3.91134         45.3349         3.73783 
        3.92704         44.8932         3.70211 
        3.94273         44.5758         3.66691 
        3.95845         44.0768          3.6321 
        3.97418         43.7185         3.59774 
        3.98988         43.3225         3.56388 
        4.00554         42.9008         3.53056 
        4.02125         42.6313         3.49757 
        4.03698         42.1448         3.46496 
        4.05268         42.0368         3.43284 
        4.06839         41.4787         3.40111 
         4.0841         41.2155          3.3698 
        4.09983         40.7397         3.33884 
        4.11555         40.4487         3.30829 
        4.13124         40.0031         3.27821 
        4.14693         39.7315         3.24849 
        4.16266         39.2472         3.21907 
        4.17839         38.9929         3.19003 
        4.19408         38.6814         3.16143 
        4.20977         38.3106         3.13317 
        4.22551         38.0443         3.10519 
        4.24123         37.7667         3.07758 
        4.25691         37.2988          3.0504 
        4.27259         37.0697         3.02353 
        4.28831          36.778         2.99694 
        4.30404         36.4662         2.97065 
        4.31974         36.1802         2.94474 
        4.33543         35.7913         2.91915 
        4.35116         35.4919         2.89381 
        4.36688         35.2255         2.86878 
        4.38255          35.018         2.84415 
        4.39825         34.5998         2.81976 
        4.41398         34.3387         2.79561 
         4.4297         34.0656         2.77177 
        4.44541          33.871         2.74821 
        4.46111         33.5035         2.72496 
        4.47683         33.2339         2.70196 
        4.49251         33.0105         2.67927 
        4.50819          32.697         2.65685 
         4.5239         32.3605         2.63467 
        4.53962         32.1589         2.61271 
        4.55535         31.8176         2.59099 
        4.57106         31.5468         2.56956 
        4.58678         31.4604         2.54836 
         4.6025          31.129         2.52741 
        4.61821         30.8791         2.50669 
        4.63391         30.5799         2.48624 
         4.6496         30.3857         2.46603 
        4.66532          30.149         2.44601 
        4.68103         29.8756         2.42623 
        4.69673         29.6617         2.40669 
        4.71241         29.4361         2.38739 
        4.72811         29.2324         2.36827 
        4.74384         29.0154         2.34933 
        4.75955         28.7617         2.33064 
        4.77525         28.4455         2.31216 
        4.79096         28.3015         2.29386 
        4.80669         28.1235         2.27576 
         4.8224         27.8885         2.25787 
        4.83809         27.5999          2.2402 
        4.85379         27.4855          2.2227 
         4.8695          27.235         2.20539 
        4.88521         26.9293         2.18826 
        4.90093         26.7754         2.17132 
        4.91663          26.606         2.15458 
        4.93234         26.3106         2.13799 
        4.94807         26.1498         2.12158 
        4.96377         25.9693         2.10536 
        4.97943         25.7906         2.08936 
        4.99514          25.614         2.07348 
        5.01086         25.4078         2.05775 
        5.02654         25.1276         2.04224 
        5.04227         24.9724         2.02683 
          5.058         24.7877         2.01159 
        5.07371         24.5735         1.99653 
        5.08942         24.4342         1.98162 
        5.10513         24.2868         1.96687 
        5.12084         24.1337         1.95226 
        5.13656         23.8629         1.93781 
        5.15225         23.7533         1.92352 
        5.16796         23.5431         1.90937 
        5.18369          23.315         1.89534 
         5.1994         23.1434         1.88148 
        5.21509         22.9695         1.86777 
        5.23079         22.8091         1.85419 
        5.24649         22.6278         1.84075 
        5.26217         22.4799         1.82746 
        5.27788         22.3492         1.81428 
        5.29359         22.1633         1.80123 
        5.30933         21.9539          1.7883 
        5.32504         21.8143         1.77551 
        5.34073         21.6078         1.76286 
        5.35646         21.4731         1.75032 
        5.37218         21.3318         1.73789 
        5.38789         21.1425         1.72561 
        5.40357         21.0428         1.71346 
        5.41929         20.8858          1.7014 
        5.43502         20.7318         1.68946 
         5.4507         20.5449         1.67766 
        5.46639         20.3819         1.66598 
        5.48212         20.2697         1.65438 
        5.49786         20.1057         1.64288 
        5.51353           19.98         1.63155 
        5.52921         19.8103         1.62031 
        5.54495         19.7047         1.60915 
        5.56066         19.5008         1.59811 
        5.57637         19.3984         1.58717 
        5.59207         19.2896         1.57635 
        5.60778         19.1577         1.56562 
        5.62346         19.0117         1.55501 
        5.63916         18.8426         1.54449 
        5.65487         18.7044         1.53407 
         5.6706         18.5885         1.52373 
        5.68633         18.4718         1.51348 
        5.70203         18.3401         1.50335 
        5.71773         18.2021         1.49331 
        5.73344         18.0901         1.48336 
        5.74916         17.9522          1.4735 
        5.76486         17.8444         1.46373 
        5.78054         17.6739         1.45408 
        5.79626         17.5478         1.44448 
          5.812         17.4759         1.43496 
         5.8277         17.3205         1.42556 
        5.84339         17.1887         1.41624 
        5.85911           17.09         1.40699 
        5.87484         16.9571         1.39783 
        5.89053         16.8363         1.38876 
        5.90623          16.722         1.37978 
        5.92195         16.6161         1.37085 
        5.93767         16.5123         1.36202 
        5.95336          16.378         1.35327 
        5.96905         16.2663         1.34461 
        5.98476          16.182         1.33601 
        6.00048         16.0497         1.32749 
        6.01617         15.9379         1.31905 
        6.03185         15.8356         1.31069 
        6.04756         15.7526         1.30239 
        6.06331         15.6411         1.29415 
        6.07903         15.5325         1.28599 
        6.09473         15.4054         1.27792 
        6.11044         15.3039          1.2699 
        6.12616         15.1915         1.26196 
        6.14186         15.1087         1.25409 
        6.15755         15.0042          1.2463 
        6.17326         14.9019         1.23856 
        6.18898            14.8         1.23089 
        6.20467         14.6879         1.22329 
        6.22036         14.5843         1.21576 
         6.2361         14.5142         1.20828 
         6.2518          14.398         1.20087 
        6.26748         14.3217         1.19354 
        6.28319         14.2095         1.18625 
        6.29893         14.1381         1.17902 
        6.31463         14.0208         1.17186 
        6.33033         13.9487         1.16476 
        6.34604         13.8306         1.15772 
        6.36177          13.733         1.15073 
        6.37747         13.6538         1.14381 
