# k  (h/Mpc)    Pcb(k)  (Mpc/h)^3    Pcb_linear(k) (Mpc/h)^3   ShotnoiseSubtracted = true
      0.0200456         6832.43         6965.81 
      0.0350414         4989.68         5102.78 
      0.0492313         3728.86         3745.64 
      0.0637834          3259.6         3216.64 
      0.0800726         2620.08         2593.24 
       0.096163         1834.99            1867 
       0.111083         1469.91         1506.79 
       0.126058         1378.77         1371.67 
       0.142273         1192.78         1168.51 
       0.158546         972.794         916.823 
        0.17375         794.116         781.566 
       0.188953          765.83         720.885 
       0.204907         719.047         640.689 
       0.220756         604.357         540.319 
        0.23588         532.214         473.605 
         0.2514           472.6         435.995 
       0.267535         452.302         396.539 
       0.283568         410.295         349.526 
       0.299022         379.482          313.04 
       0.314451         350.984         288.712 
       0.330372         326.195         266.207 
       0.346141         294.697         241.966 
       0.361624         281.644         220.754 
       0.377134          265.08         204.411 
       0.392932         244.712         190.044 
       0.408854         235.423         175.638 
       0.424564          226.04         162.395 
       0.440253         213.815         151.261 
       0.455999         201.837         141.516 
       0.471626         186.844         132.361 
        0.48727         182.243         123.771 
       0.502856         174.906         116.118 
       0.518488         170.802         109.285 
       0.534347         162.999         102.858 
       0.550082         151.619         96.8995 
       0.565732         146.981         91.4596 
       0.581496         140.908         86.4762 
       0.597222         136.667          81.878 
       0.612804         130.477         77.6294 
       0.628434         127.878         73.6628 
       0.644267         123.646         69.9515 
       0.660051         121.017         66.5213 
       0.675724         117.323         63.3441 
       0.691403         113.878         60.3738 
       0.707174         109.689         57.5794 
       0.722871         107.755         54.9751 
        0.73838         105.744         52.5619 
       0.754018         100.829         50.2772 
       0.769845          99.039         48.1053 
        0.78569         96.6048         46.0617 
       0.801365          93.816         44.1592 
       0.817031         90.8088         42.3675 
       0.832809         89.8689          40.666 
       0.848511         86.3537         39.0676 
       0.864097         84.1481         37.5679 
       0.879701         83.3829         36.1472 
       0.895507          81.637         34.7846 
       0.911279         80.4121         33.4965 
        0.92691         78.2249         32.2856 
       0.942635         75.9901         31.1291 
       0.958396         75.7236         30.0279 
       0.974128         73.8297          28.983 
       0.989692         72.2296         27.9991 
        1.00528         70.8889         27.0602 
        1.02113         69.2982         26.1505 
        1.03692         67.6802         25.2868 
        1.05264         67.2063         24.4667 
        1.06832         65.6501          23.685 
        1.08405         64.8511          22.936 
        1.09979         64.0091         22.2195 
        1.11537         61.7024         21.5413 
        1.13105         62.1272         20.8879 
        1.14679         60.9091         20.2596 
        1.16256         59.7467         19.6564 
        1.17828         58.3516         19.0801 
        1.19395         57.8715         18.5294 
         1.2097         56.7156          17.998 
        1.22537         56.4766         17.4903 
          1.241         55.1337         17.0042 
        1.25666          54.051         16.5357 
        1.27241         53.6936         16.0829 
        1.28819         52.3601         15.6466 
        1.30392         51.6552         15.2281 
        1.31957          51.355          14.827 
        1.33529         50.7561         14.4392 
        1.35108         50.1289         14.0639 
        1.36674         49.2836         13.7049 
         1.3824         48.1235          13.359 
        1.39811         48.0201         13.0241 
        1.41389         47.2366         12.6996 
        1.42964         46.4934         12.3869 
        1.44531         46.0827         12.0864 
        1.46101         44.9716         11.7954 
        1.47667         44.9724          11.515 
        1.49229         44.5455         11.2447 
        1.50793         43.6338         10.9829 
        1.52367         43.2242         10.7278 
        1.53953         42.8636         10.4793 
        1.55526         42.0839         10.2408 
        1.57092          41.727         10.0108 
        1.58662         41.1327         9.78749 
        1.60235         40.7596         9.57064 
        1.61809         40.0915         9.36036 
        1.63369         39.5718         9.15837 
        1.64941         38.9882           8.961 
        1.66519          38.682         8.76882 
        1.68085         38.2909         8.58375 
        1.69652          37.857         8.40404 
        1.71228         37.5799         8.22855 
        1.72806         36.9822         8.05801 
        1.74368         36.5318          7.8941 
        1.75933         36.0933         7.73449 
        1.77505         35.8735         7.57862 
        1.79081          35.285         7.42685 
         1.8065         34.9426         7.27994 
        1.82218         34.6701          7.1372 
        1.83797         34.1879         6.99738 
        1.85367         33.7364         6.86213 
        1.86928         33.4555         6.73133 
        1.88497         32.9476         6.60328 
        1.90073         32.9144         6.47814 
        1.91647         32.3905         6.35641 
        1.93218         32.1142         6.23811 
        1.94787          31.771         6.12305 
        1.96363         31.5644         6.01048 
        1.97935         31.1783         5.90102 
        1.99499         30.7783         5.79494 
        2.01064         30.5226         5.69136 
         2.0264         30.0241          5.5897 
        2.04216         29.7255         5.49062 
        2.05781         29.5178          5.3946 
        2.07353         29.1867         5.30056 
        2.08928         29.1575          5.2086 
        2.10499         28.7661         5.11911 
        2.12065         28.2833         5.03201 
        2.13633         28.1515          4.9469 
        2.15211         27.6207         4.86324 
        2.16785         27.5073         4.78178 
        2.18349         27.3252         4.70272 
        2.19916          27.014         4.62531 
        2.21489         26.6796         4.54941 
        2.23063          26.485          4.4752 
         2.2463         26.3025         4.40299 
        2.26194         26.0613         4.33259 
        2.27765          25.723         4.26338 
        2.29341          25.402         4.19553 
        2.30914         25.3265         4.12932 
        2.32486           25.03          4.0646 
        2.34061         24.7664         4.00117 
        2.35635         24.4336         3.93918 
        2.37203         24.2956         3.87874 
        2.38768         24.0827          3.8197 
        2.40339         23.9154         3.76171 
        2.41914         23.6294         3.70479 
        2.43483         23.3458         3.64928 
         2.4505          23.126         3.59501 
        2.46622         22.9055         3.54167 
        2.48195         22.7045         3.48943 
        2.49759         22.4495         3.43854 
        2.51328         22.2559         3.38855 
        2.52906         22.1159         3.33925 
        2.54479         21.8525         3.29112 
        2.56049         21.6023         3.24406 
        2.57618         21.4573         3.19796 
        2.59189         21.3189         3.15271 
        2.60758         21.1268         3.10842 
        2.62325         20.9319         3.06504 
        2.63898         20.7723         3.02236 
        2.65468         20.6134         2.98058 
        2.67044         20.3473         2.93943 
        2.68618         20.2035         2.89917 
        2.70184         20.0306         2.85982 
        2.71755         19.7962         2.82113 
        2.73329         19.6509         2.78309 
        2.74897         19.4029          2.7459 
        2.76462         19.4882         2.70947 
        2.78034         19.1652         2.67357 
        2.79607         18.9516         2.63829 
        2.81179          18.849         2.60369 
        2.82749         18.7028         2.56977 
        2.84321         18.4933         2.53641 
        2.85893         18.3353         2.50367 
        2.87462         18.1692         2.47157 
        2.89033          17.988         2.44001 
        2.90605         17.9031         2.40899 
        2.92176         17.6602         2.37853 
        2.93747         17.5567         2.34861 
        2.95318         17.3798         2.31921 
        2.96891         17.1954         2.29031 
        2.98456         17.0772         2.26204 
        3.00023         16.9622         2.23421 
        3.01596         16.8121         2.20677 
        3.03164         16.6573         2.17987 
        3.04738         16.4861         2.15335 
         3.0631         16.3609         2.12729 
        3.07883         16.2069         2.10166 
        3.09456         16.0964         2.07647 
        3.11026         15.9189         2.05173 
        3.12596         15.7767          2.0274 
        3.14163         15.7233         2.00353 
        3.15734         15.5126            1.98 
        3.17308         15.3961         1.95679 
        3.18879         15.2863         1.93402 
        3.20447          15.132         1.91165 
         3.2202         15.0059         1.88957 
         3.2359         14.9039         1.86789 
        3.25157         14.8114          1.8466 
        3.26729         14.6097         1.82558 
        3.28304         14.5214         1.80486 
        3.29877         14.3806         1.78448 
        3.31446         14.2616         1.76447 
        3.33014         14.1267         1.74479 
        3.34585         14.0353         1.72539 
        3.36158         13.9446         1.70625 
        3.37727         13.7932         1.68747 
        3.39294         13.6916         1.66899 
        3.40867         13.5568         1.65073 
        3.42439         13.4612         1.63275 
        3.44008         13.3702         1.61508 
        3.45578         13.2681         1.59766 
        3.47153         13.1545         1.58046 
        3.48724         13.0481         1.56355 
        3.50292         12.8848         1.54694 
        3.51859         12.8392         1.53057 
        3.53431         12.7291         1.51439 
        3.55007         12.6362         1.49841 
        3.56577         12.5275         1.48273 
        3.58146         12.4451         1.46728 
        3.59719         12.2973         1.45202 
        3.61292         12.2176         1.43698 
        3.62859         12.0845         1.42222 
        3.64429         12.0234         1.40764 
        3.66003         11.8959         1.39322 
        3.67578         11.8146         1.37901 
        3.69146         11.7169         1.36506 
        3.70712         11.6192         1.35132 
        3.72284           11.54         1.33773 
        3.73853         11.4564         1.32435 
        3.75422         11.3741         1.31115 
        3.76993         11.2572         1.29812 
        3.78564         11.1519         1.28528 
        3.80137          11.086         1.27259 
        3.81707         10.9829          1.2601 
        3.83279         10.9088         1.24778 
        3.84853         10.8067          1.2356 
        3.86424         10.7227          1.2236 
        3.87992         10.6372         1.21179 
        3.89561         10.5695         1.20013 
        3.91134         10.5075         1.18861 
        3.92704         10.3882         1.17725 
        3.94273         10.3359         1.16606 
        3.95845         10.2486         1.15499 
        3.97418          10.146         1.14406 
        3.98988         10.0694          1.1333 
        4.00554         9.99084          1.1227 
        4.02125         9.92281         1.11221 
        4.03698         9.84849         1.10184 
        4.05268         9.78616         1.09163 
        4.06839         9.66198         1.08154 
         4.0841         9.62409         1.07158 
        4.09983         9.54614         1.06173 
        4.11555          9.4683         1.05202 
        4.13124         9.39551         1.04245 
        4.14693         9.30314           1.033 
        4.16266         9.24304         1.02365 
        4.17839         9.18076         1.01441 
        4.19408         9.10647         1.00532 
        4.20977         9.03505        0.996331 
        4.22551         8.96888        0.987434 
        4.24123         8.89163        0.978656 
        4.25691         8.81762         0.97001 
        4.27259         8.76715        0.961468 
        4.28831         8.69266        0.953012 
        4.30404         8.63077        0.944651 
        4.31974         8.54885        0.936411 
        4.33543         8.46962        0.928274 
        4.35116         8.42593        0.920216 
        4.36688         8.36854        0.912258 
        4.38255         8.29644        0.904425 
        4.39825         8.20944        0.896668 
        4.41398         8.18595        0.888988 
         4.4297         8.11732        0.881408 
        4.44541         8.03891        0.873918 
        4.46111          7.9965        0.866522 
        4.47683         7.91379        0.859208 
        4.49251         7.89016        0.851994 
        4.50819          7.8176        0.844866 
         4.5239         7.75612         0.83781 
        4.53962         7.69962        0.830827 
        4.55535         7.64092        0.823922 
        4.57106         7.58076        0.817106 
        4.58678         7.52509        0.810366 
         4.6025         7.46776        0.803702 
        4.61821         7.40238        0.797115 
        4.63391         7.35839        0.790612 
         4.6496         7.29999        0.784184 
        4.66532         7.26539         0.77782 
        4.68103         7.18265        0.771529 
        4.69673         7.14662        0.765315 
        4.71241         7.09656        0.759177 
        4.72811         7.02051        0.753096 
        4.74384         6.97984        0.747076 
        4.75955         6.91519        0.741131 
        4.77525         6.90332        0.735255 
        4.79096          6.8251        0.729436 
        4.80669         6.78621        0.723679 
         4.8224         6.74805        0.717991 
        4.83809         6.68515        0.712371 
        4.85379         6.62167        0.706808 
         4.8695         6.58618        0.701301 
        4.88521            6.54        0.695856 
        4.90093         6.48374        0.690469 
        4.91663         6.44787        0.685144 
        4.93234         6.40304        0.679871 
        4.94807         6.36332         0.67465 
        4.96377         6.31885        0.669495 
        4.97943         6.26639        0.664405 
        4.99514          6.2189        0.659356 
        5.01086         6.17355        0.654355 
        5.02654         6.13798        0.649421 
        5.04227         6.08161        0.644523 
          5.058         6.05048        0.639674 
        5.07371         5.99878        0.634885 
        5.08942         5.96223        0.630145 
        5.10513         5.92074        0.625454 
        5.12084         5.89597        0.620809 
        5.13656         5.84861        0.616213 
        5.15225         5.81562        0.611671 
        5.16796          5.7666        0.607169 
        5.18369         5.72188        0.602708 
         5.1994         5.68407        0.598301 
        5.21509         5.64868        0.593942 
        5.23079         5.61615        0.589623 
        5.24649         5.56464         0.58535 
        5.26217         5.53666        0.581123 
        5.27788         5.48279        0.576933 
        5.29359         5.45411        0.572783 
        5.30933         5.42577        0.568669 
        5.32504         5.38087        0.564603 
        5.34073          5.3436        0.560581 
        5.35646         5.29567        0.556592 
        5.37218         5.27038         0.55264 
        5.38789           5.236        0.548734 
        5.40357         5.19089        0.544871 
        5.41929         5.16296        0.541037 
        5.43502         5.13823        0.537239 
         5.4507         5.09055        0.533488 
        5.46639         5.05015        0.529773 
        5.48212         5.02092        0.526084 
        5.49786         4.99045        0.522427 
        5.51353         4.96381        0.518823 
        5.52921         4.92822         0.51525 
        5.54495         4.89263        0.511701 
        5.56066         4.86146        0.508189 
        5.57637         4.83162        0.504712 
        5.59207         4.79677         0.50127 
        5.60778         4.76773        0.497859 
        5.62346         4.73398        0.494486 
        5.63916         4.70686        0.491141 
        5.65487         4.66438        0.487825 
         5.6706         4.63499        0.484537 
        5.68633         4.61431        0.481278 
        5.70203         4.58006        0.478056 
        5.71773         4.56007        0.474865 
        5.73344         4.52962        0.471701 
        5.74916         4.49467        0.468564 
        5.76486         4.46509         0.46546 
        5.78054         4.43981        0.462389 
        5.79626         4.40914        0.459338 
          5.812         4.37956        0.456311 
         5.8277         4.35721        0.453321 
        5.84339         4.32449        0.450358 
        5.85911         4.30178        0.447417 
        5.87484         4.27379        0.444502 
        5.89053          4.2583         0.44162 
        5.90623         4.21348        0.438762 
        5.92195         4.19306        0.435924 
        5.93767         4.17322        0.433114 
        5.95336         4.14442        0.430334 
        5.96905         4.10933        0.427579 
        5.98476         4.08867        0.424845 
        6.00048         4.05895        0.422134 
        6.01617         4.04253         0.41945 
        6.03185         4.00746        0.416794 
        6.04756         4.00167        0.414154 
        6.06331         3.96085        0.411533 
        6.07903          3.9416        0.408939 
        6.09473         3.92151        0.406371 
        6.11044         3.89006        0.403822 
        6.12616          3.8719        0.401297 
        6.14186         3.84054        0.398795 
        6.15755         3.82392        0.396316 
        6.17326         3.80256        0.393855 
        6.18898         3.77457        0.391415 
        6.20467         3.75299           0.389 
        6.22036         3.73187        0.386606 
         6.2361         3.70329        0.384226 
         6.2518          3.6928         0.38187 
        6.26748         3.66386        0.379539 
        6.28319          3.6438        0.377222 
        6.29893         3.61453        0.374922 
        6.31463         3.59772        0.372645 
        6.33033         3.57973        0.370389 
        6.34604         3.54781        0.368149 
        6.36177         3.52759        0.365927 
        6.37747         3.51171        0.363727 
