# k  (h/Mpc)    Pcb(k)  (Mpc/h)^3    Pcb_linear(k) (Mpc/h)^3   ShotnoiseSubtracted = true
      0.0200456         6856.66         6965.81 
      0.0350414         5214.55         5102.78 
      0.0492313         3729.15         3745.64 
      0.0637834         3120.68         3216.64 
      0.0800726         2501.06         2593.24 
       0.096163         1916.97            1867 
       0.111083         1569.94         1506.79 
       0.126058         1349.43         1371.67 
       0.142273         1159.53         1168.51 
       0.158546          944.38         916.823 
        0.17375         825.886         781.566 
       0.188953         764.079         720.885 
       0.204907         653.531         640.689 
       0.220756         582.489         540.319 
        0.23588         516.985         473.605 
         0.2514         467.727         435.995 
       0.267535         449.356         396.539 
       0.283568         392.482         349.526 
       0.299022         370.685          313.04 
       0.314451         364.878         288.712 
       0.330372         317.454         266.207 
       0.346141         294.504         241.966 
       0.361624         278.973         220.754 
       0.377134         256.716         204.411 
       0.392932         251.123         190.044 
       0.408854         237.318         175.638 
       0.424564         227.447         162.395 
       0.440253         206.073         151.261 
       0.455999         194.642         141.516 
       0.471626         190.322         132.361 
        0.48727         183.527         123.771 
       0.502856         168.095         116.118 
       0.518488         166.088         109.285 
       0.534347         155.702         102.858 
       0.550082         152.153         96.8995 
       0.565732         149.242         91.4596 
       0.581496         138.198         86.4762 
       0.597222         135.059          81.878 
       0.612804         131.081         77.6294 
       0.628434         127.511         73.6628 
       0.644267         121.241         69.9515 
       0.660051         117.479         66.5213 
       0.675724         115.604         63.3441 
       0.691403         113.145         60.3738 
       0.707174         109.443         57.5794 
       0.722871          107.22         54.9751 
        0.73838         104.284         52.5619 
       0.754018         98.3404         50.2772 
       0.769845         97.8298         48.1053 
        0.78569         94.9681         46.0617 
       0.801365         92.3011         44.1592 
       0.817031         89.2543         42.3675 
       0.832809          87.865          40.666 
       0.848511         85.7557         39.0676 
       0.864097         84.3992         37.5679 
       0.879701         82.8417         36.1472 
       0.895507         79.7947         34.7846 
       0.911279         78.7881         33.4965 
        0.92691         76.3937         32.2856 
       0.942635          74.955         31.1291 
       0.958396         74.6448         30.0279 
       0.974128         72.8698          28.983 
       0.989692         71.2372         27.9991 
        1.00528         69.9199         27.0602 
        1.02113         68.4496         26.1505 
        1.03692         68.1284         25.2868 
        1.05264         66.7401         24.4667 
        1.06832         64.9248          23.685 
        1.08405         64.0197          22.936 
        1.09979         63.6803         22.2195 
        1.11537          61.988         21.5413 
        1.13105         60.5504         20.8879 
        1.14679         59.9037         20.2596 
        1.16256         59.0514         19.6564 
        1.17828         58.3128         19.0801 
        1.19395         56.9049         18.5294 
         1.2097         56.8839          17.998 
        1.22537         55.6295         17.4903 
          1.241         54.8237         17.0042 
        1.25666         53.6818         16.5357 
        1.27241         53.4979         16.0829 
        1.28819         52.2683         15.6466 
        1.30392         51.7953         15.2281 
        1.31957         51.2937          14.827 
        1.33529         50.3804         14.4392 
        1.35108         49.4943         14.0639 
        1.36674         49.0115         13.7049 
         1.3824         48.2399          13.359 
        1.39811         47.4342         13.0241 
        1.41389         46.8641         12.6996 
        1.42964         46.4712         12.3869 
        1.44531         45.4712         12.0864 
        1.46101         45.2665         11.7954 
        1.47667         44.6919          11.515 
        1.49229         43.9953         11.2447 
        1.50793         43.4647         10.9829 
        1.52367         42.8613         10.7278 
        1.53953         42.5804         10.4793 
        1.55526         41.9616         10.2408 
        1.57092         41.4657         10.0108 
        1.58662         40.8247         9.78749 
        1.60235         40.3826         9.57064 
        1.61809         39.9092         9.36036 
        1.63369         39.4695         9.15837 
        1.64941         38.9857           8.961 
        1.66519         38.3622         8.76882 
        1.68085         37.8937         8.58375 
        1.69652         37.4972         8.40404 
        1.71228         37.2645         8.22855 
        1.72806         36.6613         8.05801 
        1.74368         36.2331          7.8941 
        1.75933         35.9492         7.73449 
        1.77505         35.6768         7.57862 
        1.79081         35.1915         7.42685 
         1.8065         34.6285         7.27994 
        1.82218         34.2422          7.1372 
        1.83797         34.0459         6.99738 
        1.85367          33.538         6.86213 
        1.86928         33.5575         6.73133 
        1.88497         32.8057         6.60328 
        1.90073         32.5921         6.47814 
        1.91647         32.3184         6.35641 
        1.93218         32.2594         6.23811 
        1.94787         31.7823         6.12305 
        1.96363         31.3119         6.01048 
        1.97935         30.9601         5.90102 
        1.99499         30.7685         5.79494 
        2.01064          30.289         5.69136 
         2.0264         30.0224          5.5897 
        2.04216         29.8809         5.49062 
        2.05781         29.5358          5.3946 
        2.07353          29.241         5.30056 
        2.08928         28.7897          5.2086 
        2.10499         28.6421         5.11911 
        2.12065         28.2884         5.03201 
        2.13633         28.0929          4.9469 
        2.15211         27.6188         4.86324 
        2.16785         27.5476         4.78178 
        2.18349         27.2076         4.70272 
        2.19916         26.9487         4.62531 
        2.21489         26.6679         4.54941 
        2.23063         26.5371          4.4752 
         2.2463            26.2         4.40299 
        2.26194         25.9504         4.33259 
        2.27765         25.6192         4.26338 
        2.29341         25.4157         4.19553 
        2.30914          25.156         4.12932 
        2.32486         24.9855          4.0646 
        2.34061         24.7794         4.00117 
        2.35635          24.388         3.93918 
        2.37203         24.2754         3.87874 
        2.38768         24.0666          3.8197 
        2.40339         23.9223         3.76171 
        2.41914         23.5945         3.70479 
        2.43483         23.4476         3.64928 
         2.4505         23.0717         3.59501 
        2.46622          22.954         3.54167 
        2.48195         22.7051         3.48943 
        2.49759         22.3811         3.43854 
        2.51328         22.3195         3.38855 
        2.52906         22.1724         3.33925 
        2.54479         21.8976         3.29112 
        2.56049         21.7588         3.24406 
        2.57618         21.6467         3.19796 
        2.59189         21.2457         3.15271 
        2.60758         21.0984         3.10842 
        2.62325          20.912         3.06504 
        2.63898         20.7633         3.02236 
        2.65468         20.5513         2.98058 
        2.67044         20.3141         2.93943 
        2.68618         20.2043         2.89917 
        2.70184         19.9709         2.85982 
        2.71755         19.8016         2.82113 
        2.73329         19.6241         2.78309 
        2.74897         19.4897          2.7459 
        2.76462         19.3087         2.70947 
        2.78034         19.0555         2.67357 
        2.79607         18.9436         2.63829 
        2.81179          18.758         2.60369 
        2.82749         18.5857         2.56977 
        2.84321          18.473         2.53641 
        2.85893          18.193         2.50367 
        2.87462         18.1482         2.47157 
        2.89033          17.958         2.44001 
        2.90605          17.792         2.40899 
        2.92176         17.6149         2.37853 
        2.93747         17.4479         2.34861 
        2.95318          17.362         2.31921 
        2.96891         17.1817         2.29031 
        2.98456         17.0648         2.26204 
        3.00023          16.872         2.23421 
        3.01596         16.7563         2.20677 
        3.03164          16.578         2.17987 
        3.04738         16.4612         2.15335 
         3.0631         16.3199         2.12729 
        3.07883         16.2111         2.10166 
        3.09456         16.0673         2.07647 
        3.11026         15.9493         2.05173 
        3.12596         15.7806          2.0274 
        3.14163         15.6218         2.00353 
        3.15734         15.4821            1.98 
        3.17308         15.4098         1.95679 
        3.18879         15.2107         1.93402 
        3.20447         15.1419         1.91165 
         3.2202         14.9987         1.88957 
         3.2359         14.8631         1.86789 
        3.25157         14.7918          1.8466 
        3.26729         14.5965         1.82558 
        3.28304         14.4995         1.80486 
        3.29877         14.4236         1.78448 
        3.31446         14.2766         1.76447 
        3.33014         14.1788         1.74479 
        3.34585              14         1.72539 
        3.36158         13.9049         1.70625 
        3.37727         13.8261         1.68747 
        3.39294         13.7094         1.66899 
        3.40867          13.546         1.65073 
        3.42439         13.4388         1.63275 
        3.44008         13.3829         1.61508 
        3.45578         13.1933         1.59766 
        3.47153         13.1361         1.58046 
        3.48724         13.0628         1.56355 
        3.50292          12.944         1.54694 
        3.51859         12.8167         1.53057 
        3.53431         12.6721         1.51439 
        3.55007         12.6199         1.49841 
        3.56577         12.4814         1.48273 
        3.58146         12.3575         1.46728 
        3.59719         12.2815         1.45202 
        3.61292         12.2127         1.43698 
        3.62859         12.0933         1.42222 
        3.64429         11.9948         1.40764 
        3.66003         11.8987         1.39322 
        3.67578         11.7887         1.37901 
        3.69146         11.7333         1.36506 
        3.70712         11.6149         1.35132 
        3.72284         11.5328         1.33773 
        3.73853         11.4344         1.32435 
        3.75422         11.3394         1.31115 
        3.76993         11.2185         1.29812 
        3.78564         11.1583         1.28528 
        3.80137         11.0687         1.27259 
        3.81707         10.9772          1.2601 
        3.83279         10.8768         1.24778 
        3.84853         10.8309          1.2356 
        3.86424         10.7178          1.2236 
        3.87992         10.6642         1.21179 
        3.89561         10.5532         1.20013 
        3.91134          10.467         1.18861 
        3.92704         10.3786         1.17725 
        3.94273         10.2954         1.16606 
        3.95845         10.2339         1.15499 
        3.97418         10.1421         1.14406 
        3.98988         10.0905          1.1333 
        4.00554         10.0092          1.1227 
        4.02125         9.93044         1.11221 
        4.03698          9.8501         1.10184 
        4.05268         9.75874         1.09163 
        4.06839         9.65525         1.08154 
         4.0841         9.58846         1.07158 
        4.09983         9.54104         1.06173 
        4.11555         9.42487         1.05202 
        4.13124         9.36985         1.04245 
        4.14693         9.29098           1.033 
        4.16266         9.23282         1.02365 
        4.17839         9.15002         1.01441 
        4.19408         9.10574         1.00532 
        4.20977         8.98196        0.996331 
        4.22551         8.94299        0.987434 
        4.24123          8.9109        0.978656 
        4.25691         8.82637         0.97001 
        4.27259         8.73242        0.961468 
        4.28831         8.67395        0.953012 
        4.30404         8.63163        0.944651 
        4.31974         8.54351        0.936411 
        4.33543         8.49355        0.928274 
        4.35116         8.39192        0.920216 
        4.36688         8.35119        0.912258 
        4.38255         8.29378        0.904425 
        4.39825         8.20834        0.896668 
        4.41398         8.16037        0.888988 
         4.4297         8.10332        0.881408 
        4.44541         8.04528        0.873918 
        4.46111         7.99173        0.866522 
        4.47683          7.9147        0.859208 
        4.49251         7.86905        0.851994 
        4.50819         7.80123        0.844866 
         4.5239         7.73071         0.83781 
        4.53962         7.67869        0.830827 
        4.55535         7.62656        0.823922 
        4.57106         7.56822        0.817106 
        4.58678         7.51661        0.810366 
         4.6025          7.4538        0.803702 
        4.61821         7.41022        0.797115 
        4.63391         7.34805        0.790612 
         4.6496         7.29846        0.784184 
        4.66532         7.24395         0.77782 
        4.68103         7.18697        0.771529 
        4.69673         7.12919        0.765315 
        4.71241         7.08984        0.759177 
        4.72811         7.04481        0.753096 
        4.74384         6.99939        0.747076 
        4.75955         6.93295        0.741131 
        4.77525         6.87941        0.735255 
        4.79096         6.83669        0.729436 
        4.80669         6.77632        0.723679 
         4.8224         6.73755        0.717991 
        4.83809          6.6817        0.712371 
        4.85379         6.62314        0.706808 
         4.8695         6.59182        0.701301 
        4.88521            6.55        0.695856 
        4.90093         6.49796        0.690469 
        4.91663         6.44211        0.685144 
        4.93234         6.41117        0.679871 
        4.94807         6.35246         0.67465 
        4.96377         6.31137        0.669495 
        4.97943         6.26494        0.664405 
        4.99514         6.22175        0.659356 
        5.01086         6.19033        0.654355 
        5.02654         6.14424        0.649421 
        5.04227         6.09291        0.644523 
          5.058         6.04027        0.639674 
        5.07371         6.00257        0.634885 
        5.08942         5.96331        0.630145 
        5.10513         5.93217        0.625454 
        5.12084         5.88929        0.620809 
        5.13656         5.83398        0.616213 
        5.15225         5.80083        0.611671 
        5.16796         5.76057        0.607169 
        5.18369         5.71749        0.602708 
         5.1994         5.67472        0.598301 
        5.21509         5.64013        0.593942 
        5.23079         5.60644        0.589623 
        5.24649         5.56792         0.58535 
        5.26217         5.53428        0.581123 
        5.27788          5.4855        0.576933 
        5.29359         5.44966        0.572783 
        5.30933         5.41811        0.568669 
        5.32504         5.37938        0.564603 
        5.34073         5.34907        0.560581 
        5.35646         5.30252        0.556592 
        5.37218         5.25182         0.55264 
        5.38789         5.22712        0.548734 
        5.40357         5.19613        0.544871 
        5.41929         5.15802        0.541037 
        5.43502         5.11522        0.537239 
         5.4507         5.10079        0.533488 
        5.46639         5.05456        0.529773 
        5.48212         5.02673        0.526084 
        5.49786         4.98927        0.522427 
        5.51353         4.96389        0.518823 
        5.52921         4.93352         0.51525 
        5.54495         4.88944        0.511701 
        5.56066         4.85239        0.508189 
        5.57637         4.82519        0.504712 
        5.59207         4.80167         0.50127 
        5.60778          4.7641        0.497859 
        5.62346         4.72909        0.494486 
        5.63916         4.69055        0.491141 
        5.65487         4.67203        0.487825 
         5.6706         4.65241        0.484537 
        5.68633         4.61993        0.481278 
        5.70203         4.57864        0.478056 
        5.71773         4.54924        0.474865 
        5.73344         4.51815        0.471701 
        5.74916         4.49795        0.468564 
        5.76486         4.45817         0.46546 
        5.78054         4.44975        0.462389 
        5.79626         4.40545        0.459338 
          5.812         4.37985        0.456311 
         5.8277         4.35691        0.453321 
        5.84339         4.32443        0.450358 
        5.85911         4.29298        0.447417 
        5.87484         4.27606        0.444502 
        5.89053         4.24466         0.44162 
        5.90623         4.22377        0.438762 
        5.92195         4.18885        0.435924 
        5.93767         4.16258        0.433114 
        5.95336         4.14372        0.430334 
        5.96905         4.11048        0.427579 
        5.98476         4.09559        0.424845 
        6.00048         4.05782        0.422134 
        6.01617          4.0381         0.41945 
        6.03185         4.01756        0.416794 
        6.04756         3.97972        0.414154 
        6.06331         3.96098        0.411533 
        6.07903         3.93569        0.408939 
        6.09473          3.9155        0.406371 
        6.11044         3.89192        0.403822 
        6.12616         3.86926        0.401297 
        6.14186         3.84283        0.398795 
        6.15755         3.81163        0.396316 
        6.17326         3.79951        0.393855 
        6.18898         3.77191        0.391415 
        6.20467         3.74676           0.389 
        6.22036         3.72778        0.386606 
         6.2361         3.70607        0.384226 
         6.2518         3.68865         0.38187 
        6.26748         3.65692        0.379539 
        6.28319         3.63178        0.377222 
        6.29893         3.61825        0.374922 
        6.31463         3.58973        0.372645 
        6.33033         3.57725        0.370389 
        6.34604          3.5542        0.368149 
        6.36177         3.53636        0.365927 
        6.37747         3.50945        0.363727 
