# k  (h/Mpc)    Pcb(k)  (Mpc/h)^3    Pcb_linear(k) (Mpc/h)^3   ShotnoiseSubtracted = true
      0.0200456         14608.9         14949.9 
      0.0350414         10547.6         10951.5 
      0.0492313         7916.93         8038.82 
      0.0637834         6994.64         6903.48 
      0.0800726         5605.23         5565.56 
       0.096163         3884.88         4006.91 
       0.111083         3126.21         3233.84 
       0.126058         2942.43         2943.86 
       0.142273         2552.51         2507.82 
       0.158546         2168.45         1967.67 
        0.17375         1748.33         1677.38 
       0.188953          1714.5         1547.15 
       0.204907         1617.52         1375.03 
       0.220756         1388.44         1159.62 
        0.23588         1233.03         1016.44 
         0.2514         1079.58         935.723 
       0.267535         1069.79         851.044 
       0.283568         972.787         750.146 
       0.299022         914.126          671.84 
       0.314451         869.889         619.628 
       0.330372         803.095         571.327 
       0.346141         744.627         519.302 
       0.361624         717.255         473.778 
       0.377134         667.414         438.704 
       0.392932         642.418         407.868 
       0.408854         621.442         376.951 
       0.424564         585.138          348.53 
       0.440253         573.133         324.634 
       0.455999         542.504         303.719 
       0.471626         514.007          284.07 
        0.48727         498.462         265.634 
       0.502856         484.216          249.21 
       0.518488         479.692         234.545 
       0.534347         448.602         220.752 
       0.550082         429.063         207.964 
       0.565732         429.076         196.289 
       0.581496         404.565         185.593 
       0.597222         398.093         175.725 
       0.612804         386.204         166.607 
       0.628434         372.584         158.094 
       0.644267         362.307         150.128 
       0.660051         354.105         142.767 
       0.675724         349.861         135.948 
       0.691403         339.337         129.573 
       0.707174         327.357         123.576 
       0.722871         323.626         117.986 
        0.73838         318.992         112.807 
       0.754018         309.721         107.904 
       0.769845         299.809         103.243 
        0.78569         299.769         98.8567 
       0.801365         289.964         94.7735 
       0.817031          281.39         90.9283 
       0.832809         278.729         87.2766 
       0.848511         271.423         83.8461 
       0.864097         267.721         80.6275 
       0.879701         263.368         77.5783 
       0.895507         257.122         74.6539 
       0.911279          249.33         71.8894 
        0.92691         249.341         69.2907 
       0.942635         243.468         66.8086 
       0.958396         240.828         64.4452 
       0.974128         235.747         62.2026 
       0.989692          230.73          60.091 
        1.00528          227.93         58.0761 
        1.02113         226.001         56.1237 
        1.03692          219.96         54.2699 
        1.05264         215.744         52.5099 
        1.06832         212.015         50.8322 
        1.08405         208.482         49.2247 
        1.09979         206.633          47.687 
        1.11537         201.547         46.2316 
        1.13105         198.453         44.8292 
        1.14679         198.457         43.4807 
        1.16256          194.58         42.1861 
        1.17828         190.421         40.9494 
        1.19395         187.857         39.7674 
         1.2097         187.002         38.6269 
        1.22537          182.69         37.5374 
          1.241         180.939         36.4941 
        1.25666         177.548         35.4885 
        1.27241          174.67         34.5167 
        1.28819         172.835         33.5804 
        1.30392         170.197         32.6822 
        1.31957         169.266         31.8214 
        1.33529         164.718          30.989 
        1.35108         163.376         30.1837 
        1.36674         162.097         29.4132 
         1.3824         158.782         28.6708 
        1.39811         158.772          27.952 
        1.41389         155.146         27.2555 
        1.42964         152.115         26.5844 
        1.44531         150.025         25.9395 
        1.46101         148.649          25.315 
        1.47667         145.955         24.7133 
        1.49229         144.416         24.1331 
        1.50793         143.219         23.5712 
        1.52367         141.493         23.0239 
        1.53953         138.562         22.4905 
        1.55526         137.082         21.9786 
        1.57092         135.424         21.4851 
        1.58662         133.286         21.0057 
        1.60235         132.281         20.5403 
        1.61809         130.198          20.089 
        1.63369          128.63         19.6555 
        1.64941         127.108         19.2319 
        1.66519         125.085         18.8195 
        1.68085         124.156         18.4223 
        1.69652         120.996         18.0366 
        1.71228         121.205         17.6599 
        1.72806         119.363         17.2939 
        1.74368         118.149         16.9422 
        1.75933         116.288         16.5996 
        1.77505         114.899         16.2651 
        1.79081         113.588         15.9393 
         1.8065          112.17         15.6241 
        1.82218         110.167         15.3177 
        1.83797         108.669         15.0176 
        1.85367         107.668         14.7274 
        1.86928         106.662         14.4466 
        1.88497         104.446         14.1718 
        1.90073         104.271         13.9032 
        1.91647         102.431          13.642 
        1.93218         101.387         13.3881 
        1.94787         100.246         13.1412 
        1.96363         98.8594         12.8996 
        1.97935         97.3572         12.6646 
        1.99499         96.5482          12.437 
        2.01064         95.3942         12.2147 
         2.0264         93.8288         11.9965 
        2.04216         92.9623         11.7838 
        2.05781         91.8722         11.5778 
        2.07353         90.3268          11.376 
        2.08928         89.2797         11.1786 
        2.10499         88.1972         10.9865 
        2.12065         87.8518         10.7996 
        2.13633         86.6142         10.6169 
        2.15211         85.4823         10.4374 
        2.16785         84.1872         10.2625 
        2.18349         83.1032         10.0929 
        2.19916         82.4839         9.92674 
        2.21489         81.3509         9.76386 
        2.23063         80.3869         9.60457 
         2.2463         79.5893         9.44961 
        2.26194         79.1097          9.2985 
        2.27765         77.7105         9.14998 
        2.29341         76.7468         9.00436 
        2.30914          75.641         8.86226 
        2.32486          74.938         8.72335 
        2.34061         74.0834         8.58724 
        2.35635         73.3576         8.45419 
        2.37203         72.0997         8.32446 
        2.38768         71.5183         8.19777 
        2.40339         70.6388         8.07329 
        2.41914         69.9003         7.95115 
        2.43483         69.5422           7.832 
         2.4505         68.3832         7.71553 
        2.46622         67.6354         7.60107 
        2.48195         66.8023         7.48895 
        2.49759         65.8722         7.37973 
        2.51328         65.3997         7.27243 
        2.52906         64.7673         7.16662 
        2.54479         63.8794         7.06334 
        2.56049         63.0646         6.96233 
        2.57618          62.553          6.8634 
        2.59189          61.699         6.76628 
        2.60758         61.2218         6.67122 
        2.62325         60.5681         6.57813 
        2.63898         59.8462         6.48652 
        2.65468          59.313         6.39686 
        2.67044         58.4526         6.30855 
        2.68618         58.2434         6.22213 
        2.70184          57.277         6.13769 
        2.71755          57.089         6.05464 
        2.73329         55.8944         5.97302 
        2.74897           55.43         5.89319 
        2.76462         54.9282         5.81502 
        2.78034         54.3795         5.73796 
        2.79607         53.5456         5.66224 
        2.81179           53.06         5.58799 
        2.82749         52.4264         5.51518 
        2.84321         52.0645          5.4436 
        2.85893         51.3353         5.37333 
        2.87462         50.6838         5.30444 
        2.89033         50.2631         5.23671 
        2.90605         49.6573         5.17012 
        2.92176          49.188         5.10474 
        2.93747         48.6858         5.04054 
        2.95318         48.0457         4.97745 
        2.96891         47.3676         4.91542 
        2.98456         47.2861         4.85474 
        3.00023         46.6449         4.79502 
        3.01596         46.3439         4.73612 
        3.03164         45.5593          4.6784 
        3.04738         45.3936         4.62148 
         3.0631          44.776         4.56554 
        3.07883         44.3974         4.51054 
        3.09456         43.9504         4.45647 
        3.11026         43.2988         4.40338 
        3.12596         43.0359         4.35117 
        3.14163         42.5128         4.29994 
        3.15734          41.862         4.24943 
        3.17308         41.7478         4.19962 
        3.18879         41.3855         4.15075 
        3.20447         40.7243         4.10275 
         3.2202         40.3208         4.05537 
         3.2359         39.9646         4.00882 
        3.25157         39.5047         3.96313 
        3.26729          39.223         3.91803 
        3.28304         38.6733         3.87355 
        3.29877         38.4182         3.82982 
        3.31446         38.0929         3.78688 
        3.33014         37.6992         3.74464 
        3.34585         37.2849         3.70299 
        3.36158         36.9519         3.66192 
        3.37727         36.5377         3.62161 
        3.39294         36.2015         3.58195 
        3.40867         35.7946         3.54276 
        3.42439         35.4178         3.50417 
        3.44008         35.3707         3.46625 
        3.45578         34.7484         3.42887 
        3.47153         34.4547         3.39196 
        3.48724         34.1372         3.35567 
        3.50292         33.8661            3.32 
        3.51859         33.4457         3.28487 
        3.53431         33.1969         3.25015 
        3.55007         32.9069         3.21586 
        3.56577         32.6092          3.1822 
        3.58146         32.2761         3.14904 
        3.59719         31.9617         3.11629 
        3.61292         31.7252         3.08402 
        3.62859         31.3159         3.05234 
        3.64429         30.9624         3.02104 
        3.66003         30.7754          2.9901 
        3.67578         30.4739          2.9596 
        3.69146         30.2562         2.92965 
        3.70712         29.8907         2.90018 
        3.72284         29.7361         2.87101 
        3.73853         29.4135         2.84229 
        3.75422         29.0816         2.81396 
        3.76993          28.946         2.78601 
        3.78564         28.6819         2.75844 
        3.80137         28.4022         2.73121 
        3.81707         28.0929         2.70441 
        3.83279         27.9206         2.67795 
        3.84853         27.5746         2.65181 
        3.86424         27.3078         2.62607 
        3.87992         27.0555         2.60072 
        3.89561         26.7586          2.5757 
        3.91134         26.6114         2.55097 
        3.92704         26.3597          2.5266 
        3.94273         26.1179         2.50257 
        3.95845         25.8371         2.47881 
        3.97418         25.7002         2.45537 
        3.98988         25.3536         2.43226 
        4.00554         25.1759         2.40951 
        4.02125         25.0254           2.387 
        4.03698         24.7024         2.36474 
        4.05268         24.5652         2.34282 
        4.06839         24.2895         2.32117 
         4.0841         24.1161          2.2998 
        4.09983         23.9246         2.27867 
        4.11555         23.7152         2.25782 
        4.13124         23.4384         2.23729 
        4.14693         23.2294         2.21701 
        4.16266         23.0356         2.19693 
        4.17839         22.8474         2.17711 
        4.19408         22.6266         2.15759 
        4.20977          22.489         2.13831 
        4.22551         22.2185         2.11921 
        4.24123         22.0509         2.10037 
        4.25691         21.8621         2.08182 
        4.27259         21.6902         2.06348 
        4.28831         21.5228         2.04533 
        4.30404         21.2987         2.02739 
        4.31974         21.1874          2.0097 
        4.33543         20.9735         1.99224 
        4.35116         20.8431         1.97495 
        4.36688          20.652         1.95787 
        4.38255         20.4835         1.94106 
        4.39825         20.3199         1.92441 
        4.41398         20.1144         1.90793 
         4.4297         19.9535         1.89166 
        4.44541         19.8117         1.87558 
        4.46111         19.6072         1.85971 
        4.47683         19.4643         1.84401 
        4.49251         19.3134         1.82853 
        4.50819         19.1391         1.81323 
         4.5239         18.9972         1.79809 
        4.53962         18.8132          1.7831 
        4.55535         18.6914         1.76828 
        4.57106         18.5208         1.75365 
        4.58678         18.3822         1.73919 
         4.6025         18.2308         1.72489 
        4.61821         18.1077         1.71075 
        4.63391         17.9438         1.69679 
         4.6496         17.7944           1.683 
        4.66532         17.6335         1.66934 
        4.68103         17.4736         1.65584 
        4.69673         17.3978          1.6425 
        4.71241         17.2678         1.62933 
        4.72811         17.0614         1.61628 
        4.74384         16.9519         1.60336 
        4.75955         16.8319          1.5906 
        4.77525          16.697         1.57799 
        4.79096         16.5503          1.5655 
        4.80669         16.4695         1.55314 
         4.8224         16.2872         1.54094 
        4.83809         16.1292         1.52887 
        4.85379         16.0165         1.51694 
         4.8695          15.959         1.50512 
        4.88521         15.7842         1.49343 
        4.90093          15.701         1.48187 
        4.91663         15.5462         1.47044 
        4.93234         15.4294         1.45912 
        4.94807         15.3183         1.44792 
        4.96377          15.164         1.43686 
        4.97943          15.072         1.42593 
        4.99514         14.9479         1.41509 
        5.01086         14.8399         1.40436 
        5.02654         14.7404         1.39377 
        5.04227         14.6208         1.38326 
          5.058         14.5055         1.37285 
        5.07371          14.411         1.36258 
        5.08942         14.2643          1.3524 
        5.10513         14.1809         1.34234 
        5.12084         14.0715         1.33237 
        5.13656         13.9395          1.3225 
        5.15225         13.8479         1.31276 
        5.16796         13.7521         1.30309 
        5.18369         13.6383         1.29352 
         5.1994         13.5708         1.28406 
        5.21509         13.4371         1.27471 
        5.23079         13.3439         1.26544 
        5.24649          13.244         1.25627 
        5.26217         13.1462         1.24719 
        5.27788           13.03          1.2382 
        5.29359          12.969          1.2293 
        5.30933         12.8423         1.22047 
        5.32504         12.7844         1.21174 
        5.34073         12.6741         1.20311 
        5.35646         12.5871         1.19454 
        5.37218         12.5033         1.18606 
        5.38789         12.4083         1.17768 
        5.40357         12.3139         1.16939 
        5.41929         12.2159         1.16116 
        5.43502         12.1311         1.15301 
         5.4507          12.034         1.14496 
        5.46639         11.9482         1.13699 
        5.48212         11.8786         1.12907 
        5.49786         11.7872         1.12122 
        5.51353         11.7094         1.11349 
        5.52921         11.6195         1.10582 
        5.54495         11.5306          1.0982 
        5.56066          11.445         1.09067 
        5.57637         11.3537          1.0832 
        5.59207         11.2939         1.07582 
        5.60778         11.2096          1.0685 
        5.62346         11.1369         1.06126 
        5.63916         11.0447         1.05408 
        5.65487         10.9593         1.04696 
         5.6706         10.9036          1.0399 
        5.68633         10.8152         1.03291 
        5.70203         10.7316         1.02599 
        5.71773         10.6601         1.01914 
        5.73344         10.5923         1.01236 
        5.74916         10.5056         1.00562 
        5.76486         10.4258         0.99896 
        5.78054         10.3449         0.99237 
        5.79626          10.292        0.985821 
          5.812         10.2284        0.979326 
         5.8277         10.1462        0.972909 
        5.84339         10.0956         0.96655 
        5.85911         10.0044        0.960236 
        5.87484           9.934        0.953981 
        5.89053         9.86123        0.947795 
        5.90623         9.79395        0.941661 
        5.92195         9.73157        0.935572 
        5.93767         9.67431         0.92954 
        5.95336         9.60666        0.923573 
        5.96905         9.54746        0.917661 
        5.98476          9.4814        0.911792 
        6.00048         9.40527        0.905974 
        6.01617         9.34821        0.900216 
        6.03185         9.27774        0.894514 
        6.04756         9.22013         0.88885 
        6.06331         9.16702        0.883223 
        6.07903         9.09374        0.877657 
        6.09473         9.05693        0.872144 
        6.11044         8.96848        0.866675 
        6.12616         8.91528        0.861254 
        6.14186         8.84574        0.855886 
        6.15755          8.8041        0.850564 
        6.17326         8.75543        0.845284 
        6.18898         8.67596        0.840047 
        6.20467         8.63293        0.834864 
        6.22036         8.56112        0.829726 
         6.2361         8.49807        0.824618 
         6.2518         8.45355        0.819562 
        6.26748         8.39795        0.814559 
        6.28319         8.35348        0.809586 
        6.29893         8.29227         0.80465 
        6.31463         8.22378        0.799764 
        6.33033         8.18882        0.794921 
        6.34604         8.14558        0.790115 
        6.36177         8.06774        0.785344 
        6.37747         8.02867        0.780623 
