# k  (h/Mpc)    Pcb(k)  (Mpc/h)^3    Pcb_linear(k) (Mpc/h)^3   ShotnoiseSubtracted = true
      0.0200456         14684.7         14949.9 
      0.0350414         11250.5         10951.5 
      0.0492313         7917.75         8038.82 
      0.0637834         6584.54         6903.48 
      0.0800726         5256.06         5565.56 
       0.096163         4127.79         4006.91 
       0.111083         3393.35         3233.84 
       0.126058         2869.61         2943.86 
       0.142273         2500.02         2507.82 
       0.158546         2049.15         1967.67 
        0.17375         1819.56         1677.38 
       0.188953         1713.88         1547.15 
       0.204907         1474.17         1375.03 
       0.220756         1326.29         1159.62 
        0.23588         1185.41         1016.44 
         0.2514         1070.24         935.723 
       0.267535         1041.18         851.044 
       0.283568         917.391         750.146 
       0.299022         878.323          671.84 
       0.314451         901.874         619.628 
       0.330372         782.152         571.327 
       0.346141         724.185         519.302 
       0.361624         695.235         473.778 
       0.377134         658.561         438.704 
       0.392932         637.095         407.868 
       0.408854          607.76         376.951 
       0.424564          590.69          348.53 
       0.440253         539.968         324.634 
       0.455999         517.958         303.719 
       0.471626         526.088          284.07 
        0.48727         498.345         265.634 
       0.502856         463.608          249.21 
       0.518488         462.528         234.545 
       0.534347         432.743         220.752 
       0.550082         417.706         207.964 
       0.565732         415.439         196.289 
       0.581496         402.419         185.593 
       0.597222         390.965         175.725 
       0.612804         382.203         166.607 
       0.628434         367.084         158.094 
       0.644267         353.278         150.128 
       0.660051         348.369         142.767 
       0.675724         344.006         135.948 
       0.691403         335.169         129.573 
       0.707174         322.911         123.576 
       0.722871         318.282         117.986 
        0.73838         314.867         112.807 
       0.754018         302.072         107.904 
       0.769845         300.625         103.243 
        0.78569         294.311         98.8567 
       0.801365         286.335         94.7735 
       0.817031         280.881         90.9283 
       0.832809         277.024         87.2766 
       0.848511          270.09         83.8461 
       0.864097         264.014         80.6275 
       0.879701         262.491         77.5783 
       0.895507         255.851         74.6539 
       0.911279         248.815         71.8894 
        0.92691         246.844         69.2907 
       0.942635         244.856         66.8086 
       0.958396         238.544         64.4452 
       0.974128          234.55         62.2026 
       0.989692         227.096          60.091 
        1.00528          226.19         58.0761 
        1.02113         222.709         56.1237 
        1.03692         217.919         54.2699 
        1.05264         214.892         52.5099 
        1.06832         214.089         50.8322 
        1.08405          208.09         49.2247 
        1.09979         207.088          47.687 
        1.11537         202.577         46.2316 
        1.13105         199.375         44.8292 
        1.14679         197.325         43.4807 
        1.16256         194.527         42.1861 
        1.17828         192.163         40.9494 
        1.19395         187.032         39.7674 
         1.2097         186.525         38.6269 
        1.22537         184.925         37.5374 
          1.241         180.689         36.4941 
        1.25666         177.827         35.4885 
        1.27241         173.865         34.5167 
        1.28819         172.474         33.5804 
        1.30392         169.639         32.6822 
        1.31957         166.357         31.8214 
        1.33529         164.686          30.989 
        1.35108          162.49         30.1837 
        1.36674         160.007         29.4132 
         1.3824         159.035         28.6708 
        1.39811         155.135          27.952 
        1.41389         153.539         27.2555 
        1.42964         151.058         26.5844 
        1.44531         149.575         25.9395 
        1.46101         146.671          25.315 
        1.47667         146.197         24.7133 
        1.49229         143.902         24.1331 
        1.50793         141.343         23.5712 
        1.52367         139.839         23.0239 
        1.53953         137.515         22.4905 
        1.55526         136.744         21.9786 
        1.57092           134.8         21.4851 
        1.58662         132.407         21.0057 
        1.60235          130.54         20.5403 
        1.61809         129.401          20.089 
        1.63369          127.41         19.6555 
        1.64941         126.728         19.2319 
        1.66519         124.364         18.8195 
        1.68085         122.626         18.4223 
        1.69652         121.299         18.0366 
        1.71228          120.32         17.6599 
        1.72806         118.438         17.2939 
        1.74368         116.624         16.9422 
        1.75933         115.739         16.5996 
        1.77505         113.548         16.2651 
        1.79081         112.452         15.9393 
         1.8065         110.644         15.6241 
        1.82218         109.404         15.3177 
        1.83797         109.041         15.0176 
        1.85367         106.575         14.7274 
        1.86928         106.264         14.4466 
        1.88497          104.58         14.1718 
        1.90073         103.737         13.9032 
        1.91647         101.844          13.642 
        1.93218         100.562         13.3881 
        1.94787         99.3711         13.1412 
        1.96363         98.4171         12.8996 
        1.97935         97.5562         12.6646 
        1.99499         96.4389          12.437 
        2.01064          94.549         12.2147 
         2.0264          93.633         11.9965 
        2.04216         92.2587         11.7838 
        2.05781         91.5578         11.5778 
        2.07353         90.3094          11.376 
        2.08928         89.1165         11.1786 
        2.10499         88.0006         10.9865 
        2.12065         87.6176         10.7996 
        2.13633         86.5049         10.6169 
        2.15211         85.1206         10.4374 
        2.16785           83.92         10.2625 
        2.18349         82.8444         10.0929 
        2.19916          82.135         9.92674 
        2.21489         80.9159         9.76386 
        2.23063          80.157         9.60457 
         2.2463         79.5245         9.44961 
        2.26194         78.4063          9.2985 
        2.27765         77.4197         9.14998 
        2.29341         76.5626         9.00436 
        2.30914         75.6809         8.86226 
        2.32486         74.0484         8.72335 
        2.34061         73.8256         8.58724 
        2.35635         73.0039         8.45419 
        2.37203         72.0007         8.32446 
        2.38768         71.2365         8.19777 
        2.40339          70.341         8.07329 
        2.41914         69.5216         7.95115 
        2.43483         69.0398           7.832 
         2.4505         67.9865         7.71553 
        2.46622         67.4223         7.60107 
        2.48195         66.4679         7.48895 
        2.49759         65.7301         7.37973 
        2.51328         65.0971         7.27243 
        2.52906         64.2949         7.16662 
        2.54479         63.5541         7.06334 
        2.56049         62.7781         6.96233 
        2.57618         61.9504          6.8634 
        2.59189         61.5554         6.76628 
        2.60758         60.6738         6.67122 
        2.62325         60.1829         6.57813 
        2.63898         59.3731         6.48652 
        2.65468         58.8827         6.39686 
        2.67044         58.2173         6.30855 
        2.68618         57.7091         6.22213 
        2.70184         56.7493         6.13769 
        2.71755         56.3133         6.05464 
        2.73329         55.8373         5.97302 
        2.74897         55.3265         5.89319 
        2.76462         54.6169         5.81502 
        2.78034         53.9669         5.73796 
        2.79607         53.1331         5.66224 
        2.81179         52.7248         5.58799 
        2.82749         52.2787         5.51518 
        2.84321         51.8986          5.4436 
        2.85893         51.1493         5.37333 
        2.87462         50.4453         5.30444 
        2.89033         50.0102         5.23671 
        2.90605          49.399         5.17012 
        2.92176         48.9025         5.10474 
        2.93747         48.4668         5.04054 
        2.95318         48.1065         4.97745 
        2.96891         47.4313         4.91542 
        2.98456         46.9772         4.85474 
        3.00023         46.3836         4.79502 
        3.01596         46.0269         4.73612 
        3.03164         45.4495          4.6784 
        3.04738           45.01         4.62148 
         3.0631         44.7142         4.56554 
        3.07883         44.2387         4.51054 
        3.09456         43.6649         4.45647 
        3.11026         43.0843         4.40338 
        3.12596         42.6473         4.35117 
        3.14163         42.4202         4.29994 
        3.15734         42.0083         4.24943 
        3.17308         41.6721         4.19962 
        3.18879         41.1066         4.15075 
        3.20447          40.649         4.10275 
         3.2202         40.2628         4.05537 
         3.2359         39.9137         4.00882 
        3.25157          39.438         3.96313 
        3.26729         39.1454         3.91803 
        3.28304         38.6626         3.87355 
        3.29877         38.2099         3.82982 
        3.31446         37.9614         3.78688 
        3.33014         37.4133         3.74464 
        3.34585         37.1039         3.70299 
        3.36158         36.7453         3.66192 
        3.37727         36.4003         3.62161 
        3.39294         36.0747         3.58195 
        3.40867         35.7709         3.54276 
        3.42439         35.4015         3.50417 
        3.44008         35.0701         3.46625 
        3.45578         34.7505         3.42887 
        3.47153         34.5179         3.39196 
        3.48724         34.0967         3.35567 
        3.50292         33.8211            3.32 
        3.51859         33.4244         3.28487 
        3.53431         33.0885         3.25015 
        3.55007         32.7039         3.21586 
        3.56577         32.4291          3.1822 
        3.58146         32.1571         3.14904 
        3.59719         31.8759         3.11629 
        3.61292          31.669         3.08402 
        3.62859         31.2278         3.05234 
        3.64429         30.9381         3.02104 
        3.66003         30.7177          2.9901 
        3.67578         30.4286          2.9596 
        3.69146         30.2667         2.92965 
        3.70712         29.7889         2.90018 
        3.72284         29.6045         2.87101 
        3.73853         29.3363         2.84229 
        3.75422         29.0812         2.81396 
        3.76993         28.7299         2.78601 
        3.78564         28.4794         2.75844 
        3.80137         28.2353         2.73121 
        3.81707          27.957         2.70441 
        3.83279         27.6922         2.67795 
        3.84853         27.4638         2.65181 
        3.86424         27.0648         2.62607 
        3.87992         26.9346         2.60072 
        3.89561         26.7831          2.5757 
        3.91134         26.4727         2.55097 
        3.92704         26.1768          2.5266 
        3.94273         25.9532         2.50257 
        3.95845         25.7891         2.47881 
        3.97418         25.5422         2.45537 
        3.98988         25.3106         2.43226 
        4.00554         24.9978         2.40951 
        4.02125         24.8561           2.387 
        4.03698         24.6622         2.36474 
        4.05268         24.4319         2.34282 
        4.06839         24.2154         2.32117 
         4.0841         24.0304          2.2998 
        4.09983          23.733         2.27867 
        4.11555          23.581         2.25782 
        4.13124         23.4661         2.23729 
        4.14693          23.252         2.21701 
        4.16266         22.9735         2.19693 
        4.17839         22.8814         2.17711 
        4.19408         22.5549         2.15759 
        4.20977         22.4347         2.13831 
        4.22551         22.2312         2.11921 
        4.24123         22.0284         2.10037 
        4.25691         21.8335         2.08182 
        4.27259         21.5965         2.06348 
        4.28831          21.467         2.04533 
        4.30404         21.2557         2.02739 
        4.31974         21.0925          2.0097 
        4.33543         20.9611         1.99224 
        4.35116         20.7732         1.97495 
        4.36688         20.6144         1.95787 
        4.38255          20.403         1.94106 
        4.39825         20.2483         1.92441 
        4.41398         20.0249         1.90793 
         4.4297         19.9469         1.89166 
        4.44541           19.71         1.87558 
        4.46111         19.4881         1.85971 
        4.47683         19.3905         1.84401 
        4.49251         19.3059         1.82853 
        4.50819         19.0939         1.81323 
         4.5239         18.9198         1.79809 
        4.53962         18.8239          1.7831 
        4.55535         18.6439         1.76828 
        4.57106         18.4552         1.75365 
        4.58678         18.3146         1.73919 
         4.6025          18.139         1.72489 
        4.61821         18.0868         1.71075 
        4.63391          17.888         1.69679 
         4.6496          17.721           1.683 
        4.66532         17.6208         1.66934 
        4.68103         17.4726         1.65584 
        4.69673         17.2988          1.6425 
        4.71241         17.1954         1.62933 
        4.72811         17.0331         1.61628 
        4.74384         16.9053         1.60336 
        4.75955         16.8223          1.5906 
        4.77525         16.6329         1.57799 
        4.79096         16.4874          1.5655 
        4.80669         16.3806         1.55314 
         4.8224         16.2824         1.54094 
        4.83809         16.1311         1.52887 
        4.85379         16.0065         1.51694 
         4.8695         15.8544         1.50512 
        4.88521         15.7421         1.49343 
        4.90093         15.6124         1.48187 
        4.91663         15.5187         1.47044 
        4.93234         15.3679         1.45912 
        4.94807         15.2778         1.44792 
        4.96377         15.1653         1.43686 
        4.97943         15.0568         1.42593 
        4.99514         14.9459         1.41509 
        5.01086         14.8287         1.40436 
        5.02654         14.6911         1.39377 
        5.04227         14.5899         1.38326 
          5.058          14.463         1.37285 
        5.07371         14.3788         1.36258 
        5.08942         14.2483          1.3524 
        5.10513         14.1839         1.34234 
        5.12084         14.0201         1.33237 
        5.13656         13.9637          1.3225 
        5.15225         13.8158         1.31276 
        5.16796         13.7256         1.30309 
        5.18369         13.6196         1.29352 
         5.1994         13.5191         1.28406 
        5.21509         13.4438         1.27471 
        5.23079         13.3259         1.26544 
        5.24649         13.2558         1.25627 
        5.26217           13.12         1.24719 
        5.27788          13.033          1.2382 
        5.29359         12.9439          1.2293 
        5.30933         12.8466         1.22047 
        5.32504         12.7503         1.21174 
        5.34073         12.6543         1.20311 
        5.35646         12.5748         1.19454 
        5.37218         12.4611         1.18606 
        5.38789         12.3543         1.17768 
        5.40357         12.2875         1.16939 
        5.41929         12.2101         1.16116 
        5.43502         12.1284         1.15301 
         5.4507         12.0252         1.14496 
        5.46639           11.92         1.13699 
        5.48212         11.8539         1.12907 
        5.49786         11.7937         1.12122 
        5.51353         11.6954         1.11349 
        5.52921         11.6032         1.10582 
        5.54495         11.5235          1.0982 
        5.56066         11.4234         1.09067 
        5.57637         11.3715          1.0832 
        5.59207         11.2736         1.07582 
        5.60778         11.1711          1.0685 
        5.62346         11.1148         1.06126 
        5.63916          11.051         1.05408 
        5.65487         10.9509         1.04696 
         5.6706         10.8745          1.0399 
        5.68633         10.7974         1.03291 
        5.70203         10.7452         1.02599 
        5.71773         10.6556         1.01914 
        5.73344         10.6007         1.01236 
        5.74916         10.5069         1.00562 
        5.76486         10.4405         0.99896 
        5.78054         10.3751         0.99237 
        5.79626         10.2778        0.985821 
          5.812         10.2132        0.979326 
         5.8277         10.1614        0.972909 
        5.84339         10.0469         0.96655 
        5.85911         10.0152        0.960236 
        5.87484         9.94139        0.953981 
        5.89053         9.85785        0.947795 
        5.90623         9.81527        0.941661 
        5.92195         9.73446        0.935572 
        5.93767          9.6402         0.92954 
        5.95336         9.60551        0.923573 
        5.96905         9.55187        0.917661 
        5.98476          9.4923        0.911792 
        6.00048          9.3965        0.905974 
        6.01617         9.33607        0.900216 
        6.03185         9.26882        0.894514 
        6.04756         9.23081         0.88885 
        6.06331         9.17827        0.883223 
        6.07903         9.11039        0.877657 
        6.09473         9.03426        0.872144 
        6.11044         8.97731        0.866675 
        6.12616         8.94205        0.861254 
        6.14186         8.86298        0.855886 
        6.15755         8.81157        0.850564 
        6.17326         8.74138        0.845284 
        6.18898         8.69541        0.840047 
        6.20467         8.64191        0.834864 
        6.22036         8.57444        0.829726 
         6.2361          8.5296        0.824618 
         6.2518         8.46417        0.819562 
        6.26748         8.40982        0.814559 
        6.28319         8.37993        0.809586 
        6.29893         8.30682         0.80465 
        6.31463         8.25679        0.799764 
        6.33033         8.18224        0.794921 
        6.34604         8.13955        0.790115 
        6.36177         8.10933        0.785344 
        6.37747         8.03653        0.780623 
