# k  (h/Mpc)    Pcb(k)  (Mpc/h)^3    Pcb_linear(k) (Mpc/h)^3   ShotnoiseSubtracted = true
      0.0200456         3424.06         3484.65 
      0.0350414         2517.73         2552.67 
      0.0492313          1874.2         1873.76 
      0.0637834          1626.8         1609.13 
      0.0800726         1309.14         1297.27 
       0.096163         925.068         933.968 
       0.111083         741.153         753.774 
       0.126058         689.724         686.182 
       0.142273         594.328         584.547 
       0.158546         475.611         458.642 
        0.17375         392.974         390.979 
       0.188953         372.994         360.624 
       0.204907         346.851         320.505 
       0.220756         289.133         270.295 
        0.23588          253.88         236.922 
         0.2514         228.117         218.107 
       0.267535         213.269         198.369 
       0.283568         191.993         174.851 
       0.299022         175.678         156.599 
       0.314451         159.313         144.429 
       0.330372         148.768          133.17 
       0.346141         134.865         121.044 
       0.361624         126.579         110.432 
       0.377134         119.687         102.257 
       0.392932         107.336         95.0695 
       0.408854         103.612         87.8631 
       0.424564         98.7046         81.2385 
       0.440253         91.5521         75.6687 
       0.455999         86.5947         70.7936 
       0.471626         80.7399         66.2136 
        0.48727         77.8943         61.9164 
       0.502856         73.6601         58.0883 
       0.518488         70.7938         54.6699 
       0.534347         68.1533          51.455 
       0.550082         62.7336         48.4741 
       0.565732         59.2641         45.7528 
       0.581496         57.7603         43.2598 
       0.597222          55.983         40.9596 
       0.612804         52.6301         38.8342 
       0.628434         51.0978         36.8499 
       0.644267         49.8445         34.9933 
       0.660051         47.6884         33.2774 
       0.675724         45.4306         31.6879 
       0.691403         44.0862         30.2021 
       0.707174         42.8745         28.8041 
       0.722871         41.2219         27.5013 
        0.73838         40.0208         26.2941 
       0.754018         38.3522         25.1512 
       0.769845         37.4071         24.0647 
        0.78569         36.2941         23.0424 
       0.801365         35.0573         22.0907 
       0.817031         34.2927         21.1944 
       0.832809         33.6543         20.3432 
       0.848511         31.6927         19.5436 
       0.864097         31.2154         18.7934 
       0.879701          30.595         18.0827 
       0.895507         29.9071          17.401 
       0.911279         29.0301         16.7566 
        0.92691         28.3315         16.1509 
       0.942635         27.2933         15.5724 
       0.958396          26.875         15.0215 
       0.974128         26.1019         14.4988 
       0.989692         25.8825         14.0066 
        1.00528         25.2654         13.5369 
        1.02113         24.3079         13.0818 
        1.03692         23.8594         12.6497 
        1.05264         23.4135         12.2395 
        1.06832         22.9347         11.8484 
        1.08405         22.3421         11.4737 
        1.09979         21.9212         11.1153 
        1.11537         21.5225         10.7761 
        1.13105         21.1775         10.4492 
        1.14679         20.8745         10.1349 
        1.16256         20.1567         9.83312 
        1.17828         20.1437         9.54486 
        1.19395         19.4549         9.26935 
         1.2097         19.2898         9.00351 
        1.22537         18.8047         8.74956 
          1.241         18.5615         8.50637 
        1.25666         18.1389         8.27198 
        1.27241         17.7682         8.04548 
        1.28819           17.46         7.82723 
        1.30392         17.3269         7.61787 
        1.31957         17.0686         7.41723 
        1.33529         16.8042         7.22321 
        1.35108         16.3891         7.03549 
        1.36674         16.2616          6.8559 
         1.3824         15.8743         6.68286 
        1.39811         15.6468         6.51531 
        1.41389         15.4756         6.35297 
        1.42964         15.2908         6.19654 
        1.44531         15.1138         6.04622 
        1.46101          14.696         5.90066 
        1.47667         14.5516         5.76041 
        1.49229         14.3819         5.62517 
        1.50793         14.1569          5.4942 
        1.52367         13.9509         5.36662 
        1.53953          13.767          5.2423 
        1.55526         13.5714         5.12298 
        1.57092         13.4117         5.00793 
        1.58662         13.2606          4.8962 
        1.60235         13.0423         4.78772 
        1.61809         12.8964         4.68253 
        1.63369         12.7106         4.58148 
        1.64941         12.5335         4.48275 
        1.66519         12.4389         4.38661 
        1.68085         12.2448         4.29403 
        1.69652         12.0727         4.20413 
        1.71228          11.914         4.11634 
        1.72806         11.8619         4.03103 
        1.74368         11.6502         3.94903 
        1.75933         11.5384         3.86919 
        1.77505          11.385         3.79121 
        1.79081         11.1892         3.71529 
         1.8065         11.1322          3.6418 
        1.82218         10.9537         3.57039 
        1.83797         10.8925         3.50045 
        1.85367         10.7066         3.43279 
        1.86928          10.708         3.36736 
        1.88497         10.4633          3.3033 
        1.90073         10.4002          3.2407 
        1.91647         10.3362          3.1798 
        1.93218         10.2188         3.12062 
        1.94787         10.0587         3.06306 
        1.96363         9.98953         3.00675 
        1.97935         9.84427         2.95199 
        1.99499         9.71225         2.89893 
        2.01064         9.62733         2.84711 
         2.0264         9.54819         2.79626 
        2.04216         9.45805         2.74669 
        2.05781         9.33095         2.69865 
        2.07353         9.25787         2.65161 
        2.08928         9.19219         2.60561 
        2.10499         9.13518         2.56084 
        2.12065         8.99566         2.51727 
        2.13633         8.95211         2.47469 
        2.15211         8.81236         2.43284 
        2.16785         8.73565         2.39209 
        2.18349          8.6713         2.35254 
        2.19916          8.5849         2.31382 
        2.21489          8.4748         2.27585 
        2.23063         8.41975         2.23872 
         2.2463         8.31796          2.2026 
        2.26194         8.22171         2.16738 
        2.27765         8.19838         2.13276 
        2.29341         8.10683         2.09882 
        2.30914          8.0225          2.0657 
        2.32486         7.92432         2.03332 
        2.34061         7.89134         2.00159 
        2.35635          7.8382         1.97058 
        2.37203         7.75076         1.94034 
        2.38768         7.66395         1.91081 
        2.40339          7.6137          1.8818 
        2.41914         7.49711         1.85333 
        2.43483         7.48929         1.82556 
         2.4505         7.40184         1.79841 
        2.46622         7.34668         1.77173 
        2.48195         7.26606         1.74559 
        2.49759         7.24881         1.72013 
        2.51328         7.16009         1.69513 
        2.52906           7.136         1.67046 
        2.54479          7.0448         1.64639 
        2.56049         6.99688         1.62284 
        2.57618          6.9365         1.59979 
        2.59189         6.86267         1.57715 
        2.60758         6.84227         1.55499 
        2.62325         6.76035         1.53329 
        2.63898          6.6871         1.51194 
        2.65468         6.64001         1.49104 
        2.67044         6.59372         1.47045 
        2.68618          6.5629         1.45031 
        2.70184         6.48694         1.43063 
        2.71755         6.43014         1.41127 
        2.73329          6.4008         1.39225 
        2.74897          6.3674         1.37364 
        2.76462          6.3156         1.35542 
        2.78034         6.23007         1.33746 
        2.79607         6.19927         1.31981 
        2.81179         6.16788          1.3025 
        2.82749         6.08414         1.28553 
        2.84321         6.08701         1.26884 
        2.85893         6.02556         1.25246 
        2.87462         5.96937         1.23641 
        2.89033         5.92167         1.22062 
        2.90605         5.87628          1.2051 
        2.92176         5.81693         1.18986 
        2.93747         5.78978          1.1749 
        2.95318         5.75539         1.16019 
        2.96891         5.71402         1.14573 
        2.98456          5.6729         1.13159 
        3.00023         5.60953         1.11767 
        3.01596         5.58059         1.10394 
        3.03164         5.55841         1.09048 
        3.04738         5.50889         1.07722 
         3.0631         5.46421         1.06418 
        3.07883          5.4361         1.05136 
        3.09456         5.38809         1.03875 
        3.11026         5.36771         1.02638 
        3.12596         5.31302         1.01421 
        3.14163         5.26892         1.00227 
        3.15734         5.22652        0.990496 
        3.17308         5.21042        0.978886 
        3.18879           5.165        0.967496 
        3.20447         5.14255        0.956306 
         3.2202         5.08199        0.945262 
         3.2359         5.06963        0.934414 
        3.25157         5.01444        0.923764 
        3.26729          4.9904         0.91325 
        3.28304         4.95639        0.902882 
        3.29877         4.92991         0.89269 
        3.31446         4.87812        0.882681 
        3.33014         4.86441        0.872835 
        3.34585         4.83218        0.863127 
        3.36158         4.81184        0.853554 
        3.37727         4.76574        0.844158 
        3.39294         4.74306        0.834915 
        3.40867         4.69486        0.825778 
        3.42439         4.66658        0.816785 
        3.44008         4.63466        0.807945 
        3.45578         4.61329        0.799232 
        3.47153         4.57145        0.790629 
        3.48724         4.55105         0.78217 
        3.50292         4.52701        0.773856 
        3.51859         4.48197        0.765669 
        3.53431         4.45078        0.757576 
        3.55007          4.4443        0.749582 
        3.56577         4.41568        0.741737 
        3.58146         4.38288        0.734008 
        3.59719         4.35271        0.726374 
        3.61292         4.33149        0.718852 
        3.62859         4.28611        0.711467 
        3.64429         4.26206        0.704172 
        3.66003         4.25085        0.696959 
        3.67578         4.21751        0.689851 
        3.69146         4.18741        0.682871 
        3.70712          4.1626           0.676 
        3.72284          4.1309        0.669201 
        3.73853         4.11645        0.662508 
        3.75422         4.08935        0.655905 
        3.76993          4.0489        0.649388 
        3.78564         4.03883        0.642963 
        3.80137          4.0144        0.636616 
        3.81707         3.97607        0.630369 
        3.83279         3.96124        0.624201 
        3.84853         3.92975        0.618108 
        3.86424         3.90788        0.612109 
        3.87992         3.88848        0.606199 
        3.89561         3.85292        0.600369 
        3.91134         3.84301        0.594604 
        3.92704         3.81586        0.588922 
        3.94273          3.7903        0.583322 
        3.95845         3.77798        0.577785 
        3.97418         3.73617        0.572319 
        3.98988          3.7171        0.566933 
        4.00554         3.68627        0.561632 
        4.02125         3.66315        0.556384 
        4.03698         3.64734        0.551196 
        4.05268         3.62602        0.546087 
        4.06839         3.60097        0.541039 
         4.0841         3.57788        0.536058 
        4.09983         3.54579        0.531134 
        4.11555         3.53456        0.526274 
        4.13124          3.5105        0.521489 
        4.14693         3.47976        0.516761 
        4.16266         3.46586         0.51208 
        4.17839         3.44441        0.507462 
        4.19408          3.4153        0.502912 
        4.20977         3.39597        0.498416 
        4.22551         3.37244        0.493965 
        4.24123         3.35219        0.489574 
        4.25691         3.33628        0.485249 
        4.27259         3.31164        0.480975 
        4.28831         3.29588        0.476745 
        4.30404         3.27624        0.472563 
        4.31974         3.25711         0.46844 
        4.33543         3.23767         0.46437 
        4.35116         3.21559        0.460339 
        4.36688         3.20146        0.456358 
        4.38255         3.17778         0.45244 
        4.39825         3.16135        0.448559 
        4.41398         3.14108        0.444717 
         4.4297         3.12401        0.440925 
        4.44541         3.10317        0.437178 
        4.46111         3.08782        0.433479 
        4.47683         3.06441         0.42982 
        4.49251         3.05137        0.426211 
        4.50819         3.02606        0.422645 
         4.5239          3.0133        0.419115 
        4.53962         2.99654        0.415622 
        4.55535         2.98023        0.412168 
        4.57106         2.96692        0.408758 
        4.58678         2.94501        0.405387 
         4.6025         2.92674        0.402053 
        4.61821         2.90829        0.398758 
        4.63391         2.89545        0.395504 
         4.6496         2.87892        0.392289 
        4.66532         2.85392        0.389105 
        4.68103         2.84493        0.385958 
        4.69673         2.82983         0.38285 
        4.71241         2.80587        0.379779 
        4.72811          2.7955        0.376737 
        4.74384         2.78413        0.373725 
        4.75955         2.76788        0.370752 
        4.77525         2.75437        0.367812 
        4.79096         2.73282        0.364901 
        4.80669         2.72789        0.362021 
         4.8224         2.70724        0.359176 
        4.83809         2.69413        0.356364 
        4.85379         2.67529        0.353582 
         4.8695         2.65887        0.350827 
        4.88521         2.64318        0.348103 
        4.90093         2.62745        0.345408 
        4.91663         2.61092        0.342744 
        4.93234         2.60222        0.340106 
        4.94807         2.58695        0.337495 
        4.96377         2.56898        0.334916 
        4.97943         2.56222        0.332369 
        4.99514          2.5443        0.329843 
        5.01086         2.53203        0.327342 
        5.02654         2.52208        0.324873 
        5.04227         2.51095        0.322423 
          5.058         2.49439        0.319998 
        5.07371         2.47869        0.317602 
        5.08942         2.46894        0.315231 
        5.10513          2.4524        0.312884 
        5.12084         2.44766         0.31056 
        5.13656         2.42287        0.308261 
        5.15225         2.41824        0.305989 
        5.16796         2.39819        0.303737 
        5.18369         2.38507        0.301505 
         5.1994         2.37677        0.299301 
        5.21509         2.36513         0.29712 
        5.23079         2.35436        0.294959 
        5.24649         2.34108        0.292822 
        5.26217         2.32973        0.290707 
        5.27788         2.31485        0.288611 
        5.29359         2.31282        0.286535 
        5.30933         2.29642        0.284477 
        5.32504         2.28003        0.282443 
        5.34073         2.27196        0.280431 
        5.35646         2.25944        0.278436 
        5.37218         2.25304        0.276459 
        5.38789         2.23925        0.274505 
        5.40357         2.22916        0.272572 
        5.41929         2.21788        0.270654 
        5.43502         2.20656        0.268755 
         5.4507         2.19048        0.266878 
        5.46639          2.1873        0.265019 
        5.48212         2.17389        0.263174 
        5.49786         2.16411        0.261345 
        5.51353          2.1517        0.259542 
        5.52921         2.14089        0.257755 
        5.54495         2.13548        0.255979 
        5.56066         2.12315        0.254222 
        5.57637           2.111        0.252483 
        5.59207         2.09776        0.250761 
        5.60778         2.09085        0.249055 
        5.62346         2.08496        0.247367 
        5.63916         2.07068        0.245694 
        5.65487         2.06292        0.244035 
         5.6706          2.0563         0.24239 
        5.68633         2.03843         0.24076 
        5.70203         2.02963        0.239148 
        5.71773         2.02252        0.237552 
        5.73344         2.01085        0.235969 
        5.74916         2.00206          0.2344 
        5.76486         1.99118        0.232847 
        5.78054         1.98343        0.231311 
        5.79626         1.97698        0.229784 
          5.812         1.96935         0.22827 
         5.8277         1.95472        0.226774 
        5.84339         1.95057        0.225292 
        5.85911         1.93966        0.223821 
        5.87484         1.92963        0.222363 
        5.89053         1.92181        0.220921 
        5.90623         1.91063        0.219491 
        5.92195          1.9022        0.218072 
        5.93767         1.89458        0.216666 
        5.95336         1.88688        0.215275 
        5.96905         1.87391        0.213897 
        5.98476         1.86921        0.212529 
        6.00048         1.86012        0.211173 
        6.01617         1.85478        0.209831 
        6.03185         1.84676        0.208502 
        6.04756         1.83804        0.207181 
        6.06331         1.82777         0.20587 
        6.07903         1.81987        0.204572 
        6.09473         1.81221        0.203287 
        6.11044         1.80102        0.202013 
        6.12616         1.79612        0.200749 
        6.14186         1.78723        0.199498 
        6.15755         1.78054        0.198257 
        6.17326         1.77199        0.197027 
        6.18898         1.76689        0.195806 
        6.20467         1.75674        0.194598 
        6.22036         1.74913          0.1934 
         6.2361          1.7437        0.192209 
         6.2518         1.73304        0.191031 
        6.26748         1.72729        0.189865 
        6.28319         1.71935        0.188706 
        6.29893         1.71349        0.187555 
        6.31463         1.70337        0.186416 
        6.33033         1.69985        0.185287 
        6.34604          1.6904        0.184167 
        6.36177         1.68352        0.183055 
        6.37747          1.6769        0.181955 
