# k  (h/Mpc)    Pcb(k)  (Mpc/h)^3    Pcb_linear(k) (Mpc/h)^3   ShotnoiseSubtracted = true
      0.0200456         124.647         126.573 
      0.0350414          92.796         92.7208 
      0.0492313          68.371         68.0607 
      0.0637834         58.5187         58.4484 
      0.0800726         47.1127         47.1209 
       0.096163         34.0473         33.9246 
       0.111083         27.4121         27.3793 
       0.126058         24.8948         24.9242 
       0.142273         21.2369         21.2325 
       0.158546         16.7608         16.6593 
        0.17375         14.1964         14.2016 
       0.188953         13.0818         13.0989 
       0.204907         11.7361         11.6417 
       0.220756         9.87019         9.81794 
        0.23588         8.64785         8.60571 
         0.2514         7.91658          7.9223 
       0.267535         7.20016         7.20537 
       0.283568         6.36871         6.35111 
       0.299022         5.71623         5.68814 
       0.314451         5.22162         5.24608 
       0.330372         4.83134         4.83714 
       0.346141         4.39607         4.39667 
       0.361624         4.02254         4.01124 
       0.377134         3.73368         3.71429 
       0.392932         3.41715         3.45321 
       0.408854         3.20284         3.19145 
       0.424564         2.94669         2.95083 
       0.440253         2.74816         2.74852 
       0.455999         2.58206         2.57144 
       0.471626         2.41997         2.40508 
        0.48727         2.25037         2.24899 
       0.502856         2.10619         2.10994 
       0.518488         2.00107         1.98578 
       0.534347          1.8924           1.869 
       0.550082         1.76019         1.76073 
       0.565732         1.64545         1.66188 
       0.581496         1.57645         1.57133 
       0.597222         1.49558         1.48778 
       0.612804         1.41172         1.41058 
       0.628434         1.34936          1.3385 
       0.644267         1.27501         1.27106 
       0.660051         1.20908         1.20874 
       0.675724         1.15505           1.151 
       0.691403         1.10463         1.09703 
       0.707174         1.04939         1.04625 
       0.722871        0.997286        0.998933 
        0.73838        0.960802        0.955083 
       0.754018         0.92295        0.913568 
       0.769845        0.880932        0.874104 
        0.78569        0.842221        0.836971 
       0.801365        0.805193          0.8024 
       0.817031         0.77443        0.769845 
       0.832809        0.743058        0.738928 
       0.848511        0.711608        0.709883 
       0.864097        0.681371        0.682633 
       0.879701        0.655081        0.656817 
       0.895507         0.63555        0.632058 
       0.911279         0.61188        0.608652 
        0.92691        0.587928         0.58665 
       0.942635        0.567623        0.565636 
       0.958396        0.545731        0.545626 
       0.974128        0.526824        0.526639 
       0.989692         0.51019        0.508761 
        1.00528        0.494016        0.491702 
        1.02113        0.473336        0.475171 
        1.03692        0.460186        0.459476 
        1.05264        0.445227        0.444576 
        1.06832        0.431506        0.430371 
        1.08405         0.41523        0.416761 
        1.09979        0.402231        0.403743 
        1.11537         0.39316         0.39142 
        1.13105        0.380507        0.379547 
        1.14679        0.370658         0.36813 
        1.16256        0.355875        0.357169 
        1.17828        0.345743        0.346698 
        1.19395        0.334958        0.336691 
         1.2097        0.324863        0.327035 
        1.22537        0.318176        0.317811 
          1.241        0.308349        0.308977 
        1.25666        0.301308        0.300463 
        1.27241        0.291481        0.292236 
        1.28819        0.283333        0.284309 
        1.30392        0.275923        0.276704 
        1.31957        0.268843        0.269416 
        1.33529        0.260978        0.262369 
        1.35108         0.25414         0.25555 
        1.36674        0.245875        0.249027 
         1.3824        0.242609        0.242742 
        1.39811         0.23504        0.236656 
        1.41389        0.229411        0.230759 
        1.42964         0.22469        0.225077 
        1.44531        0.217314        0.219617 
        1.46101        0.213006         0.21433 
        1.47667        0.206414        0.209236 
        1.49229        0.202551        0.204323 
        1.50793        0.196919        0.199566 
        1.52367         0.19287        0.194932 
        1.53953        0.188844        0.190416 
        1.55526        0.184506        0.186082 
        1.57092          0.1789        0.181903 
        1.58662         0.17581        0.177845 
        1.60235        0.172435        0.173905 
        1.61809        0.167014        0.170084 
        1.63369        0.164481        0.166413 
        1.64941        0.161006        0.162827 
        1.66519        0.156889        0.159335 
        1.68085         0.15311        0.155972 
        1.69652        0.149727        0.152707 
        1.71228        0.147468        0.149518 
        1.72806        0.143166        0.146419 
        1.74368        0.141107        0.143441 
        1.75933        0.138014        0.140541 
        1.77505         0.13491        0.137708 
        1.79081        0.132697        0.134951 
         1.8065        0.129041        0.132281 
        1.82218        0.126941        0.129688 
        1.83797        0.124242        0.127147 
        1.85367        0.121896        0.124689 
        1.86928        0.119785        0.122313 
        1.88497        0.117579        0.119986 
        1.90073        0.114957        0.117712 
        1.91647        0.112564          0.1155 
        1.93218        0.110261        0.113351 
        1.94787        0.108047         0.11126 
        1.96363        0.106343        0.109214 
        1.97935         0.10392        0.107225 
        1.99499        0.102322        0.105298 
        2.01064        0.100648        0.103416 
         2.0264       0.0986754        0.101568 
        2.04216       0.0968049        0.099768 
        2.05781       0.0951239       0.0980233 
        2.07353       0.0928323       0.0963146 
        2.08928       0.0914336       0.0946437 
        2.10499       0.0894871       0.0930174 
        2.12065        0.088441       0.0914349 
        2.13633       0.0864544       0.0898884 
        2.15211       0.0855176       0.0883682 
        2.16785       0.0837846       0.0868879 
        2.18349       0.0817779       0.0854514 
        2.19916       0.0812313       0.0840448 
        2.21489       0.0798596       0.0826658 
        2.23063       0.0782763       0.0813172 
         2.2463       0.0766623       0.0800052 
        2.26194       0.0753665       0.0787259 
        2.27765       0.0741159       0.0774684 
        2.29341        0.073238       0.0762355 
        2.30914       0.0717087       0.0750324 
        2.32486       0.0704898       0.0738563 
        2.34061       0.0694354       0.0727039 
        2.35635       0.0682074       0.0715774 
        2.37203       0.0672225       0.0704791 
        2.38768       0.0660436       0.0694065 
        2.40339       0.0649531       0.0683526 
        2.41914       0.0642077       0.0673185 
        2.43483        0.062798       0.0663097 
         2.4505       0.0617824       0.0653236 
        2.46622        0.060956       0.0643545 
        2.48195       0.0597949       0.0634053 
        2.49759       0.0591934       0.0624805 
        2.51328       0.0584455       0.0615721 
        2.52906       0.0573586       0.0606762 
        2.54479       0.0564584       0.0598018 
        2.56049       0.0556376       0.0589466 
        2.57618       0.0547842       0.0581091 
        2.59189       0.0539975       0.0572868 
        2.60758       0.0533559        0.056482 
        2.62325       0.0524013       0.0556938 
        2.63898       0.0516362       0.0549181 
        2.65468       0.0507081       0.0541591 
        2.67044       0.0502735       0.0534114 
        2.68618       0.0494478       0.0526797 
        2.70184       0.0486752       0.0519648 
        2.71755       0.0477755       0.0512617 
        2.73329       0.0472732       0.0505706 
        2.74897       0.0467566       0.0498947 
        2.76462       0.0459189       0.0492329 
        2.78034       0.0453317       0.0485805 
        2.79607       0.0447306       0.0479394 
        2.81179       0.0441126       0.0473108 
        2.82749        0.043425       0.0466943 
        2.84321       0.0428492       0.0460882 
        2.85893       0.0422396       0.0454933 
        2.87462       0.0418532         0.04491 
        2.89033       0.0412248       0.0443366 
        2.90605       0.0404961       0.0437729 
        2.92176       0.0401701       0.0432193 
        2.93747       0.0395804       0.0426758 
        2.95318       0.0389108       0.0421416 
        2.96891        0.038538       0.0416165 
        2.98456       0.0381312       0.0411027 
        3.00023       0.0374587        0.040597 
        3.01596       0.0369146       0.0400984 
        3.03164       0.0366593       0.0396097 
        3.04738       0.0361271       0.0391278 
         3.0631       0.0354968       0.0386542 
        3.07883       0.0350607       0.0381885 
        3.09456        0.034816       0.0377307 
        3.11026        0.034258       0.0372812 
        3.12596       0.0339661       0.0368392 
        3.14163       0.0334664       0.0364055 
        3.15734       0.0330703       0.0359778 
        3.17308       0.0326572       0.0355561 
        3.18879       0.0322454       0.0351424 
        3.20447       0.0319449        0.034736 
         3.2202        0.031496       0.0343348 
         3.2359       0.0311883       0.0339407 
        3.25157       0.0307378       0.0335539 
        3.26729       0.0304728        0.033172 
        3.28304        0.030046       0.0327954 
        3.29877       0.0297511       0.0324252 
        3.31446       0.0293488       0.0320616 
        3.33014       0.0290201        0.031704 
        3.34585       0.0287117       0.0313514 
        3.36158       0.0282722       0.0310037 
        3.37727       0.0280748       0.0306624 
        3.39294       0.0277864       0.0303266 
        3.40867       0.0275013       0.0299948 
        3.42439       0.0272095       0.0296681 
        3.44008       0.0268889        0.029347 
        3.45578       0.0266343       0.0290305 
        3.47153       0.0262846        0.028718 
        3.48724       0.0261427       0.0284108 
        3.50292       0.0256962       0.0281088 
        3.51859        0.025385       0.0278114 
        3.53431        0.025286       0.0275175 
        3.55007       0.0250014       0.0272271 
        3.56577       0.0248118       0.0269421 
        3.58146       0.0244129       0.0266614 
        3.59719       0.0242381       0.0263841 
        3.61292       0.0239269       0.0261109 
        3.62859        0.023704       0.0258426 
        3.64429       0.0235391       0.0255777 
        3.66003       0.0232702       0.0253157 
        3.67578       0.0230591       0.0250575 
        3.69146       0.0228679       0.0248039 
        3.70712       0.0226989       0.0245544 
        3.72284       0.0224136       0.0243074 
        3.73853       0.0221727       0.0240643 
        3.75422       0.0220901       0.0238245 
        3.76993       0.0217788       0.0235877 
        3.78564       0.0216548       0.0233544 
        3.80137       0.0214439       0.0231238 
        3.81707       0.0211634       0.0228969 
        3.83279       0.0210278       0.0226729 
        3.84853       0.0208459       0.0224516 
        3.86424       0.0206369       0.0222337 
        3.87992       0.0204832        0.022019 
        3.89561       0.0203482       0.0218072 
        3.91134       0.0201615       0.0215978 
        3.92704       0.0199176       0.0213914 
        3.94273       0.0197584        0.021188 
        3.95845       0.0195817       0.0209869 
        3.97418        0.019457       0.0207884 
        3.98988        0.019262       0.0205927 
        4.00554       0.0190377       0.0204002 
        4.02125       0.0188092       0.0202096 
        4.03698       0.0186522       0.0200211 
        4.05268       0.0183919       0.0198355 
        4.06839         0.01811       0.0196522 
         4.0841       0.0179282       0.0194713 
        4.09983       0.0176653       0.0192924 
        4.11555       0.0175004       0.0191159 
        4.13124       0.0172615       0.0189421 
        4.14693       0.0170289       0.0187703 
        4.16266       0.0168316       0.0186003 
        4.17839       0.0166517       0.0184326 
        4.19408       0.0164899       0.0182673 
        4.20977       0.0162784        0.018104 
        4.22551       0.0160756       0.0179423 
        4.24123       0.0159208       0.0177828 
        4.25691       0.0157841       0.0176257 
        4.27259       0.0156058       0.0174705 
        4.28831       0.0154999       0.0173168 
        4.30404       0.0153588       0.0171649 
        4.31974       0.0151816       0.0170152 
        4.33543         0.01507       0.0168673 
        4.35116        0.014934       0.0167209 
        4.36688       0.0148171       0.0165763 
        4.38255       0.0147378        0.016434 
        4.39825       0.0146391        0.016293 
        4.41398       0.0145873       0.0161535 
         4.4297       0.0144856       0.0160157 
        4.44541       0.0143917       0.0158796 
        4.46111       0.0142924       0.0157453 
        4.47683       0.0142518       0.0156124 
        4.49251       0.0141476       0.0154813 
        4.50819       0.0140936       0.0153517 
         4.5239       0.0140518       0.0152235 
        4.53962       0.0140086       0.0150967 
        4.55535       0.0139793       0.0149712 
        4.57106        0.013992       0.0148473 
        4.58678       0.0138921       0.0147249 
         4.6025       0.0139182       0.0146038 
        4.61821       0.0139056       0.0144841 
        4.63391       0.0138718       0.0143659 
         4.6496       0.0139001       0.0142491 
        4.66532       0.0138668       0.0141335 
        4.68103       0.0138907       0.0140192 
        4.69673       0.0138975       0.0139063 
        4.71241       0.0139592       0.0137947 
        4.72811       0.0139289       0.0136842 
        4.74384        0.013998       0.0135748 
        4.75955       0.0140055       0.0134668 
        4.77525       0.0140755         0.01336 
        4.79096       0.0141453       0.0132543 
        4.80669        0.014124       0.0131497 
         4.8224       0.0142885       0.0130464 
        4.83809       0.0142981       0.0129442 
        4.85379       0.0144164       0.0128432 
         4.8695       0.0144521       0.0127431 
        4.88521       0.0145299       0.0126442 
        4.90093       0.0146306       0.0125463 
        4.91663        0.014813       0.0124495 
        4.93234       0.0148837       0.0123537 
        4.94807       0.0149739       0.0122588 
        4.96377       0.0150491       0.0121651 
        4.97943       0.0151932       0.0120727 
        4.99514       0.0153558       0.0119809 
        5.01086       0.0154463       0.0118901 
        5.02654       0.0156456       0.0118004 
        5.04227        0.015805       0.0117114 
          5.058       0.0159567       0.0116233 
        5.07371       0.0160757       0.0115363 
        5.08942       0.0163885       0.0114501 
        5.10513       0.0164666       0.0113649 
        5.12084       0.0166347       0.0112805 
        5.13656       0.0168718        0.011197 
        5.15225        0.017059       0.0111145 
        5.16796       0.0173382       0.0110326 
        5.18369       0.0174828       0.0109516 
         5.1994       0.0177316       0.0108715 
        5.21509       0.0180255       0.0107923 
        5.23079       0.0181747       0.0107138 
        5.24649       0.0184829       0.0106362 
        5.26217       0.0187465       0.0105594 
        5.27788       0.0190553       0.0104832 
        5.29359       0.0192794       0.0104078 
        5.30933       0.0196629       0.0103331 
        5.32504        0.019853       0.0102592 
        5.34073       0.0202256       0.0101861 
        5.35646       0.0204966       0.0101136 
        5.37218       0.0208772       0.0100418 
        5.38789       0.0212248      0.00997085 
        5.40357        0.021529      0.00990065 
        5.41929       0.0218256      0.00983098 
        5.43502       0.0222702      0.00976198 
         5.4507       0.0226922      0.00969382 
        5.46639       0.0231873      0.00962631 
        5.48212       0.0233247      0.00955929 
        5.49786       0.0238318      0.00949284 
        5.51353       0.0243669      0.00942735 
        5.52921       0.0248156      0.00936243 
        5.54495       0.0252947      0.00929793 
        5.56066        0.025725      0.00923413 
        5.57637       0.0262586      0.00917093 
        5.59207       0.0266474       0.0091084 
        5.60778       0.0272153      0.00904642 
        5.62346       0.0278079      0.00898512 
        5.63916        0.028266      0.00892434 
        5.65487       0.0289455       0.0088641 
         5.6706       0.0292291      0.00880434 
        5.68633       0.0300195      0.00874513 
        5.70203       0.0306541      0.00868659 
        5.71773        0.031283       0.0086286 
        5.73344       0.0318382      0.00857111 
        5.74916       0.0327371      0.00851411 
        5.76486       0.0332587       0.0084577 
        5.78054       0.0338079      0.00840191 
        5.79626       0.0345918      0.00834646 
          5.812       0.0353232      0.00829147 
         5.8277       0.0361385      0.00823714 
        5.84339       0.0368339       0.0081833 
        5.85911       0.0378667      0.00812985 
        5.87484       0.0386781      0.00807689 
        5.89053       0.0394559      0.00802451 
        5.90623       0.0404631      0.00797258 
        5.92195       0.0415434      0.00792102 
        5.93767       0.0421785      0.00786996 
        5.95336       0.0432371      0.00781944 
        5.96905       0.0441995      0.00776938 
        5.98476       0.0447942       0.0077197 
        6.00048       0.0460922      0.00767044 
        6.01617       0.0470495      0.00762168 
        6.03185       0.0481725      0.00757341 
        6.04756        0.049421      0.00752545 
        6.06331       0.0503828      0.00747781 
        6.07903       0.0519242      0.00743069 
        6.09473       0.0529094      0.00738402 
        6.11044        0.054328      0.00733771 
        6.12616       0.0558497      0.00729182 
        6.14186       0.0567459      0.00724636 
        6.15755       0.0581605      0.00720131 
        6.17326       0.0591639       0.0071566 
        6.18898       0.0611262      0.00711226 
        6.20467       0.0628735      0.00706838 
        6.22036        0.064202      0.00702488 
         6.2361       0.0657318      0.00698163 
         6.2518       0.0675218      0.00693882 
        6.26748       0.0686149      0.00689647 
        6.28319           0.071      0.00685436 
        6.29893       0.0725461      0.00681257 
        6.31463       0.0744369      0.00677121 
        6.33033       0.0760633       0.0067302 
        6.34604       0.0780808      0.00668951 
        6.36177       0.0803459      0.00664912 
        6.37747        0.081929      0.00660915 
