# k  (h/Mpc)    Pcb(k)  (Mpc/h)^3    Pcb_linear(k) (Mpc/h)^3   ShotnoiseSubtracted = true
      0.0200456         4783.92         4857.72 
      0.0350414         3628.05         3558.51 
      0.0492313         2608.04         2612.08 
      0.0637834         2188.33         2243.17 
      0.0800726         1755.92         1808.44 
       0.096163          1333.9         1301.98 
       0.111083         1090.14         1050.78 
       0.126058         943.737         956.559 
       0.142273         807.789         814.877 
       0.158546         654.935         639.361 
        0.17375         570.333         545.038 
       0.188953         524.937         502.721 
       0.204907         449.174         446.795 
       0.220756         398.379           376.8 
        0.23588         352.332         330.276 
         0.2514         320.063         304.048 
       0.267535         303.942         276.533 
       0.283568         265.913         243.748 
       0.299022         248.544         218.303 
       0.314451         240.692         201.338 
       0.330372         211.765         185.643 
       0.346141         195.722         168.739 
       0.361624         183.602         153.946 
       0.377134         168.236          142.55 
       0.392932         164.465          132.53 
       0.408854         153.961         122.484 
       0.424564         147.184         113.249 
       0.440253          134.04         105.485 
       0.455999         124.823         98.6886 
       0.471626         120.304         92.3039 
        0.48727         116.928         86.3135 
       0.502856         107.833         80.9769 
       0.518488         104.488         76.2117 
       0.534347         98.6712         71.7299 
       0.550082         95.7888         67.5744 
       0.565732         93.1925         63.7809 
       0.581496         86.5415         60.3056 
       0.597222         83.6937          57.099 
       0.612804         81.1326         54.1361 
       0.628434         79.2923           51.37 
       0.644267         75.1893         48.7818 
       0.660051          72.469         46.3897 
       0.675724         70.3307          44.174 
       0.691403         69.2521         42.1027 
       0.707174         66.9942         40.1539 
       0.722871         65.1081         38.3378 
        0.73838         62.5137         36.6549 
       0.754018         59.4077         35.0616 
       0.769845          58.777          33.547 
        0.78569         56.7391         32.1219 
       0.801365         55.3645         30.7951 
       0.817031         53.3145         29.5457 
       0.832809          52.558         28.3591 
       0.848511         51.0036         27.2444 
       0.864097         49.9925         26.1986 
       0.879701         49.0682         25.2078 
       0.895507         47.3816         24.2576 
       0.911279         46.2602         23.3593 
        0.92691         45.2482         22.5149 
       0.942635         44.4076         21.7084 
       0.958396         43.8217         20.9404 
       0.974128         42.6592         20.2117 
       0.989692         41.3189         19.5256 
        1.00528         40.8405         18.8709 
        1.02113         39.8902         18.2365 
        1.03692         39.3298         17.6341 
        1.05264         38.4921         17.0623 
        1.06832         37.7975         16.5171 
        1.08405         36.8257         15.9948 
        1.09979         36.5997         15.4951 
        1.11537          35.506         15.0222 
        1.13105          34.859         14.5665 
        1.14679         34.1593         14.1284 
        1.16256         33.7274         13.7077 
        1.17828         33.2606         13.3058 
        1.19395         32.6506         12.9218 
         1.2097         32.0917         12.5512 
        1.22537         31.5489         12.1972 
          1.241         31.0034         11.8582 
        1.25666         30.6193         11.5314 
        1.27241         30.1817         11.2157 
        1.28819         29.1025         10.9114 
        1.30392         29.4668         10.6196 
        1.31957          28.756         10.3399 
        1.33529         28.1912         10.0694 
        1.35108         27.9555          9.8077 
        1.36674         27.5651         9.55735 
         1.3824         27.0438         9.31612 
        1.39811         26.4812         9.08256 
        1.41389         26.2558         8.85625 
        1.42964         25.9968         8.63817 
        1.44531         25.5494         8.42863 
        1.46101         25.2434         8.22571 
        1.47667         24.9497          8.0302 
        1.49229          24.457         7.84167 
        1.50793         24.2398         7.65909 
        1.52367         23.9187         7.48124 
        1.53953         23.6416         7.30794 
        1.55526         23.2336          7.1416 
        1.57092         23.1779         6.98122 
        1.58662         22.8554         6.82547 
        1.60235         22.4322         6.67424 
        1.61809         22.2806          6.5276 
        1.63369         21.9771         6.38674 
        1.64941         21.7588          6.2491 
        1.66519          21.342         6.11508 
        1.68085          20.995         5.98601 
        1.69652         21.0511          5.8607 
        1.71228         20.6369         5.73831 
        1.72806         20.3566         5.61939 
        1.74368         20.2099         5.50508 
        1.75933         19.9867         5.39377 
        1.77505         19.7709         5.28508 
        1.79081         19.5504         5.17923 
         1.8065         19.3705         5.07678 
        1.82218         19.1906         4.97725 
        1.83797         19.0494         4.87973 
        1.85367         18.9184         4.78542 
        1.86928         18.6727          4.6942 
        1.88497         18.4492          4.6049 
        1.90073         18.2057         4.51764 
        1.91647         17.8567         4.43274 
        1.93218         17.9156         4.35025 
        1.94787         17.5609         4.27001 
        1.96363         17.5301         4.19151 
        1.97935         17.2828         4.11517 
        1.99499         17.0815          4.0412 
        2.01064          16.953         3.96897 
         2.0264         16.7039         3.89807 
        2.04216         16.7064         3.82897 
        2.05781         16.5041         3.76201 
        2.07353         16.3344         3.69643 
        2.08928         16.1214          3.6323 
        2.10499         15.9349         3.56989 
        2.12065         15.8423         3.50916 
        2.13633         15.6927          3.4498 
        2.15211         15.5277         3.39146 
        2.16785         15.4065         3.33465 
        2.18349         15.2026         3.27952 
        2.19916         15.0607         3.22553 
        2.21489         14.9435         3.17261 
        2.23063         14.8782         3.12085 
         2.2463         14.6323          3.0705 
        2.26194         14.5348          3.0214 
        2.27765         14.3525         2.97314 
        2.29341         14.2099         2.92582 
        2.30914         14.1206         2.87965 
        2.32486         14.0247         2.83451 
        2.34061         13.9141         2.79028 
        2.35635         13.7734         2.74705 
        2.37203         13.6005          2.7049 
        2.38768         13.4455         2.66373 
        2.40339         13.4131         2.62329 
        2.41914         13.2347          2.5836 
        2.43483         13.1463         2.54488 
         2.4505         13.0363         2.50704 
        2.46622         12.9303         2.46984 
        2.48195         12.8667         2.43341 
        2.49759         12.6511         2.39792 
        2.51328         12.6429         2.36306 
        2.52906         12.4771         2.32868 
        2.54479         12.3507         2.29512 
        2.56049         12.2425          2.2623 
        2.57618          12.179         2.23015 
        2.59189         12.1499         2.19859 
        2.60758         11.9534         2.16771 
        2.62325         11.8749         2.13746 
        2.63898         11.8271         2.10769 
        2.65468         11.6653         2.07856 
        2.67044         11.6057         2.04986 
        2.68618          11.494         2.02178 
        2.70184          11.413         1.99434 
        2.71755           11.32         1.96736 
        2.73329         11.1717         1.94084 
        2.74897         11.1183          1.9149 
        2.76462         11.0626          1.8895 
        2.78034         10.9316         1.86446 
        2.79607         10.8751         1.83985 
        2.81179         10.7547         1.81573 
        2.82749         10.6875         1.79207 
        2.84321         10.6156         1.76881 
        2.85893         10.5476         1.74598 
        2.87462         10.4619         1.72359 
        2.89033         10.3526         1.70158 
        2.90605         10.2894         1.67995 
        2.92176         10.1929          1.6587 
        2.93747         10.1116         1.63784 
        2.95318         10.0302         1.61734 
        2.96891         9.96276         1.59719 
        2.98456         9.88693         1.57747 
        3.00023         9.81029         1.55806 
        3.01596         9.67784         1.53893 
        3.03164         9.67895         1.52017 
        3.04738         9.56281         1.50168 
         3.0631         9.47465          1.4835 
        3.07883         9.43014         1.46563 
        3.09456         9.34855         1.44806 
        3.11026         9.28924         1.43081 
        3.12596         9.19013         1.41384 
        3.14163         9.17368          1.3972 
        3.15734         9.05672         1.38078 
        3.17308         9.02592          1.3646 
        3.18879         8.93455         1.34872 
        3.20447         8.85842         1.33312 
         3.2202         8.80618         1.31773 
         3.2359          8.7295          1.3026 
        3.25157         8.69887         1.28776 
        3.26729         8.60858          1.2731 
        3.28304          8.5473         1.25865 
        3.29877         8.49667         1.24444 
        3.31446         8.45105         1.23049 
        3.33014         8.36542         1.21676 
        3.34585         8.32712         1.20323 
        3.36158          8.2495         1.18988 
        3.37727         8.19605         1.17678 
        3.39294         8.10939          1.1639 
        3.40867         8.08461         1.15116 
        3.42439         7.98383         1.13862 
        3.44008         7.93412          1.1263 
        3.45578         7.88871         1.11415 
        3.47153         7.80866         1.10216 
        3.48724         7.76776         1.09037 
        3.50292         7.69877         1.07878 
        3.51859         7.66899         1.06737 
        3.53431         7.60358         1.05609 
        3.55007          7.5444         1.04494 
        3.56577         7.46616           1.034 
        3.58146         7.44707         1.02323 
        3.59719         7.38433         1.01259 
        3.61292         7.33134          1.0021 
        3.62859          7.2805        0.991808 
        3.64429         7.23282        0.981639 
        3.66003         7.18273        0.971584 
        3.67578         7.12692        0.961675 
        3.69146         7.08161        0.951944 
        3.70712         7.03151        0.942367 
        3.72284         6.97039        0.932887 
        3.73853          6.9322        0.923557 
        3.75422         6.87289        0.914353 
        3.76993         6.84003        0.905267 
        3.78564         6.79236        0.896311 
        3.80137         6.75093        0.887463 
        3.81707         6.66632        0.878754 
        3.83279         6.65503        0.870157 
        3.84853         6.58582        0.861662 
        3.86424         6.52541          0.8533 
        3.87992         6.50612        0.845062 
        3.89561         6.47526        0.836933 
        3.91134          6.4146        0.828897 
        3.92704         6.36935        0.820977 
        3.94273         6.31599        0.813169 
        3.95845         6.28995        0.805451 
        3.97418         6.23056        0.797832 
        3.98988         6.18693        0.790323 
        4.00554          6.1594        0.782933 
        4.02125         6.09757        0.775617 
        4.03698         6.07594        0.768385 
        4.05268         6.01261        0.761263 
        4.06839         5.96868        0.754226 
         4.0841         5.93187        0.747283 
        4.09983         5.89268        0.740418 
        4.11555         5.83682        0.733643 
        4.13124         5.80397        0.726973 
        4.14693         5.78368        0.720381 
        4.16266         5.73232        0.713857 
        4.17839         5.70516        0.707418 
        4.19408         5.65883        0.701075 
        4.20977         5.61111        0.694808 
        4.22551         5.57669        0.688603 
        4.24123         5.52063        0.682482 
        4.25691         5.49942        0.676453 
        4.27259         5.45556        0.670495 
        4.28831         5.40207        0.664598 
        4.30404         5.36918        0.658768 
        4.31974         5.33247        0.653021 
        4.33543         5.29677        0.647347 
        4.35116         5.26728        0.641728 
        4.36688         5.23976        0.636178 
        4.38255         5.19836        0.630715 
        4.39825         5.17197        0.625306 
        4.41398         5.13953         0.61995 
         4.4297         5.11019        0.614664 
        4.44541         5.07123        0.609441 
        4.46111         5.03214        0.604283 
        4.47683         4.99035        0.599182 
        4.49251         4.96791        0.594152 
        4.50819         4.93673        0.589181 
         4.5239         4.90284         0.58426 
        4.53962         4.85747        0.579391 
        4.55535          4.8362        0.574575 
        4.57106         4.80285        0.569822 
        4.58678         4.76454        0.565122 
         4.6025         4.74987        0.560475 
        4.61821         4.70043        0.555881 
        4.63391         4.66542        0.551346 
         4.6496         4.63509        0.546864 
        4.66532         4.60887        0.542425 
        4.68103         4.58712        0.538038 
        4.69673         4.56061        0.533705 
        4.71241         4.51732        0.529424 
        4.72811         4.50105        0.525184 
        4.74384         4.47383        0.520985 
        4.75955         4.43654         0.51684 
        4.77525         4.40567        0.512742 
        4.79096         4.38479        0.508684 
        4.80669         4.35098        0.504669 
         4.8224         4.31973        0.500703 
        4.83809         4.29915        0.496783 
        4.85379         4.25893        0.492904 
         4.8695         4.23946        0.489064 
        4.88521         4.21805        0.485267 
        4.90093         4.19328         0.48151 
        4.91663         4.16184        0.477797 
        4.93234         4.13335        0.474119 
        4.94807         4.11773        0.470478 
        4.96377          4.0844        0.466883 
        4.97943         4.05941        0.463334 
        4.99514         4.04068        0.459812 
        5.01086         4.00762        0.456325 
        5.02654         3.98084        0.452884 
        5.04227         3.95304        0.449468 
          5.058         3.94382        0.446087 
        5.07371          3.9083        0.442748 
        5.08942         3.87684        0.439442 
        5.10513         3.85719        0.436171 
        5.12084         3.83373        0.432931 
        5.13656          3.8129        0.429726 
        5.15225         3.79675        0.426559 
        5.16796         3.77037        0.423419 
        5.18369         3.73682        0.420308 
         5.1994         3.71925        0.417235 
        5.21509         3.68949        0.414195 
        5.23079         3.67202        0.411183 
        5.24649         3.65076        0.408203 
        5.26217         3.62244        0.405256 
        5.27788         3.60613        0.402333 
        5.29359          3.5886         0.39944 
        5.30933         3.57121        0.396571 
        5.32504         3.54442        0.393735 
        5.34073         3.52359         0.39093 
        5.35646         3.49391        0.388148 
        5.37218          3.4854        0.385393 
        5.38789          3.4637        0.382669 
        5.40357         3.43931        0.379975 
        5.41929         3.42008        0.377301 
        5.43502         3.39964        0.374653 
         5.4507         3.36762        0.372037 
        5.46639         3.35786        0.369446 
        5.48212         3.33383        0.366873 
        5.49786         3.32046        0.364323 
        5.51353         3.29634         0.36181 
        5.52921         3.27648        0.359318 
        5.54495         3.25993        0.356843 
        5.56066         3.24029        0.354394 
        5.57637         3.22052        0.351969 
        5.59207         3.19904        0.349569 
        5.60778         3.18719         0.34719 
        5.62346         3.16405        0.344838 
        5.63916         3.15013        0.342505 
        5.65487         3.12238        0.340193 
         5.6706         3.11304          0.3379 
        5.68633         3.09443        0.335627 
        5.70203         3.07834         0.33338 
        5.71773         3.05474        0.331155 
        5.73344         3.03977        0.328949 
        5.74916         3.02075        0.326761 
        5.76486         3.00939        0.324596 
        5.78054         2.98679        0.322455 
        5.79626         2.97009        0.320327 
          5.812         2.94934        0.318216 
         5.8277         2.93358        0.316131 
        5.84339         2.92201        0.314065 
        5.85911         2.90872        0.312013 
        5.87484         2.88868        0.309981 
        5.89053         2.87289        0.307971 
        5.90623         2.85553        0.305978 
        5.92195         2.84276        0.303999 
        5.93767         2.82721        0.302039 
        5.95336            2.81          0.3001 
        5.96905         2.79233        0.298179 
        5.98476          2.7706        0.296272 
        6.00048         2.76652        0.294382 
        6.01617         2.73929        0.292511 
        6.03185         2.73064        0.290658 
        6.04756         2.71834        0.288817 
        6.06331         2.70256        0.286989 
        6.07903         2.68476         0.28518 
        6.09473         2.67158        0.283389 
        6.11044         2.65854        0.281612 
        6.12616         2.64477        0.279851 
        6.14186         2.63228        0.278106 
        6.15755         2.62215        0.276377 
        6.17326         2.60376        0.274661 
        6.18898         2.58726         0.27296 
        6.20467          2.5736        0.271276 
        6.22036         2.56143        0.269606 
         6.2361         2.55034        0.267946 
         6.2518         2.53837        0.266303 
        6.26748         2.51984        0.264678 
        6.28319         2.50733        0.263062 
        6.29893         2.49606        0.261458 
        6.31463         2.48341         0.25987 
        6.33033          2.4713        0.258297 
        6.34604         2.45286        0.256735 
        6.36177         2.44447        0.255185 
        6.37747         2.43248        0.253651 
