# k  (h/Mpc)    Pcb(k)  (Mpc/h)^3    Pcb_linear(k) (Mpc/h)^3   ShotnoiseSubtracted = true
      0.0200456         20160.5         20507.2 
      0.0350414           15367           14908 
      0.0492313         10618.4         10831.9 
      0.0637834         8562.93         9004.46 
      0.0800726         6723.61         7146.62 
       0.096163         5384.76         5185.49 
       0.111083          4384.9         4136.08 
       0.126058         3626.39         3665.41 
       0.142273         3169.73         3105.41 
       0.158546          2602.1         2452.62 
        0.17375         2317.15         2066.33 
       0.188953         2188.74         1871.02 
       0.204907         1880.76         1655.47 
       0.220756         1697.68         1400.63 
        0.23588         1514.71         1218.42 
         0.2514         1367.83         1106.93 
       0.267535         1322.26         1001.58 
       0.283568         1173.54         883.257 
       0.299022         1119.47         786.936 
       0.314451         1162.43         719.206 
       0.330372         1019.58         659.791 
       0.346141         936.964         598.861 
       0.361624         898.867         544.283 
       0.377134         859.248         500.826 
       0.392932         821.705         463.404 
       0.408854         785.812         427.169 
       0.424564         767.522         393.728 
       0.440253         708.195         365.032 
       0.455999          677.16         340.079 
       0.471626         689.586         317.147 
        0.48727         650.358         295.697 
       0.502856         618.318         276.426 
       0.518488         604.311         259.232 
       0.534347         575.811         243.247 
       0.550082         549.527         228.508 
       0.565732         542.937         215.025 
       0.581496         530.764         202.675 
       0.597222         517.592         191.349 
       0.612804         505.565         180.935 
       0.628434         484.431         171.228 
       0.644267         469.414         162.153 
       0.660051         463.608         153.788 
       0.675724         453.996         146.065 
       0.691403         442.602         138.865 
       0.707174         427.325          132.11 
       0.722871         421.093         125.832 
        0.73838         413.611         120.028 
       0.754018         401.018         114.547 
       0.769845         397.233         109.349 
        0.78569          388.73         104.468 
       0.801365          375.32         99.9345 
       0.817031         372.556         95.6739 
       0.832809         366.307         91.6358 
       0.848511         359.066         87.8501 
       0.864097         349.962         84.3052 
       0.879701         347.896         80.9535 
       0.895507         335.479         77.7454 
       0.911279         329.586         74.7186 
        0.92691         326.544         71.8787 
       0.942635         323.056         69.1714 
       0.958396         312.126         66.5985 
       0.974128         308.988         64.1617 
       0.989692          298.08         61.8713 
        1.00528         297.052         59.6899 
        1.02113         292.212         57.5799 
        1.03692         286.662         55.5801 
        1.05264         281.908         53.6849 
        1.06832         278.344         51.8814 
        1.08405         273.935         50.1562 
        1.09979         269.469         48.5088 
        1.11537         262.791          46.952 
        1.13105         259.192         45.4545 
        1.14679         255.815         44.0168 
        1.16256         253.732         42.6387 
        1.17828         249.497         41.3244 
        1.19395         242.924           40.07 
         1.2097         242.794         38.8616 
        1.22537         238.546          37.709 
          1.241         232.515         36.6068 
        1.25666          230.81         35.5461 
        1.27241         226.956         34.5226 
        1.28819         222.974         33.5377 
        1.30392         221.564         32.5943 
        1.31957         215.192         31.6915 
        1.33529         212.337         30.8197 
        1.35108         211.285         29.9773 
        1.36674         205.424         29.1726 
         1.3824         204.219         28.3982 
        1.39811         202.301         27.6494 
        1.41389         196.383         26.9248 
        1.42964          194.29         26.2275 
        1.44531         192.598         25.5584 
        1.46101         189.095         24.9113 
        1.47667         186.872         24.2885 
        1.49229         184.081         23.6888 
        1.50793         181.183         23.1087 
        1.52367         178.962         22.5443 
        1.53953         174.942         21.9951 
        1.55526          174.01         21.4685 
        1.57092         172.532         20.9614 
        1.58662         168.137         20.4696 
        1.60235          166.56         19.9926 
        1.61809         164.009         19.5306 
        1.63369         161.018         19.0873 
        1.64941         159.291         18.6547 
        1.66519         157.264         18.2339 
        1.68085         154.563         17.8291 
        1.69652         152.826         17.4366 
        1.71228         150.324         17.0536 
        1.72806          148.92         16.6819 
        1.74368         146.914          16.325 
        1.75933         145.711         15.9778 
        1.77505         143.387         15.6391 
        1.79081         140.225         15.3097 
         1.8065         138.783         14.9912 
        1.82218         136.288          14.682 
        1.83797         135.434         14.3795 
        1.85367         133.532         14.0872 
        1.86928         131.678         13.8048 
        1.88497         130.381         13.5285 
        1.90073         128.945         13.2589 
        1.91647         126.465         12.9968 
        1.93218         125.024         12.7424 
        1.94787         123.036         12.4952 
        1.96363         122.442         12.2536 
        1.97935         120.767         12.0188 
        1.99499         119.209         11.7916 
        2.01064         116.663         11.5699 
         2.0264         115.835         11.3525 
        2.04216         114.142         11.1408 
        2.05781         112.577         10.9359 
        2.07353         111.177         10.7354 
        2.08928         109.789         10.5395 
        2.10499          108.68          10.349 
        2.12065         107.439         10.1638 
        2.13633         106.423         9.98297 
        2.15211         104.563         9.80538 
        2.16785         103.245         9.63261 
        2.18349          101.81          9.4651 
        2.19916           100.9         9.30122 
        2.21489         99.8562         9.14068 
        2.23063         98.0032         8.98382 
         2.2463         97.0662         8.83136 
        2.26194         96.1109         8.68281 
        2.27765         94.7588         8.53693 
        2.29341         93.8457         8.39402 
        2.30914         92.5935         8.25468 
        2.32486         90.8984         8.11858 
        2.34061         90.3495         7.98533 
        2.35635          89.225         7.85519 
        2.37203         87.6719          7.7284 
        2.38768          86.916         7.60468 
        2.40339          86.125         7.48322 
        2.41914         84.6526         7.36413 
        2.43483         84.0207         7.24805 
         2.4505         82.9382         7.13468 
        2.46622         81.9127         7.02334 
        2.48195         81.0938         6.91437 
        2.49759          79.951          6.8083 
        2.51328         79.2321         6.70417 
        2.52906         77.7843         6.60157 
        2.54479         77.0674          6.5015 
        2.56049          75.912          6.4037 
        2.57618         75.0175         6.30799 
        2.59189         74.6227          6.2141 
        2.60758         73.0699         6.12227 
        2.62325         72.8026          6.0324 
        2.63898         71.8932         5.94403 
        2.65468         71.0467         5.85761 
        2.67044         69.9743         5.77255 
        2.68618         69.4421         5.68937 
        2.70184         68.4492         5.60816 
        2.71755         67.7384         5.52833 
        2.73329         66.7331         5.44994 
        2.74897         66.3764         5.37332 
        2.76462         65.5037         5.29835 
        2.78034         64.4383          5.2245 
        2.79607         63.8426         5.15197 
        2.81179          63.387         5.08091 
        2.82749         62.8029         5.01127 
        2.84321         62.0213         4.94286 
        2.85893         61.2874         4.87574 
        2.87462         60.5815         4.80999 
        2.89033         60.0372         4.74538 
        2.90605         59.4823         4.68191 
        2.92176          58.663         4.61963 
        2.93747         58.1598         4.55852 
        2.95318         57.3042          4.4985 
        2.96891         56.8062         4.43954 
        2.98456         56.1536         4.38189 
        3.00023         55.5765         4.32518 
        3.01596         55.1007          4.2693 
        3.03164          54.412         4.21456 
        3.04738         54.0544         4.16063 
         3.0631         53.0755         4.10766 
        3.07883         52.5941          4.0556 
        3.09456         52.0286         4.00446 
        3.11026         51.4799         3.95428 
        3.12596         51.0545         3.90497 
        3.14163         50.3539          3.8566 
        3.15734         49.8268         3.80895 
        3.17308         49.3682         3.76198 
        3.18879         48.8397         3.71594 
        3.20447         48.4572         3.67073 
         3.2202         47.7718         3.62614 
         3.2359         47.2454         3.58236 
        3.25157         46.8969         3.53942 
        3.26729         46.3154         3.49704 
        3.28304         45.9237         3.45528 
        3.29877         45.3943         3.41425 
        3.31446         45.0388         3.37398 
        3.33014         44.5092          3.3344 
        3.34585         43.9343         3.29538 
        3.36158         43.5812         3.25694 
        3.37727         43.1331         3.21923 
        3.39294          42.806         3.18215 
        3.40867         42.3502         3.14552 
        3.42439         41.9185         3.10948 
        3.44008         41.3591         3.07408 
        3.45578         41.0637         3.03921 
        3.47153         40.5685          3.0048 
        3.48724         40.1515         2.97098 
        3.50292         39.7881         2.93777 
        3.51859         39.3689         2.90507 
        3.53431         38.8812         2.87277 
        3.55007         38.5876         2.84089 
        3.56577         38.3128         2.80961 
        3.58146         37.8265         2.77882 
        3.59719         37.4555         2.74841 
        3.61292         37.0415         2.71848 
        3.62859         36.8119          2.6891 
        3.64429         36.4731          2.6601 
        3.66003         36.1051         2.63144 
        3.67578         35.7946         2.60321 
        3.69146         35.4879          2.5755 
        3.70712         35.0574         2.54824 
        3.72284         34.7712         2.52128 
        3.73853         34.4923         2.49476 
        3.75422         34.1706          2.4686 
        3.76993         33.8378          2.4428 
        3.78564         33.5977         2.41738 
        3.80137          33.219         2.39228 
        3.81707          32.889         2.36758 
        3.83279         32.5842         2.34322 
        3.84853         32.2597         2.31916 
        3.86424         31.9366         2.29548 
        3.87992         31.7935         2.27217 
        3.89561         31.4771         2.24918 
        3.91134         31.2479         2.22646 
        3.92704         30.8748         2.20409 
        3.94273         30.6067         2.18204 
        3.95845         30.3629         2.16025 
        3.97418         30.0304         2.13876 
        3.98988         29.7168         2.11759 
        4.00554         29.4709         2.09676 
        4.02125         29.2956         2.07615 
        4.03698         28.9178         2.05579 
        4.05268         28.7114         2.03574 
        4.06839         28.3727         2.01595 
         4.0841         28.2254         1.99643 
        4.09983         27.9289         1.97714 
        4.11555         27.6546         1.95811 
        4.13124         27.4553         1.93938 
        4.14693         27.2244         1.92088 
        4.16266         26.8939         1.90258 
        4.17839         26.7308         1.88453 
        4.19408         26.4822         1.86676 
        4.20977         26.2395         1.84921 
        4.22551         26.0203         1.83184 
        4.24123         25.8103         1.81471 
        4.25691         25.5654         1.79784 
        4.27259         25.4295         1.78119 
        4.28831         25.1114         1.76471 
        4.30404         24.9141         1.74843 
        4.31974         24.6345         1.73238 
        4.33543         24.5001         1.71655 
        4.35116         24.2783         1.70088 
        4.36688         24.0812         1.68541 
        4.38255         23.9298         1.67018 
        4.39825         23.6258         1.65512 
        4.41398          23.456         1.64021 
         4.4297         23.2455         1.62549 
        4.44541         23.1143         1.61096 
        4.46111           22.92         1.59662 
        4.47683         22.6737         1.58245 
        4.49251         22.5032         1.56847 
        4.50819         22.3402         1.55467 
         4.5239         22.1238         1.54101 
        4.53962         21.9802          1.5275 
        4.55535         21.7374         1.51415 
        4.57106          21.584         1.50097 
        4.58678         21.4062         1.48795 
         4.6025         21.1855         1.47508 
        4.61821         21.0347         1.46236 
        4.63391         20.8388         1.44982 
         4.6496         20.6885         1.43742 
        4.66532         20.5527         1.42515 
        4.68103         20.3023         1.41302 
        4.69673         20.2376         1.40105 
        4.71241         20.0415         1.38923 
        4.72811         19.8695         1.37753 
        4.74384         19.7003         1.36594 
        4.75955         19.5766         1.35451 
        4.77525         19.4022         1.34321 
        4.79096         19.2445         1.33203 
        4.80669         19.1044         1.32098 
         4.8224         18.9605         1.31005 
        4.83809         18.7923         1.29927 
        4.85379         18.6444          1.2886 
         4.8695         18.4945         1.27804 
        4.88521         18.3389          1.2676 
        4.90093         18.2005         1.25728 
        4.91663         18.0713         1.24708 
        4.93234          17.893         1.23698 
        4.94807         17.7841         1.22699 
        4.96377         17.6756         1.21713 
        4.97943          17.453          1.2074 
        4.99514         17.3461         1.19774 
        5.01086          17.202         1.18819 
        5.02654            17.1         1.17876 
        5.04227         16.9284         1.16941 
          5.058         16.8076         1.16016 
        5.07371         16.7035         1.15102 
        5.08942         16.5447         1.14199 
        5.10513         16.4222         1.13304 
        5.12084         16.3257         1.12419 
        5.13656         16.1494         1.11544 
        5.15225         16.0395         1.10679 
        5.16796         15.9359         1.09822 
        5.18369         15.8201         1.08973 
         5.1994          15.716         1.08135 
        5.21509         15.5999         1.07307 
        5.23079         15.4695         1.06486 
        5.24649         15.3801         1.05674 
        5.26217         15.2433         1.04872 
        5.27788         15.1054         1.04076 
        5.29359         15.0078         1.03289 
        5.30933         14.8939         1.02508 
        5.32504         14.7511         1.01738 
        5.34073         14.6883         1.00975 
        5.35646         14.5738         1.00219 
        5.37218         14.4262        0.994711 
        5.38789         14.3434        0.987316 
        5.40357         14.2442        0.980004 
        5.41929         14.1387        0.972751 
        5.43502         14.0208         0.96557 
         5.4507         13.9467        0.958478 
        5.46639         13.8421        0.951457 
        5.48212         13.7267         0.94449 
        5.49786         13.6249        0.937584 
        5.51353         13.5243        0.930781 
        5.52921         13.4238        0.924039 
        5.54495         13.3083        0.917343 
        5.56066         13.2383        0.910722 
        5.57637         13.1314        0.904166 
        5.59207         13.0308        0.897681 
        5.60778         12.9359        0.891257 
        5.62346         12.8712        0.884905 
        5.63916         12.7479        0.878609 
        5.65487         12.6639         0.87237 
         5.6706         12.5834        0.866185 
        5.68633         12.5061        0.860057 
        5.70203         12.4005        0.854002 
        5.71773         12.3131        0.848005 
        5.73344         12.2347        0.842063 
        5.74916         12.1466        0.836173 
        5.76486         12.0652        0.830346 
        5.78054         11.9778        0.824584 
        5.79626         11.8706        0.818861 
          5.812          11.811        0.813186 
         5.8277         11.7303        0.807582 
        5.84339         11.6339         0.80203 
        5.85911         11.5489         0.79652 
        5.87484         11.4886        0.791062 
        5.89053         11.3898        0.785667 
        5.90623         11.2993        0.780319 
        5.92195         11.2102        0.775011 
        5.93767         11.1382        0.769756 
        5.95336         11.0966        0.764559 
        5.96905         11.0032        0.759411 
        5.98476         10.9544        0.754303 
        6.00048          10.849        0.749241 
        6.01617         10.7714        0.744231 
        6.03185         10.7169        0.739274 
        6.04756         10.6313         0.73435 
        6.06331         10.5521         0.72946 
        6.07903         10.4823        0.724625 
        6.09473         10.4264        0.719838 
        6.11044         10.3378         0.71509 
        6.12616         10.2562        0.710386 
        6.14186         10.1904        0.705729 
        6.15755          10.139        0.701113 
        6.17326         10.0589        0.696536 
        6.18898         9.98617        0.691997 
        6.20467         9.93216        0.687506 
        6.22036         9.87234        0.683056 
         6.2361         9.78958        0.678633 
         6.2518         9.75621        0.674256 
        6.26748         9.67793        0.669928 
        6.28319         9.61858        0.665625 
        6.29893          9.5469        0.661357 
        6.31463         9.48297        0.657133 
        6.33033         9.41377        0.652948 
        6.34604         9.34615        0.648796 
        6.36177         9.30467        0.644676 
        6.37747         9.23207        0.640599 
