# k  (h/Mpc)    Pcb(k)  (Mpc/h)^3    Pcb_linear(k) (Mpc/h)^3   ShotnoiseSubtracted = true
      0.0200456         3648.27         3696.16 
      0.0350414         2735.79         2686.98 
      0.0492313         1952.95         1952.31 
      0.0637834         1592.64         1622.94 
      0.0800726         1259.19         1288.09 
       0.096163         957.034         934.619 
       0.111083         771.987         745.476 
       0.126058         656.558         660.644 
       0.142273         557.449          559.71 
       0.158546         452.261         442.054 
        0.17375         388.847          372.43 
       0.188953         351.775         337.227 
       0.204907          299.96         298.377 
       0.220756         265.158         252.445 
        0.23588         232.525         219.605 
         0.2514         209.749         199.509 
       0.267535         196.435         180.522 
       0.283568         171.923         159.196 
       0.299022         158.743         141.835 
       0.314451         151.199         129.628 
       0.330372         133.661         118.919 
       0.346141         122.726         107.937 
       0.361624         113.795            98.1 
       0.377134         103.947         90.2675 
       0.392932         100.895         83.5227 
       0.408854         93.3151         76.9918 
       0.424564         88.9353         70.9645 
       0.440253         80.9787         65.7923 
       0.455999         74.4591         61.2949 
       0.471626         71.0394         57.1618 
        0.48727         69.0163         53.2955 
       0.502856         63.9189         49.8223 
       0.518488         60.7934         46.7232 
       0.534347         57.3538         43.8422 
       0.550082         55.2966         41.1857 
       0.565732         53.4004         38.7555 
       0.581496         49.7568         36.5296 
       0.597222         47.5391         34.4883 
       0.612804         45.6563         32.6112 
       0.628434          44.751         30.8616 
       0.644267         42.3052         29.2259 
       0.660051         40.4413         27.7184 
       0.675724         38.8074         26.3263 
       0.691403         38.1424         25.0287 
       0.707174          36.731         23.8112 
       0.722871         35.5218         22.6796 
        0.73838         33.8337         21.6336 
       0.754018         32.1048         20.6456 
       0.769845         31.5367         19.7087 
        0.78569         30.4276         18.8291 
       0.801365         29.4953         18.0119 
       0.817031         28.3559          17.244 
       0.832809         27.7693         16.5162 
       0.848511         26.8509         15.8339 
       0.864097         26.1184         15.1949 
       0.879701         25.6835         14.5908 
       0.895507         24.7077         14.0126 
       0.911279         23.8324         13.4671 
        0.92691         23.4325         12.9552 
       0.942635         22.9099         12.4673 
       0.958396         22.2726         12.0035 
       0.974128          21.678         11.5643 
       0.989692         20.7942         11.1515 
        1.00528         20.6478         10.7583 
        1.02113         20.0146          10.378 
        1.03692         19.6069         10.0176 
        1.05264         19.2111         9.67602 
        1.06832         18.8406         9.35095 
        1.08405         18.2929         9.04002 
        1.09979         17.9551         8.74309 
        1.11537          17.444          8.4625 
        1.13105         17.1924         8.19259 
        1.14679         16.7608         7.93346 
        1.16256         16.4761         7.68508 
        1.17828         16.1735         7.44819 
        1.19395         15.9172         7.22211 
         1.2097         15.4868         7.00431 
        1.22537         15.2296         6.79657 
          1.241         14.8959         6.59791 
        1.25666         14.7437         6.40673 
        1.27241         14.4659         6.22225 
        1.28819         13.9027         6.04475 
        1.30392         14.0122         5.87471 
        1.31957         13.6169         5.71199 
        1.33529         13.4204         5.55486 
        1.35108         13.2259         5.40303 
        1.36674         12.9285         5.25798 
         1.3824         12.7295         5.11841 
        1.39811         12.5162         4.98345 
        1.41389         12.3173         4.85286 
        1.42964         12.1456         4.72718 
        1.44531         11.9544         4.60658 
        1.46101         11.7951         4.48994 
        1.47667         11.5918          4.3777 
        1.49229         11.3249          4.2696 
        1.50793         11.2308         4.16504 
        1.52367         11.0839         4.06332 
        1.53953          10.884         3.96433 
        1.55526         10.7101         3.86943 
        1.57092         10.6458         3.77803 
        1.58662         10.4549         3.68938 
        1.60235         10.3241         3.60341 
        1.61809         10.1887         3.52014 
        1.63369          9.9947         3.44025 
        1.64941         9.87689         3.36227 
        1.66519         9.74836         3.28643 
        1.68085          9.5759         3.21347 
        1.69652         9.54402         3.14272 
        1.71228          9.4034         3.07369 
        1.72806         9.23691         3.00669 
        1.74368         9.14694         2.94237 
        1.75933         9.05248          2.8798 
        1.77505          8.8953         2.81876 
        1.79081         8.81318         2.75938 
         1.8065         8.75923         2.70197 
        1.82218         8.63899         2.64625 
        1.83797         8.50446         2.59172 
        1.85367          8.4132         2.53903 
        1.86928         8.30812         2.48813 
        1.88497         8.23074         2.43835 
        1.90073         8.10958         2.38974 
        1.91647         7.93106         2.34251 
        1.93218         7.92205         2.29666 
        1.94787         7.79249          2.2521 
        1.96363         7.73342         2.20855 
        1.97935         7.69331         2.16624 
        1.99499         7.57975         2.12528 
        2.01064         7.48781         2.08533 
         2.0264         7.40634         2.04615 
        2.04216         7.38853         2.00799 
        2.05781         7.29047         1.97106 
        2.07353         7.19032         1.93492 
        2.08928         7.07803         1.89961 
        2.10499         7.02527         1.86528 
        2.12065         7.01173         1.83189 
        2.13633         6.90862          1.7993 
        2.15211         6.83678          1.7673 
        2.16785         6.72657         1.73616 
        2.18349         6.72788         1.70596 
        2.19916         6.63457         1.67643 
        2.21489         6.57959         1.64749 
        2.23063         6.52162         1.61922 
         2.2463         6.42665         1.59174 
        2.26194         6.35982         1.56497 
        2.27765         6.30288         1.53867 
        2.29341          6.2096         1.51291 
        2.30914         6.21731          1.4878 
        2.32486          6.1247         1.46327 
        2.34061         6.08742         1.43925 
        2.35635         6.01542          1.4158 
        2.37203         5.97541         1.39295 
        2.38768         5.92177         1.37065 
        2.40339         5.86366         1.34875 
        2.41914         5.82466         1.32729 
        2.43483         5.77328         1.30637 
         2.4505         5.70284         1.28593 
        2.46622         5.64419         1.26587 
        2.48195         5.64385         1.24623 
        2.49759         5.53374         1.22711 
        2.51328         5.51806         1.20834 
        2.52906          5.4516         1.18985 
        2.54479         5.41178         1.17181 
        2.56049         5.37185         1.15418 
        2.57618         5.33436         1.13693 
        2.59189         5.32927         1.12001 
        2.60758         5.24869         1.10346 
        2.62325         5.17501         1.08726 
        2.63898          5.1858         1.07134 
        2.65468         5.11514         1.05576 
        2.67044          5.0799         1.04043 
        2.68618         5.03165         1.02544 
        2.70184         5.01802          1.0108 
        2.71755         4.94824        0.996412 
        2.73329         4.90906        0.982282 
        2.74897         4.88385        0.968473 
        2.76462         4.84166         0.95496 
        2.78034         4.80825        0.941649 
        2.79607         4.76228        0.928577 
        2.81179         4.72885        0.915769 
        2.82749         4.67651        0.903217 
        2.84321         4.65883        0.890887 
        2.85893         4.61982         0.87879 
        2.87462         4.59332        0.866938 
        2.89033         4.56254        0.855295 
        2.90605         4.52266        0.843855 
        2.92176         4.46715         0.83263 
        2.93747         4.44951        0.821616 
        2.95318         4.40686        0.810798 
        2.96891         4.38796         0.80017 
        2.98456         4.34968        0.789779 
        3.00023          4.3324        0.779558 
        3.01596         4.27741        0.769487 
        3.03164         4.25098        0.759621 
        3.04738          4.2349          0.7499 
         3.0631         4.21143        0.740353 
        3.07883         4.16805        0.730971 
        3.09456         4.12221        0.721753 
        3.11026          4.1128        0.712709 
        3.12596         4.08335         0.70382 
        3.14163         4.05152        0.695104 
        3.15734         4.02159        0.686515 
        3.17308         3.99696         0.67805 
        3.18879         3.97643        0.669751 
        3.20447         3.94809        0.661603 
         3.2202         3.90989        0.653565 
         3.2359         3.88344        0.645676 
        3.25157         3.86926        0.637935 
        3.26729          3.8409        0.630297 
        3.28304         3.80499         0.62277 
        3.29877         3.78712        0.615376 
        3.31446         3.76934        0.608117 
        3.33014         3.72815        0.600982 
        3.34585          3.7201        0.593951 
        3.36158          3.6852        0.587022 
        3.37727          3.6659        0.580225 
        3.39294         3.64256        0.573541 
        3.40867         3.62262        0.566939 
        3.42439         3.57468        0.560445 
        3.44008         3.56784        0.554064 
        3.45578         3.54372        0.547779 
        3.47153         3.51935        0.541577 
        3.48724          3.5047        0.535482 
        3.50292         3.47847        0.529495 
        3.51859         3.45176        0.523602 
        3.53431         3.43184        0.517781 
        3.55007         3.41791        0.512034 
        3.56577         3.38182        0.506396 
        3.58146         3.37142        0.500846 
        3.59719         3.35392        0.495367 
        3.61292         3.32798        0.489971 
        3.62859         3.31551        0.484676 
        3.64429         3.28118        0.479449 
        3.66003         3.27458        0.474283 
        3.67578         3.25077        0.469195 
        3.69146         3.22324        0.464201 
        3.70712         3.21193        0.459288 
        3.72284         3.18954        0.454429 
        3.73853          3.1704        0.449648 
        3.75422         3.14318        0.444934 
        3.76993         3.12927        0.440284 
        3.78564          3.1103        0.435702 
        3.80137         3.08985        0.431177 
        3.81707         3.07811        0.426727 
        3.83279         3.05068        0.422335 
        3.84853         3.03289        0.417999 
        3.86424         3.01461        0.413731 
        3.87992         2.99768         0.40953 
        3.89561         2.97951        0.405386 
        3.91134         2.95968        0.401292 
        3.92704         2.93843        0.397259 
        3.94273         2.92186        0.393285 
        3.95845         2.90555        0.389358 
        3.97418         2.89383        0.385484 
        3.98988          2.8731        0.381668 
        4.00554         2.85419        0.377914 
        4.02125         2.82884        0.374199 
        4.03698          2.8175        0.370529 
        4.05268         2.79909        0.366916 
        4.06839          2.7828        0.363349 
         4.0841          2.7653        0.359831 
        4.09983         2.74637        0.356354 
        4.11555         2.72967        0.352924 
        4.13124         2.71509        0.349549 
        4.14693           2.697        0.346215 
        4.16266         2.68441        0.342917 
        4.17839           2.662        0.339663 
        4.19408         2.64786         0.33646 
        4.20977         2.63342        0.333296 
        4.22551         2.61348        0.330165 
        4.24123         2.59979        0.327078 
        4.25691         2.58625        0.324039 
        4.27259         2.56765        0.321037 
        4.28831         2.54569        0.318067 
        4.30404         2.54384        0.315132 
        4.31974         2.52804         0.31224 
        4.33543         2.49998        0.309386 
        4.35116         2.49363        0.306562 
        4.36688         2.47941        0.303773 
        4.38255          2.4612        0.301029 
        4.39825         2.44819        0.298314 
        4.41398         2.44049        0.295626 
         4.4297         2.41957        0.292974 
        4.44541         2.40387        0.290356 
        4.46111         2.39234        0.287771 
        4.47683         2.38044        0.285216 
        4.49251         2.36719        0.282697 
        4.50819         2.35085        0.280209 
         4.5239         2.34325        0.277748 
        4.53962         2.32784        0.275313 
        4.55535         2.31304        0.272906 
        4.57106         2.30057        0.270531 
        4.58678         2.28365        0.268184 
         4.6025         2.27426        0.265865 
        4.61821         2.26681        0.263573 
        4.63391         2.25035        0.261311 
         4.6496         2.24142        0.259076 
        4.66532         2.22793        0.256864 
        4.68103         2.21198        0.254679 
        4.69673         2.20105        0.252522 
        4.71241         2.19116        0.250391 
        4.72811         2.18033        0.248282 
        4.74384          2.1722        0.246194 
        4.75955         2.15647        0.244133 
        4.77525         2.14363        0.242097 
        4.79096         2.13403        0.240082 
        4.80669         2.12504        0.238089 
         4.8224          2.1118        0.236121 
        4.83809         2.10142        0.234176 
        4.85379         2.09325        0.232253 
         4.8695         2.08152         0.23035 
        4.88521         2.07046        0.228469 
        4.90093         2.06515        0.226608 
        4.91663         2.04855         0.22477 
        4.93234         2.04286         0.22295 
        4.94807         2.03461        0.221149 
        4.96377         2.01633        0.219372 
        4.97943         2.01077        0.217618 
        4.99514         1.99701        0.215878 
        5.01086         1.98791        0.214156 
        5.02654         1.97911        0.212457 
        5.04227         1.97145        0.210772 
          5.058         1.96306        0.209104 
        5.07371          1.9554        0.207458 
        5.08942         1.94603        0.205828 
        5.10513         1.93419        0.204217 
        5.12084         1.91957        0.202621 
        5.13656         1.91386        0.201043 
        5.15225         1.90194        0.199485 
        5.16796         1.89468         0.19794 
        5.18369         1.88678        0.196411 
         5.1994         1.87785          0.1949 
        5.21509         1.87191        0.193407 
        5.23079         1.86316        0.191927 
        5.24649         1.85638        0.190464 
        5.26217          1.8462        0.189018 
        5.27788          1.8343        0.187584 
        5.29359         1.82913        0.186165 
        5.30933         1.82232        0.184758 
        5.32504         1.81516        0.183369 
        5.34073         1.80135        0.181995 
        5.35646         1.79343        0.180633 
        5.37218         1.79057        0.179284 
        5.38789         1.77669        0.177951 
        5.40357         1.77173        0.176633 
        5.41929          1.7632        0.175326 
        5.43502         1.75821        0.174032 
         5.4507         1.74559        0.172753 
        5.46639         1.74023        0.171488 
        5.48212         1.73403        0.170232 
        5.49786         1.72479        0.168987 
        5.51353         1.71878        0.167761 
        5.52921          1.7084        0.166546 
        5.54495         1.70598        0.165339 
        5.56066         1.69408        0.164146 
        5.57637         1.68288        0.162964 
        5.59207            1.68        0.161796 
        5.60778          1.6777        0.160638 
        5.62346         1.66256        0.159493 
        5.63916         1.65926        0.158358 
        5.65487          1.6518        0.157234 
         5.6706         1.64633        0.156119 
        5.68633         1.63642        0.155014 
        5.70203         1.63212        0.153923 
        5.71773         1.62356        0.152842 
        5.73344         1.61907        0.151771 
        5.74916         1.61391        0.150709 
        5.76486          1.6036        0.149659 
        5.78054         1.59661        0.148621 
        5.79626          1.5943        0.147589 
          5.812         1.58347        0.146566 
         5.8277         1.57875        0.145556 
        5.84339          1.5715        0.144556 
        5.85911         1.56649        0.143563 
        5.87484         1.55688        0.142579 
        5.89053         1.55432        0.141606 
        5.90623         1.55062        0.140643 
        5.92195         1.54112        0.139686 
        5.93767         1.53408        0.138739 
        5.95336         1.53256        0.137802 
        5.96905         1.52086        0.136874 
        5.98476         1.51677        0.135954 
        6.00048         1.51126        0.135041 
        6.01617         1.50494        0.134138 
        6.03185         1.49864        0.133245 
        6.04756         1.49473        0.132357 
        6.06331         1.48837        0.131476 
        6.07903         1.48254        0.130604 
        6.09473         1.47658        0.129742 
        6.11044          1.4702        0.128886 
        6.12616         1.46214        0.128038 
        6.14186           1.458        0.127199 
        6.15755         1.45397        0.126367 
        6.17326         1.44914        0.125542 
        6.18898         1.44393        0.124724 
        6.20467          1.4404        0.123914 
        6.22036         1.43419        0.123112 
         6.2361         1.42913        0.122315 
         6.2518         1.42395        0.121526 
        6.26748         1.41799        0.120746 
        6.28319           1.411         0.11997 
        6.29893         1.40514        0.119201 
        6.31463         1.40135         0.11844 
        6.33033         1.39476        0.117686 
        6.34604         1.39202        0.116937 
        6.36177         1.38441        0.116195 
        6.37747         1.38145         0.11546 
