# k  (h/Mpc)    Pcb(k)  (Mpc/h)^3    Pcb_linear(k) (Mpc/h)^3   ShotnoiseSubtracted = true
      0.0200456         1160.26         1175.15 
      0.0350414         864.881         854.293 
      0.0492313         622.679         620.713 
      0.0637834         510.671         515.993 
      0.0800726          404.25         409.531 
       0.096163         301.905          297.15 
       0.111083          242.26         237.015 
       0.126058         208.959         210.043 
       0.142273         176.657         177.953 
       0.158546         141.807         140.546 
        0.17375         120.938         118.409 
       0.188953         108.645         107.217 
       0.204907         93.6033         94.8653 
       0.220756         81.4408         80.2618 
        0.23588         71.0185         69.8208 
         0.2514         64.4085         63.4315 
       0.267535         58.9291         57.3946 
       0.283568         51.8612         50.6143 
       0.299022         46.7592         45.0947 
       0.314451         43.6501         41.2135 
       0.330372         39.3556         37.8088 
       0.346141         35.8411         34.3172 
       0.361624         32.6529         31.1897 
       0.377134         29.9044         28.6994 
       0.392932         28.6645          26.555 
       0.408854         25.9334         24.4786 
       0.424564          24.617         22.5623 
       0.440253         22.4797         20.9178 
       0.455999         20.5845         19.4879 
       0.471626         19.3331         18.1739 
        0.48727          18.604         16.9446 
       0.502856         17.4172         15.8404 
       0.518488         16.0776         14.8551 
       0.534347          15.051         13.9391 
       0.550082         14.4279         13.0945 
       0.565732         13.7944         12.3218 
       0.581496          12.968         11.6141 
       0.597222         12.2063         10.9651 
       0.612804         11.5194         10.3683 
       0.628434         11.1498         9.81207 
       0.644267         10.5782         9.29202 
       0.660051         10.0122         8.81271 
       0.675724         9.46628         8.37012 
       0.691403         9.15043         7.95756 
       0.707174         8.70921         7.57048 
       0.722871         8.47798         7.21069 
        0.73838         7.93238         6.87812 
       0.754018         7.56752         6.56403 
       0.769845         7.22112         6.26613 
        0.78569         7.03292         5.98647 
       0.801365         6.71847         5.72666 
       0.817031         6.48926         5.48251 
       0.832809         6.16973         5.25112 
       0.848511         5.99388         5.03418 
       0.864097         5.77292         4.83104 
       0.879701         5.62269         4.63898 
       0.895507         5.38343         4.45514 
       0.911279          5.1824         4.28169 
        0.92691         5.03306         4.11895 
       0.942635         4.82575         3.96381 
       0.958396         4.66853         3.81637 
       0.974128         4.54552         3.67673 
       0.989692         4.33726         3.54549 
        1.00528         4.25144         3.42048 
        1.02113          4.1202         3.29957 
        1.03692         4.01141         3.18497 
        1.05264         3.84984         3.07637 
        1.06832         3.75151         2.97302 
        1.08405         3.64062         2.87416 
        1.09979         3.55066         2.77976 
        1.11537         3.44356         2.69055 
        1.13105         3.32944         2.60473 
        1.14679          3.2455         2.52235 
        1.16256         3.14145         2.44338 
        1.17828         3.09803         2.36806 
        1.19395         2.98169         2.29618 
         1.2097         2.89809         2.22693 
        1.22537           2.806         2.16088 
          1.241         2.74947         2.09772 
        1.25666         2.70885         2.03694 
        1.27241         2.64276         1.97829 
        1.28819         2.53769         1.92185 
        1.30392         2.47847         1.86779 
        1.31957         2.44094         1.81606 
        1.33529         2.34691          1.7661 
        1.35108         2.30447         1.71783 
        1.36674         2.24386         1.67171 
         1.3824         2.21589         1.62733 
        1.39811         2.15279         1.58443 
        1.41389         2.09931         1.54291 
        1.42964         2.05442         1.50295 
        1.44531          2.0188          1.4646 
        1.46101         1.96825         1.42752 
        1.47667         1.93112         1.39183 
        1.49229         1.86557         1.35747 
        1.50793         1.82086         1.32422 
        1.52367          1.7887         1.29188 
        1.53953         1.74466         1.26041 
        1.55526         1.74004         1.23024 
        1.57092         1.69648         1.20118 
        1.58662         1.67662         1.17299 
        1.60235         1.61798         1.14566 
        1.61809         1.59258         1.11918 
        1.63369         1.55411         1.09378 
        1.64941         1.52923         1.06899 
        1.66519         1.50669         1.04488 
        1.68085         1.46769         1.02168 
        1.69652         1.44183        0.999188 
        1.71228         1.41116        0.977242 
        1.72806         1.38963         0.95594 
        1.74368         1.36419        0.935488 
        1.75933         1.34323        0.915595 
        1.77505         1.31888        0.896188 
        1.79081         1.28389         0.87731 
         1.8065         1.27095        0.859058 
        1.82218          1.2401        0.841343 
        1.83797         1.21817        0.824006 
        1.85367         1.19998        0.807254 
        1.86928         1.17932         0.79107 
        1.88497         1.15479        0.775242 
        1.90073         1.14576        0.759789 
        1.91647         1.11486        0.744772 
        1.93218         1.10077        0.730193 
        1.94787         1.08266        0.716026 
        1.96363         1.06762         0.70218 
        1.97935         1.04662        0.688729 
        1.99499          1.0308        0.675707 
        2.01064         1.01492        0.663003 
         2.0264        0.993482        0.650547 
        2.04216        0.983522        0.638417 
        2.05781        0.964188        0.626673 
        2.07353        0.953629        0.615183 
        2.08928        0.936313        0.603957 
        2.10499        0.921432        0.593041 
        2.12065        0.906062        0.582428 
        2.13633        0.894744        0.572066 
        2.15211        0.875593        0.561889 
        2.16785        0.867808        0.551989 
        2.18349        0.852461         0.54239 
        2.19916        0.843167        0.532999 
        2.21489        0.829893        0.523799 
        2.23063        0.813217        0.514811 
         2.2463        0.803081        0.506074 
        2.26194        0.793986        0.497562 
        2.27765        0.780674        0.489202 
        2.29341        0.770492        0.481012 
        2.30914        0.755592        0.473028 
        2.32486        0.748748        0.465229 
        2.34061        0.736952        0.457593 
        2.35635        0.726621        0.450135 
        2.37203        0.717464         0.44287 
        2.38768         0.70819         0.43578 
        2.40339         0.70035         0.42882 
        2.41914        0.691012        0.421995 
        2.43483        0.680994        0.415344 
         2.4505        0.671118        0.408847 
        2.46622        0.662765        0.402467 
        2.48195        0.653341        0.396222 
        2.49759         0.64596        0.390144 
        2.51328        0.635015        0.384177 
        2.52906        0.628882        0.378298 
        2.54479        0.619198        0.372563 
        2.56049        0.612829        0.366958 
        2.57618         0.60513        0.361474 
        2.59189        0.597037        0.356094 
        2.60758        0.590972        0.350831 
        2.62325        0.582265        0.345682 
        2.63898        0.577447        0.340618 
        2.65468        0.566674        0.335666 
        2.67044        0.562171        0.330791 
        2.68618        0.557003        0.326024 
        2.70184        0.547882        0.321371 
        2.71755         0.54177        0.316797 
        2.73329        0.536817        0.312304 
        2.74897        0.528804        0.307914 
        2.76462        0.522264        0.303617 
        2.78034        0.516759        0.299385 
        2.79607        0.511988         0.29523 
        2.81179        0.504537        0.291157 
        2.82749        0.499491        0.287167 
        2.84321        0.492856        0.283246 
        2.85893        0.486911          0.2794 
        2.87462        0.481485        0.275632 
        2.89033        0.479452         0.27193 
        2.90605        0.473506        0.268293 
        2.92176        0.468424        0.264724 
        2.93747        0.462613        0.261222 
        2.95318        0.457735        0.257783 
        2.96891        0.454457        0.254404 
        2.98456        0.446566          0.2511 
        3.00023         0.44329        0.247851 
        3.01596        0.438812        0.244649 
        3.03164        0.434265        0.241512 
        3.04738        0.429707        0.238421 
         3.0631        0.424347        0.235386 
        3.07883        0.420839        0.232403 
        3.09456        0.417634        0.229472 
        3.11026        0.412577        0.226597 
        3.12596        0.407815        0.223771 
        3.14163        0.405882           0.221 
        3.15734        0.401185        0.218269 
        3.17308        0.396929        0.215577 
        3.18879        0.393886        0.212939 
        3.20447         0.38923        0.210348 
         3.2202        0.385002        0.207793 
         3.2359        0.381543        0.205284 
        3.25157        0.375884        0.202823 
        3.26729        0.375543        0.200395 
        3.28304        0.371498        0.198002 
        3.29877        0.368074        0.195651 
        3.31446        0.366032        0.193343 
        3.33014        0.360765        0.191075 
        3.34585        0.357979        0.188839 
        3.36158        0.355068        0.186636 
        3.37727        0.352203        0.184475 
        3.39294        0.350041         0.18235 
        3.40867        0.345084        0.180251 
        3.42439        0.343003        0.178186 
        3.44008        0.339933        0.176158 
        3.45578        0.336885        0.174159 
        3.47153        0.334892        0.172188 
        3.48724        0.331856         0.17025 
        3.50292        0.328797        0.168346 
        3.51859        0.326498        0.166473 
        3.53431        0.323399        0.164622 
        3.55007        0.321178        0.162795 
        3.56577        0.318248        0.161002 
        3.58146          0.3157        0.159238 
        3.59719        0.313418        0.157496 
        3.61292        0.310833         0.15578 
        3.62859        0.308611        0.154097 
        3.64429        0.305857        0.152435 
        3.66003        0.303065        0.150792 
        3.67578        0.301541        0.149175 
        3.69146        0.298408        0.147587 
        3.70712        0.297235        0.146025 
        3.72284        0.295409         0.14448 
        3.73853        0.292982         0.14296 
        3.75422        0.290082        0.141461 
        3.76993        0.287994        0.139983 
        3.78564        0.285326        0.138526 
        3.80137        0.283443        0.137087 
        3.81707        0.281893        0.135672 
        3.83279        0.279606        0.134276 
        3.84853        0.277077        0.132897 
        3.86424         0.27584        0.131541 
        3.87992         0.27352        0.130205 
        3.89561        0.271472        0.128888 
        3.91134        0.269166        0.127586 
        3.92704        0.266985        0.126303 
        3.94273           0.266         0.12504 
        3.95845        0.263488        0.123791 
        3.97418        0.262176         0.12256 
        3.98988        0.259422        0.121346 
        4.00554        0.256828        0.120153 
        4.02125        0.254762        0.118972 
        4.03698        0.252077        0.117805 
        4.05268        0.249132        0.116657 
        4.06839        0.247445        0.115522 
         4.0841        0.244579        0.114404 
        4.09983        0.242777        0.113298 
        4.11555        0.239809        0.112208 
        4.13124        0.237884        0.111135 
        4.14693         0.23545        0.110075 
        4.16266        0.232753        0.109026 
        4.17839        0.230874        0.107992 
        4.19408        0.228738        0.106973 
        4.20977        0.227306        0.105967 
        4.22551        0.225048        0.104972 
        4.24123        0.222781         0.10399 
        4.25691        0.221566        0.103024 
        4.27259        0.219405         0.10207 
        4.28831         0.21809        0.101125 
        4.30404        0.215942        0.100192 
        4.31974        0.214553       0.0992729 
        4.33543        0.212852       0.0983656 
        4.35116        0.211892       0.0974674 
        4.36688        0.210221       0.0965808 
        4.38255        0.208027       0.0957085 
        4.39825        0.207342       0.0948451 
        4.41398        0.205948       0.0939906 
         4.4297        0.204659       0.0931476 
        4.44541        0.203193        0.092315 
        4.46111        0.202349       0.0914933 
        4.47683        0.201476       0.0906809 
        4.49251        0.200016       0.0898801 
        4.50819        0.199526       0.0890891 
         4.5239        0.198431       0.0883065 
        4.53962        0.197088       0.0875323 
        4.55535        0.196305       0.0867671 
        4.57106         0.19576        0.086012 
        4.58678        0.194254       0.0852658 
         4.6025        0.194215       0.0845283 
        4.61821        0.193817       0.0837996 
        4.63391         0.19307       0.0830805 
         4.6496        0.192076         0.08237 
        4.66532        0.191696       0.0816668 
        4.68103         0.19077       0.0809721 
        4.69673        0.190644       0.0802861 
        4.71241        0.190211       0.0796087 
        4.72811        0.190381       0.0789381 
        4.74384         0.18955       0.0782743 
        4.75955        0.189107       0.0776191 
        4.77525        0.189078       0.0769718 
        4.79096        0.188684       0.0763311 
        4.80669        0.188316       0.0756974 
         4.8224        0.188525       0.0750716 
        4.83809        0.188091       0.0744535 
        4.85379        0.188062        0.073842 
         4.8695        0.188706       0.0732368 
        4.88521        0.188136       0.0726387 
        4.90093        0.188529       0.0720472 
        4.91663        0.188398       0.0714628 
        4.93234        0.188281       0.0708842 
        4.94807        0.188877       0.0703117 
        4.96377        0.189296       0.0697466 
        4.97943        0.189638       0.0691888 
        4.99514        0.188801       0.0686357 
        5.01086        0.190489       0.0680882 
        5.02654        0.190347       0.0675481 
        5.04227        0.190842       0.0670123 
          5.058        0.191919        0.066482 
        5.07371        0.191697       0.0659585 
        5.08942        0.192901       0.0654406 
        5.10513        0.193497       0.0649281 
        5.12084        0.193839       0.0644209 
        5.13656        0.194473       0.0639192 
        5.15225        0.195368       0.0634237 
        5.16796        0.196478       0.0629326 
        5.18369        0.197017       0.0624463 
         5.1994         0.19828       0.0619661 
        5.21509        0.198282       0.0614912 
        5.23079         0.19936       0.0610209 
        5.24649        0.200502       0.0605557 
        5.26217        0.201893       0.0600958 
        5.27788        0.202451         0.05964 
        5.29359        0.204079       0.0591888 
        5.30933        0.205159       0.0587416 
        5.32504        0.206047       0.0582998 
        5.34073        0.208005       0.0578631 
        5.35646        0.208851       0.0574299 
        5.37218        0.210259       0.0570011 
        5.38789         0.21069       0.0565773 
        5.40357        0.212528       0.0561583 
        5.41929         0.21374       0.0557427 
        5.43502        0.216104       0.0553312 
         5.4507        0.217143       0.0549248 
        5.46639        0.218818       0.0545225 
        5.48212        0.219992       0.0541232 
        5.49786        0.221649       0.0537275 
        5.51353        0.224705       0.0533376 
        5.52921        0.224573       0.0529513 
        5.54495        0.227193       0.0525676 
        5.56066        0.228814       0.0521882 
        5.57637        0.230535       0.0518125 
        5.59207        0.232703       0.0514409 
        5.60778         0.23411       0.0510728 
        5.62346        0.236958       0.0507088 
        5.63916        0.238045       0.0503479 
        5.65487        0.240488       0.0499905 
         5.6706        0.241032        0.049636 
        5.68633        0.244899       0.0492849 
        5.70203        0.247809       0.0489379 
        5.71773        0.248474       0.0485942 
        5.73344         0.25092       0.0482537 
        5.74916        0.253775       0.0479162 
        5.76486        0.256266       0.0475823 
        5.78054         0.25723       0.0472521 
        5.79626        0.259517       0.0469241 
          5.812        0.262849        0.046599 
         5.8277        0.264894       0.0462778 
        5.84339        0.266893       0.0459597 
        5.85911        0.270398       0.0456439 
        5.87484        0.271936       0.0453312 
        5.89053        0.275065        0.045022 
        5.90623        0.276339       0.0447155 
        5.92195         0.27917       0.0444114 
        5.93767        0.281333       0.0441103 
        5.95336        0.283594       0.0438124 
        5.96905         0.28681       0.0435174 
        5.98476        0.289688       0.0432247 
        6.00048        0.291271       0.0429346 
        6.01617        0.295797       0.0426476 
        6.03185        0.297326       0.0423635 
        6.04756        0.298821       0.0420813 
        6.06331        0.301638       0.0418011 
        6.07903         0.30596        0.041524 
        6.09473         0.30777       0.0412497 
        6.11044        0.310018       0.0409777 
        6.12616         0.31353       0.0407081 
        6.14186         0.31576       0.0404412 
        6.15755        0.320311       0.0401767 
        6.17326        0.321522       0.0399144 
        6.18898        0.323563       0.0396543 
        6.20467        0.324418        0.039397 
        6.22036         0.33038       0.0391419 
         6.2361         0.33056       0.0388885 
         6.2518        0.334839       0.0386377 
        6.26748        0.336769       0.0383897 
        6.28319        0.341101       0.0381431 
        6.29893        0.342522       0.0378985 
        6.31463        0.345462       0.0376565 
        6.33033          0.3481       0.0374166 
        6.34604        0.351996       0.0371787 
        6.36177        0.352679       0.0369426 
        6.37747        0.355845        0.036709 
