# k  (h/Mpc)    Pcb(k)  (Mpc/h)^3    Pcb_linear(k) (Mpc/h)^3   ShotnoiseSubtracted = true
      0.0200456         18676.6         18990.6 
      0.0350414         14221.9         13805.5 
      0.0492313         9850.41         10030.8 
      0.0637834         7946.73         8338.55 
      0.0800726         6243.08          6618.1 
       0.096163         4983.57         4802.01 
       0.111083         4057.47         3830.21 
       0.126058         3358.42         3394.34 
       0.142273         2929.34         2875.75 
       0.158546         2405.47         2271.24 
        0.17375         2135.23         1913.52 
       0.188953         2010.59         1732.65 
       0.204907         1726.22         1533.04 
       0.220756          1556.1         1297.05 
        0.23588         1387.87         1128.32 
         0.2514         1250.63         1025.06 
       0.267535         1210.75         927.508 
       0.283568         1071.24         817.937 
       0.299022         1022.47          728.74 
       0.314451         1058.48         666.019 
       0.330372           923.3         610.997 
       0.346141         849.577         554.573 
       0.361624         814.853         504.031 
       0.377134         776.866         463.788 
       0.392932         744.816         429.134 
       0.408854         711.273         395.579 
       0.424564         693.631         364.611 
       0.440253         637.723         338.036 
       0.455999         610.032         314.929 
       0.471626         621.008         293.693 
        0.48727         585.865         273.829 
       0.502856         553.113         255.983 
       0.518488         543.827         240.061 
       0.534347         515.223         225.258 
       0.550082         492.645          211.61 
       0.565732         487.538         199.123 
       0.581496         475.746         187.687 
       0.597222         463.072         177.198 
       0.612804         452.387         167.554 
       0.628434         433.761         158.565 
       0.644267         419.169         150.161 
       0.660051         413.676         142.415 
       0.675724         405.584         135.263 
       0.691403         396.011         128.596 
       0.707174         381.555          122.34 
       0.722871         375.492         116.526 
        0.73838         369.733         111.152 
       0.754018         357.298         106.076 
       0.769845         354.597         101.262 
        0.78569         346.842         96.7425 
       0.801365         335.491          92.544 
       0.817031         332.553         88.5985 
       0.832809         326.689         84.8591 
       0.848511          319.55         81.3533 
       0.864097         311.482         78.0706 
       0.879701         309.428         74.9668 
       0.895507          299.52         71.9959 
       0.911279         293.238         69.1929 
        0.92691         290.634          66.563 
       0.942635         287.847          64.056 
       0.958396         278.716         61.6733 
       0.974128         275.859         59.4167 
       0.989692         265.602         57.2957 
        1.00528         265.222         55.2757 
        1.02113         261.144         53.3217 
        1.03692         255.461         51.4698 
        1.05264         251.119         49.7147 
        1.06832         249.458         48.0446 
        1.08405         243.744          46.447 
        1.09979         240.847         44.9214 
        1.11537         235.341         43.4798 
        1.13105         231.586          42.093 
        1.14679         229.246         40.7616 
        1.16256         226.671         39.4854 
        1.17828         223.367         38.2683 
        1.19395         217.385         37.1067 
         1.2097         217.146         35.9877 
        1.22537         214.157         34.9203 
          1.241         208.317         33.8996 
        1.25666         206.786         32.9173 
        1.27241         203.003         31.9695 
        1.28819         200.227         31.0575 
        1.30392         197.937         30.1839 
        1.31957         192.724         29.3478 
        1.33529         190.072         28.5405 
        1.35108         189.034         27.7604 
        1.36674         184.398         27.0152 
         1.3824         183.113          26.298 
        1.39811         181.061         25.6046 
        1.41389         176.454         24.9337 
        1.42964         174.472         24.2879 
        1.44531         172.855         23.6683 
        1.46101         169.478          23.069 
        1.47667         167.967         22.4923 
        1.49229         165.389         21.9369 
        1.50793         162.509         21.3997 
        1.52367         160.931         20.8771 
        1.53953         157.174         20.3684 
        1.55526         156.584         19.8809 
        1.57092         155.148         19.4113 
        1.58662         150.978         18.9558 
        1.60235         149.744         18.5141 
        1.61809         147.278         18.0862 
        1.63369         144.952         17.6757 
        1.64941         143.671         17.2751 
        1.66519         141.797         16.8854 
        1.68085         139.211         16.5106 
        1.69652         137.585         16.1471 
        1.71228         135.828         15.7924 
        1.72806         134.588         15.4482 
        1.74368         132.662         15.1177 
        1.75933         131.491         14.7962 
        1.77505         129.279         14.4826 
        1.79081         126.827         14.1775 
         1.8065         125.156         13.8825 
        1.82218         123.342         13.5963 
        1.83797         122.695         13.3161 
        1.85367          120.99         13.0454 
        1.86928         119.565         12.7838 
        1.88497           117.8         12.5281 
        1.90073         116.823         12.2783 
        1.91647         114.778         12.0357 
        1.93218         113.585         11.8001 
        1.94787         111.614         11.5711 
        1.96363         110.907         11.3474 
        1.97935         109.472           11.13 
        1.99499         108.572         10.9196 
        2.01064         106.016         10.7143 
         2.0264         105.382          10.513 
        2.04216         103.472         10.3169 
        2.05781         102.621         10.1272 
        2.07353         101.181         9.94148 
        2.08928         99.8736         9.76006 
        2.10499         98.8232         9.58366 
        2.12065         97.9159         9.41215 
        2.13633         96.9428          9.2447 
        2.15211         95.3165         9.08024 
        2.16785          93.972         8.92025 
        2.18349         92.6709         8.76512 
        2.19916         91.6345         8.61336 
        2.21489          90.974         8.46469 
        2.23063         89.2872         8.31944 
         2.2463         88.5644         8.17825 
        2.26194         87.5604         8.04069 
        2.27765         86.2527         7.90559 
        2.29341         85.4073         7.77325 
        2.30914         84.2591         7.64422 
        2.32486         82.7825         7.51819 
        2.34061         82.3363         7.39479 
        2.35635         81.0957         7.27427 
        2.37203         79.8956         7.15686 
        2.38768         79.0997         7.04229 
        2.40339         78.6634         6.92981 
        2.41914         77.1102         6.81953 
        2.43483         76.4757         6.71204 
         2.4505         75.5124         6.60705 
        2.46622         74.7683         6.50394 
        2.48195         73.7918         6.40303 
        2.49759         72.8949          6.3048 
        2.51328         72.0113         6.20838 
        2.52906         70.7079         6.11336 
        2.54479         70.2353         6.02069 
        2.56049         69.2853         5.93012 
        2.57618         68.4219         5.84149 
        2.59189         67.9895         5.75455 
        2.60758         66.6864         5.66951 
        2.62325           66.28         5.58629 
        2.63898         65.5374         5.50445 
        2.65468         64.8071         5.42442 
        2.67044         63.9981         5.34565 
        2.68618         63.3844         5.26862 
        2.70184         62.4544         5.19342 
        2.71755         61.7691         5.11949 
        2.73329         60.9412          5.0469 
        2.74897         60.4804         4.97595 
        2.76462         59.8841         4.90652 
        2.78034          59.177         4.83813 
        2.79607         58.5319         4.77097 
        2.81179         57.8886         4.70516 
        2.82749         57.3061         4.64067 
        2.84321         56.7437         4.57732 
        2.85893           56.11         4.51516 
        2.87462         55.4277         4.45427 
        2.89033         54.7536         4.39445 
        2.90605          54.224         4.33567 
        2.92176          53.657           4.278 
        2.93747         53.0222          4.2214 
        2.95318         52.4996         4.16582 
        2.96891         51.8529         4.11122 
        2.98456         51.3093         4.05783 
        3.00023         50.6714         4.00532 
        3.01596         50.2286         3.95357 
        3.03164         49.7381         3.90288 
        3.04738         49.2037         3.85294 
         3.0631         48.3838         3.80388 
        3.07883         48.0023         3.75568 
        3.09456         47.4622         3.70832 
        3.11026         47.0002         3.66185 
        3.12596         46.6032         3.61618 
        3.14163         45.9463          3.5714 
        3.15734         45.5049         3.52727 
        3.17308         44.9967         3.48377 
        3.18879          44.581         3.44113 
        3.20447         44.2866         3.39927 
         3.2202         43.5683         3.35797 
         3.2359         43.2062         3.31744 
        3.25157         42.9013         3.27767 
        3.26729         42.3052         3.23843 
        3.28304         41.9569         3.19975 
        3.29877            41.4         3.16176 
        3.31446          41.091         3.12447 
        3.33014         40.7063         3.08781 
        3.34585         40.1676         3.05168 
        3.36158         39.7675         3.01608 
        3.37727         39.4294         2.98115 
        3.39294          39.064         2.94682 
        3.40867         38.6837          2.9129 
        3.42439          38.225         2.87953 
        3.44008         37.8173         2.84675 
        3.45578         37.4588         2.81445 
        3.47153         37.0594         2.78259 
        3.48724         36.6379         2.75127 
        3.50292         36.3101         2.72051 
        3.51859         36.0616         2.69023 
        3.53431         35.6564         2.66032 
        3.55007         35.2095         2.63079 
        3.56577         35.1123         2.60183 
        3.58146         34.5971         2.57331 
        3.59719         34.3085         2.54516 
        3.61292         34.0192         2.51744 
        3.62859         33.6758         2.49023 
        3.64429         33.3886         2.46337 
        3.66003         33.0462         2.43683 
        3.67578         32.7758         2.41069 
        3.69146         32.4368         2.38503 
        3.70712         32.0627         2.35979 
        3.72284           31.75         2.33482 
        3.73853         31.5701         2.31026 
        3.75422         31.2038         2.28604 
        3.76993         30.9271         2.26215 
        3.78564         30.6851         2.23861 
        3.80137         30.3222         2.21536 
        3.81707         30.0794         2.19249 
        3.83279         29.7556         2.16993 
        3.84853         29.4619         2.14765 
        3.86424         29.1869         2.12572 
        3.87992         28.9541         2.10414 
        3.89561         28.7521         2.08285 
        3.91134         28.4335         2.06181 
        3.92704         28.1204         2.04109 
        3.94273         27.9073         2.02067 
        3.95845         27.6699         2.00049 
        3.97418         27.3331         1.98059 
        3.98988         27.1018         1.96098 
        4.00554         26.8296         1.94169 
        4.02125         26.6696         1.92261 
        4.03698         26.3681         1.90375 
        4.05268         26.1424         1.88519 
        4.06839         25.8949         1.86686 
         4.0841         25.7211         1.84879 
        4.09983         25.4073         1.83092 
        4.11555         25.1132          1.8133 
        4.13124         25.0601         1.79596 
        4.14693         24.7945         1.77883 
        4.16266         24.5461         1.76188 
        4.17839         24.3971         1.74517 
        4.19408         24.0759         1.72871 
        4.20977         23.9111         1.71245 
        4.22551         23.7318         1.69637 
        4.24123         23.5245          1.6805 
        4.25691         23.2959         1.66489 
        4.27259         23.1453         1.64946 
        4.28831         22.9307         1.63421 
        4.30404         22.7549         1.61913 
        4.31974         22.4964         1.60427 
        4.33543         22.3347         1.58961 
        4.35116         22.1384         1.57509 
        4.36688         21.9651         1.56076 
        4.38255          21.773         1.54667 
        4.39825         21.5619         1.53272 
        4.41398          21.398         1.51891 
         4.4297         21.1967         1.50528 
        4.44541         21.0169         1.49183 
        4.46111         20.8125         1.47855 
        4.47683         20.6486         1.46542 
        4.49251         20.5003         1.45248 
        4.50819          20.321          1.4397 
         4.5239         20.1712         1.42705 
        4.53962         19.9974         1.41454 
        4.55535         19.7977         1.40217 
        4.57106         19.6542         1.38997 
        4.58678         19.4969         1.37791 
         4.6025         19.2792         1.36599 
        4.61821         19.1604         1.35422 
        4.63391         18.9653          1.3426 
         4.6496         18.8721         1.33112 
        4.66532         18.6846         1.31975 
        4.68103         18.4855         1.30852 
        4.69673         18.4254         1.29744 
        4.71241         18.3094         1.28649 
        4.72811         18.0915         1.27565 
        4.74384         17.9406         1.26493 
        4.75955         17.8516         1.25434 
        4.77525         17.6799         1.24388 
        4.79096         17.5192         1.23353 
        4.80669         17.3653         1.22328 
         4.8224         17.2168         1.21317 
        4.83809         17.1083         1.20318 
        4.85379         16.9719          1.1933 
         4.8695         16.8201         1.18352 
        4.88521         16.6928         1.17386 
        4.90093         16.5743          1.1643 
        4.91663         16.4233         1.15485 
        4.93234         16.2677          1.1455 
        4.94807         16.1635         1.13625 
        4.96377         16.0578         1.12712 
        4.97943         15.9134          1.1181 
        4.99514         15.7961         1.10917 
        5.01086         15.6576         1.10032 
        5.02654         15.5686         1.09159 
        5.04227         15.4253         1.08293 
          5.058         15.2849         1.07436 
        5.07371         15.2142          1.0659 
        5.08942         15.0962         1.05753 
        5.10513         14.9717         1.04925 
        5.12084          14.858         1.04105 
        5.13656         14.7273         1.03295 
        5.15225         14.6168         1.02494 
        5.16796          14.479           1.017 
        5.18369         14.3879         1.00915 
         5.1994         14.3257         1.00138 
        5.21509         14.1769        0.993711 
        5.23079         14.0859        0.986109 
        5.24649         13.9801        0.978593 
        5.26217         13.8614         0.97116 
        5.27788         13.7653        0.963794 
        5.29359         13.6519        0.956503 
        5.30933         13.5628        0.949277 
        5.32504         13.4427        0.942137 
        5.34073         13.3779        0.935079 
        5.35646         13.2706        0.928078 
        5.37218         13.1386        0.921148 
        5.38789         13.0679          0.9143 
        5.40357         12.9547         0.90753 
        5.41929         12.8751        0.900813 
        5.43502         12.7709        0.894163 
         5.4507         12.6968        0.887596 
        5.46639         12.5903        0.881094 
        5.48212         12.4741        0.874641 
        5.49786          12.399        0.868246 
        5.51353         12.3035        0.861947 
        5.52921         12.2278        0.855703 
        5.54495         12.1505        0.849503 
        5.56066         12.0692        0.843371 
        5.57637         11.9576          0.8373 
        5.59207         11.8742        0.831295 
        5.60778         11.7822        0.825346 
        5.62346         11.7221        0.819463 
        5.63916         11.6282        0.813633 
        5.65487         11.5285        0.807855 
         5.6706         11.4536        0.802128 
        5.68633         11.3837        0.796453 
        5.70203          11.295        0.790845 
        5.71773         11.2257        0.785292 
        5.73344         11.1306         0.77979 
        5.74916         11.0692        0.774335 
        5.76486          10.987        0.768939 
        5.78054         10.9074        0.763604 
        5.79626         10.8344        0.758303 
          5.812         10.7527        0.753048 
         5.8277         10.6658        0.747858 
        5.84339         10.5906        0.742717 
        5.85911         10.5371        0.737614 
        5.87484         10.4402        0.732561 
        5.89053         10.3652        0.727564 
        5.90623         10.2982        0.722612 
        5.92195         10.2189        0.717697 
        5.93767         10.1608         0.71283 
        5.95336         10.0995        0.708017 
        5.96905          10.016         0.70325 
        5.98476         9.95366         0.69852 
        6.00048          9.8937        0.693832 
        6.01617         9.82335        0.689193 
        6.03185         9.75061        0.684602 
        6.04756         9.67312        0.680042 
        6.06331         9.61411        0.675514 
        6.07903         9.55562        0.671037 
        6.09473         9.49701        0.666604 
        6.11044         9.42249        0.662207 
        6.12616         9.36091        0.657851 
        6.14186         9.28519        0.653538 
        6.15755         9.24412        0.649264 
        6.17326         9.17147        0.645025 
        6.18898         9.11138        0.640821 
        6.20467         9.05341        0.636663 
        6.22036         8.97705        0.632542 
         6.2361         8.94252        0.628446 
         6.2518         8.87571        0.624393 
        6.26748         8.80773        0.620384 
        6.28319         8.77046          0.6164 
        6.29893         8.70924        0.612447 
        6.31463         8.63894        0.608536 
        6.33033         8.59388         0.60466 
        6.34604         8.54391        0.600815 
        6.36177         8.46361           0.597 
        6.37747         8.41664        0.593225 
