# k  (h/Mpc)    Pcb(k)  (Mpc/h)^3    Pcb_linear(k) (Mpc/h)^3   ShotnoiseSubtracted = true
      0.0200456         805.974         817.257 
      0.0350414         591.716         594.118 
      0.0492313         433.233         431.675 
      0.0637834         361.439         358.847 
      0.0800726         286.523         284.808 
       0.096163         206.273         206.653 
       0.111083         163.891         164.832 
       0.126058         146.584         146.075 
       0.142273         124.708         123.757 
       0.158546          99.028         97.7424 
        0.17375         82.2837         82.3479 
       0.188953         75.2061         74.5641 
       0.204907         68.1291         65.9741 
       0.220756         56.9774          55.818 
        0.23588         49.5824         48.5569 
         0.2514         44.6047         44.1134 
       0.267535         40.6015         39.9151 
       0.283568         36.0422         35.1997 
       0.299022         32.3914         31.3611 
       0.314451         29.0538         28.6619 
       0.330372         26.9081         26.2941 
       0.346141         24.4464         23.8659 
       0.361624         22.4088         21.6909 
       0.377134         20.8444          19.959 
       0.392932         18.6414         18.4677 
       0.408854          17.752         17.0236 
       0.424564          16.362         15.6909 
       0.440253         15.1237         14.5473 
       0.455999         14.2227         13.5529 
       0.471626         13.3523          12.639 
        0.48727         12.4346         11.7842 
       0.502856         11.5783         11.0162 
       0.518488         11.0422          10.331 
       0.534347          10.501         9.69393 
       0.550082         9.61405         9.10656 
       0.565732         8.88471          8.5692 
       0.581496         8.65411         8.07705 
       0.597222         8.25972         7.62569 
       0.612804         7.70502         7.21065 
       0.628434         7.41159          6.8238 
       0.644267         7.04029         6.46213 
       0.660051         6.63759          6.1288 
       0.675724          6.3126           5.821 
       0.691403         6.07743         5.53408 
       0.707174         5.75401         5.26489 
       0.722871         5.49528         5.01467 
        0.73838         5.27891         4.78339 
       0.754018         5.10031         4.56495 
       0.769845         4.82669         4.35778 
        0.78569         4.65138         4.16329 
       0.801365         4.44261         3.98261 
       0.817031         4.28624         3.81281 
       0.832809         4.12274         3.65189 
       0.848511         3.90209         3.50102 
       0.864097         3.74893         3.35975 
       0.879701         3.61768         3.22618 
       0.895507         3.47124         3.09832 
       0.911279         3.40395          2.9777 
        0.92691         3.26757         2.86452 
       0.942635         3.12724         2.75663 
       0.958396          3.0087         2.65409 
       0.974128         2.91824         2.55698 
       0.989692         2.85132         2.46571 
        1.00528         2.72453         2.37877 
        1.02113         2.62093         2.29469 
        1.03692         2.57177         2.21499 
        1.05264         2.47504         2.13946 
        1.06832         2.41105         2.06759 
        1.08405         2.29368         1.99883 
        1.09979         2.24358         1.93318 
        1.11537          2.1832         1.87114 
        1.13105         2.12551         1.81146 
        1.14679         2.06642         1.75417 
        1.16256         1.99043         1.69925 
        1.17828         1.94217         1.64687 
        1.19395         1.88775         1.59688 
         1.2097         1.80486         1.54872 
        1.22537          1.7692         1.50279 
          1.241         1.72801         1.45886 
        1.25666          1.7089         1.41659 
        1.27241         1.62721          1.3758 
        1.28819         1.58929         1.33655 
        1.30392         1.55978         1.29896 
        1.31957         1.52009         1.26298 
        1.33529         1.47238         1.22823 
        1.35108         1.43785         1.19466 
        1.36674         1.38925         1.16259 
         1.3824         1.36142         1.13173 
        1.39811         1.32647         1.10189 
        1.41389          1.3016         1.07301 
        1.42964         1.27129         1.04523 
        1.44531         1.23772         1.01856 
        1.46101         1.21412        0.992769 
        1.47667         1.16754        0.967951 
        1.49229         1.15833         0.94405 
        1.50793         1.12515        0.920931 
        1.52367           1.105         0.89844 
        1.53953         1.06921        0.876551 
        1.55526         1.04893        0.855568 
        1.57092         1.02581        0.835359 
        1.58662         1.00765        0.815758 
        1.60235         0.98296        0.796748 
        1.61809        0.957472        0.778337 
        1.63369        0.950622        0.760671 
        1.64941         0.92084        0.743429 
        1.66519        0.904571        0.726661 
        1.68085        0.877148         0.71053 
        1.69652        0.862403        0.694885 
        1.71228        0.850217        0.679623 
        1.72806        0.824843        0.664809 
        1.74368        0.815909        0.650585 
        1.75933        0.794706         0.63675 
        1.77505        0.781224        0.623254 
        1.79081        0.765836        0.610125 
         1.8065        0.745102        0.597432 
        1.82218        0.737101        0.585112 
        1.83797        0.722212        0.573055 
        1.85367        0.714992        0.561405 
        1.86928        0.698635         0.55015 
        1.88497        0.681404        0.539142 
        1.90073         0.66667        0.528395 
        1.91647        0.661489        0.517951 
        1.93218         0.64524        0.507813 
        1.94787        0.633334        0.497961 
        1.96363        0.620842        0.488331 
        1.97935        0.609259        0.478977 
        1.99499         0.59885         0.46992 
        2.01064        0.587924        0.461086 
         2.0264        0.578463        0.452423 
        2.04216        0.569884        0.443987 
        2.05781        0.558736         0.43582 
        2.07353        0.548217        0.427829 
        2.08928        0.536576        0.420022 
        2.10499        0.530428         0.41243 
        2.12065        0.524966         0.40505 
        2.13633        0.514333        0.397843 
        2.15211         0.50398        0.390766 
        2.16785        0.494537        0.383881 
        2.18349         0.48699        0.377205 
        2.19916        0.480387        0.370674 
        2.21489        0.470973        0.364276 
        2.23063        0.463878        0.358025 
         2.2463         0.45909        0.351949 
        2.26194        0.445466        0.346029 
        2.27765         0.44099        0.340215 
        2.29341        0.436118         0.33452 
        2.30914        0.431369        0.328967 
        2.32486        0.422216        0.323543 
        2.34061        0.415271        0.318233 
        2.35635        0.407247        0.313047 
        2.37203         0.40226        0.307994 
        2.38768         0.39665        0.303063 
        2.40339        0.391293        0.298223 
        2.41914        0.385566        0.293477 
        2.43483        0.379088        0.288851 
         2.4505        0.372538        0.284333 
        2.46622        0.367556        0.279895 
        2.48195        0.364236        0.275553 
        2.49759        0.357908        0.271325 
        2.51328        0.351306        0.267176 
        2.52906        0.347825        0.263087 
        2.54479        0.341812        0.259099 
        2.56049        0.335762        0.255201 
        2.57618        0.332252        0.251387 
        2.59189        0.328354        0.247645 
        2.60758        0.324308        0.243986 
        2.62325        0.318645        0.240404 
        2.63898        0.315107        0.236883 
        2.65468        0.309812        0.233439 
        2.67044        0.305558        0.230049 
        2.68618        0.301396        0.226734 
        2.70184        0.297731        0.223497 
        2.71755        0.292752        0.220316 
        2.73329        0.289264        0.217192 
        2.74897        0.286184        0.214139 
        2.76462        0.282235        0.211151 
        2.78034        0.278206        0.208208 
        2.79607        0.274837        0.205317 
        2.81179        0.271339        0.202485 
        2.82749        0.267598         0.19971 
        2.84321        0.264999        0.196984 
        2.85893        0.261132        0.194309 
        2.87462        0.257517        0.191688 
        2.89033        0.254035        0.189114 
        2.90605          0.2517        0.186584 
        2.92176         0.24802        0.184103 
        2.93747        0.244857        0.181667 
        2.95318        0.242348        0.179275 
        2.96891        0.239184        0.176925 
        2.98456        0.236148        0.174628 
        3.00023        0.233927        0.172368 
        3.01596        0.230518        0.170141 
        3.03164        0.228455         0.16796 
        3.04738        0.224349         0.16581 
         3.0631        0.222942        0.163699 
        3.07883        0.219348        0.161625 
        3.09456         0.21702        0.159587 
        3.11026        0.215318        0.157587 
        3.12596        0.211759        0.155621 
        3.14163        0.210066        0.153694 
        3.15734        0.208226        0.151795 
        3.17308        0.205655        0.149923 
        3.18879        0.203707        0.148088 
        3.20447        0.199976        0.146287 
         3.2202        0.199114         0.14451 
         3.2359         0.19651        0.142765 
        3.25157        0.194726        0.141054 
        3.26729        0.192198        0.139365 
        3.28304        0.190887          0.1377 
        3.29877        0.188311        0.136065 
        3.31446        0.186594        0.134461 
        3.33014        0.184778        0.132883 
        3.34585        0.183924        0.131328 
        3.36158        0.181261        0.129796 
        3.37727        0.179703        0.128293 
        3.39294         0.17748        0.126816 
        3.40867        0.175481        0.125356 
        3.42439         0.17432         0.12392 
        3.44008        0.172124        0.122509 
        3.45578        0.171284        0.121119 
        3.47153        0.169252        0.119748 
        3.48724         0.16801          0.1184 
        3.50292         0.16648        0.117076 
        3.51859        0.164186        0.115773 
        3.53431        0.162631        0.114486 
        3.55007        0.161842        0.113216 
        3.56577        0.159706        0.111969 
        3.58146        0.158319        0.110742 
        3.59719        0.157115         0.10953 
        3.61292         0.15614        0.108337 
        3.62859        0.154165        0.107166 
        3.64429        0.152906        0.106011 
        3.66003        0.151749        0.104868 
        3.67578        0.150438        0.103743 
        3.69146         0.14896        0.102639 
        3.70712        0.148044        0.101553 
        3.72284        0.146633        0.100479 
        3.73853        0.145714       0.0994215 
        3.75422        0.144402       0.0983792 
        3.76993        0.143162        0.097351 
        3.78564        0.141697       0.0963378 
        3.80137        0.140641       0.0953375 
        3.81707        0.139528       0.0943534 
        3.83279        0.138538       0.0933824 
        3.84853        0.137029       0.0924235 
        3.86424        0.135982         0.09148 
        3.87992        0.134966        0.090551 
        3.89561        0.133657       0.0896348 
        3.91134        0.133059       0.0887295 
        3.92704        0.131458       0.0878377 
        3.94273         0.13018        0.086959 
        3.95845        0.129121       0.0860908 
        3.97418        0.128532       0.0852342 
        3.98988        0.126733       0.0843904 
        4.00554        0.125894       0.0835604 
        4.02125        0.124671       0.0827391 
        4.03698        0.123045       0.0819276 
        4.05268        0.121978       0.0811288 
        4.06839        0.120174         0.08034 
         4.0841        0.118665        0.079562 
        4.09983        0.117257       0.0787932 
        4.11555        0.115878       0.0780349 
        4.13124        0.114087       0.0772886 
        4.14693        0.113365       0.0765514 
        4.16266        0.111789       0.0758222 
        4.17839        0.110672       0.0751028 
        4.19408        0.109517       0.0743945 
        4.20977        0.108521       0.0736949 
        4.22551        0.107354       0.0730027 
        4.24123        0.106284       0.0723201 
        4.25691        0.105074        0.071648 
        4.27259        0.104159       0.0709843 
        4.28831        0.103125       0.0703277 
        4.30404        0.102189       0.0696787 
        4.31974        0.101891       0.0690393 
        4.33543        0.100645       0.0684083 
        4.35116       0.0995665       0.0677837 
        4.36688       0.0989132       0.0671671 
        4.38255       0.0977851       0.0665605 
        4.39825       0.0975859         0.06596 
        4.41398       0.0967784       0.0653658 
         4.4297        0.096179       0.0647795 
        4.44541       0.0956633       0.0642005 
        4.46111       0.0949015        0.063629 
        4.47683       0.0943999        0.063064 
        4.49251       0.0937458       0.0625071 
        4.50819       0.0933337        0.061957 
         4.5239       0.0928009       0.0614128 
        4.53962        0.092537       0.0608744 
        4.55535       0.0919906       0.0603422 
        4.57106       0.0916253       0.0598171 
        4.58678       0.0910608       0.0592981 
         4.6025       0.0910417       0.0587852 
        4.61821       0.0908373       0.0582784 
        4.63391       0.0905407       0.0577783 
         4.6496       0.0903009       0.0572842 
        4.66532       0.0902171       0.0567952 
        4.68103       0.0900727        0.056312 
        4.69673       0.0895525        0.055835 
        4.71241        0.089747       0.0553639 
        4.72811       0.0894998       0.0548975 
        4.74384       0.0895519       0.0544358 
        4.75955       0.0898813       0.0539802 
        4.77525       0.0898508       0.0535301 
        4.79096       0.0895161       0.0530845 
        4.80669       0.0897083       0.0526437 
         4.8224       0.0899749       0.0522085 
        4.83809       0.0898597       0.0517787 
        4.85379       0.0900758       0.0513534 
         4.8695       0.0901779       0.0509325 
        4.88521       0.0905334       0.0505166 
        4.90093       0.0906865       0.0501052 
        4.91663       0.0909085       0.0496988 
        4.93234       0.0912004       0.0492964 
        4.94807        0.091751       0.0488983 
        4.96377       0.0921665       0.0485052 
        4.97943       0.0929259       0.0481173 
        4.99514       0.0927212       0.0477327 
        5.01086       0.0936959        0.047352 
        5.02654       0.0938333       0.0469764 
        5.04227       0.0944399       0.0466037 
          5.058       0.0950972       0.0462349 
        5.07371       0.0958985       0.0458708 
        5.08942       0.0961933       0.0455106 
        5.10513       0.0970946       0.0451543 
        5.12084       0.0975776       0.0448015 
        5.13656       0.0980991       0.0444526 
        5.15225       0.0993934        0.044108 
        5.16796        0.100031       0.0437665 
        5.18369        0.100614       0.0434283 
         5.1994        0.101927       0.0430943 
        5.21509        0.102552       0.0427641 
        5.23079        0.103783        0.042437 
        5.24649         0.10494       0.0421135 
        5.26217        0.105819       0.0417936 
        5.27788        0.106907       0.0414766 
        5.29359         0.10765       0.0411629 
        5.30933        0.109002       0.0408519 
        5.32504        0.110303       0.0405446 
        5.34073        0.111238       0.0402409 
        5.35646        0.112104       0.0399396 
        5.37218        0.113964       0.0396414 
        5.38789        0.114866       0.0393467 
        5.40357        0.116028       0.0390553 
        5.41929        0.117952       0.0387662 
        5.43502        0.119183       0.0384801 
         5.4507        0.120803       0.0381975 
        5.46639         0.12209       0.0379176 
        5.48212        0.123843         0.03764 
        5.49786        0.125534       0.0373648 
        5.51353        0.127069       0.0370937 
        5.52921        0.128349        0.036825 
        5.54495        0.130624       0.0365581 
        5.56066         0.13229       0.0362943 
        5.57637        0.134148        0.036033 
        5.59207        0.136403       0.0357746 
        5.60778        0.138179       0.0355186 
        5.62346        0.140517       0.0352654 
        5.63916        0.142365       0.0350145 
        5.65487        0.144139       0.0347659 
         5.6706        0.146431       0.0345194 
        5.68633        0.147892       0.0342752 
        5.70203        0.150498       0.0340338 
        5.71773        0.152954       0.0337949 
        5.73344        0.154402       0.0335581 
        5.74916        0.157729       0.0333233 
        5.76486        0.159694       0.0330911 
        5.78054        0.161898       0.0328615 
        5.79626        0.164617       0.0326334 
          5.812        0.167157       0.0324072 
         5.8277        0.169995       0.0321839 
        5.84339        0.172179       0.0319626 
        5.85911        0.175545       0.0317431 
        5.87484        0.177583       0.0315256 
        5.89053         0.18122       0.0313105 
        5.90623        0.183344       0.0310974 
        5.92195        0.186102       0.0308859 
        5.93767        0.188626       0.0306765 
        5.95336        0.193064       0.0304693 
        5.96905        0.194748       0.0302642 
        5.98476        0.196935       0.0300606 
        6.00048        0.201455       0.0298589 
        6.01617        0.204204       0.0296592 
        6.03185        0.206929       0.0294617 
        6.04756        0.211118       0.0292654 
        6.06331        0.213101       0.0290706 
        6.07903        0.216437       0.0288779 
        6.09473        0.219977       0.0286871 
        6.11044        0.223798       0.0284979 
        6.12616        0.226195       0.0283104 
        6.14186        0.230373       0.0281248 
        6.15755        0.233385       0.0279409 
        6.17326        0.237797       0.0277585 
        6.18898        0.240263       0.0275776 
        6.20467        0.245111       0.0273986 
        6.22036        0.247674       0.0272213 
         6.2361        0.251019        0.027045 
         6.2518        0.255757       0.0268706 
        6.26748        0.257451       0.0266981 
        6.28319        0.262361       0.0265266 
        6.29893         0.26657       0.0263565 
        6.31463        0.270727       0.0261882 
        6.33033        0.273545       0.0260214 
        6.34604        0.276767       0.0258559 
        6.36177        0.281946       0.0256917 
        6.37747         0.28583       0.0255293 
