# k  (h/Mpc)    Pcb(k)  (Mpc/h)^3    Pcb_linear(k) (Mpc/h)^3   ShotnoiseSubtracted = true
      0.0200456         26451.8           26948 
      0.0350414           20239         19590.3 
      0.0492313         13854.8         14233.9 
      0.0637834         11162.2         11832.5 
      0.0800726         8747.49          9391.2 
       0.096163         7094.69         6814.13 
       0.111083          5777.9         5435.13 
       0.126058         4772.08         4816.63 
       0.142273         4201.89         4080.74 
       0.158546         3444.42         3222.93 
        0.17375         3108.67         2715.32 
       0.188953         2974.09         2458.66 
       0.204907         2560.65         2175.41 
       0.220756         2325.85         1840.53 
        0.23588         2077.95          1601.1 
         0.2514         1893.28         1454.58 
       0.267535         1818.05         1316.15 
       0.283568          1634.4         1160.67 
       0.299022         1554.51         1034.09 
       0.314451         1622.64         945.092 
       0.330372         1459.63         867.016 
       0.346141         1341.41         786.949 
       0.361624         1284.55         715.229 
       0.377134         1239.14         658.123 
       0.392932         1171.73         608.949 
       0.408854         1130.84         561.333 
       0.424564         1107.52         517.389 
       0.440253         1038.29         479.679 
       0.455999         991.873         446.889 
       0.471626         1001.46         416.756 
        0.48727         949.246         388.568 
       0.502856         925.504         363.245 
       0.518488         887.349          340.65 
       0.534347         860.993         319.645 
       0.550082           823.7         300.278 
       0.565732         806.194         282.559 
       0.581496         787.955         266.331 
       0.597222          777.53         251.448 
       0.612804         755.588         237.762 
       0.628434         726.104         225.006 
       0.644267         707.852         213.081 
       0.660051          699.49         202.089 
       0.675724         688.062          191.94 
       0.691403         660.717         182.479 
       0.707174         645.938         173.603 
       0.722871         643.182         165.353 
        0.73838          622.21         157.726 
       0.754018         613.082         150.524 
       0.769845         602.062         143.692 
        0.78569         588.145         137.279 
       0.801365          571.35         131.322 
       0.817031         563.778         125.723 
       0.832809         553.128         120.416 
       0.848511         542.829         115.442 
       0.864097         534.304         110.783 
       0.879701         536.415         106.379 
       0.895507         516.016         102.163 
       0.911279         511.015         98.1859 
        0.92691         501.314         94.4541 
       0.942635         493.431         90.8965 
       0.958396          483.03         87.5155 
       0.974128         473.769         84.3133 
       0.989692         464.056         81.3036 
        1.00528         456.244         78.4371 
        1.02113         448.142         75.6644 
        1.03692          441.67         73.0365 
        1.05264         436.672          70.546 
        1.06832         426.586         68.1761 
        1.08405          424.21         65.9091 
        1.09979          413.58         63.7443 
        1.11537         405.226         61.6985 
        1.13105          399.72         59.7307 
        1.14679         392.931         57.8414 
        1.16256         389.922         56.0305 
        1.17828         383.971         54.3033 
        1.19395         375.523         52.6551 
         1.2097         368.636         51.0671 
        1.22537         364.484         49.5525 
          1.241         356.972         48.1042 
        1.25666         352.996         46.7103 
        1.27241         350.431         45.3653 
        1.28819         340.949         44.0711 
        1.30392         338.687         42.8314 
        1.31957         331.934         41.6451 
        1.33529         327.147         40.4994 
        1.35108         326.798         39.3925 
        1.36674         318.212          38.335 
         1.3824         311.467         37.3174 
        1.39811         308.069         36.3334 
        1.41389         303.693         35.3813 
        1.42964         298.592          34.465 
        1.44531         293.657         33.5857 
        1.46101         287.194         32.7353 
        1.47667         286.135          31.917 
        1.49229         282.534         31.1289 
        1.50793         276.281         30.3666 
        1.52367         272.126         29.6249 
        1.53953         269.063         28.9032 
        1.55526         263.652         28.2113 
        1.57092         261.532         27.5449 
        1.58662         256.455         26.8986 
        1.60235         252.488         26.2718 
        1.61809         250.278         25.6647 
        1.63369         245.387         25.0822 
        1.64941         242.684         24.5137 
        1.66519         238.963         23.9607 
        1.68085         234.655         23.4288 
        1.69652         231.617          22.913 
        1.71228         228.045         22.4097 
        1.72806         225.106         21.9212 
        1.74368         221.708         21.4522 
        1.75933         219.605         20.9961 
        1.77505         215.944          20.551 
        1.79081          213.15         20.1181 
         1.8065         211.772         19.6996 
        1.82218         206.221         19.2933 
        1.83797         204.564         18.8958 
        1.85367         201.436         18.5116 
        1.86928         197.741         18.1405 
        1.88497         195.726         17.7775 
        1.90073         193.937         17.4232 
        1.91647         190.898         17.0788 
        1.93218         187.703         16.7445 
        1.94787         184.355         16.4196 
        1.96363         183.485         16.1021 
        1.97935         180.215         15.7937 
        1.99499         178.614          15.495 
        2.01064         174.199         15.2037 
         2.0264         173.433         14.9181 
        2.04216         170.306         14.6399 
        2.05781         168.497         14.3706 
        2.07353         167.064         14.1071 
        2.08928         165.382         13.8497 
        2.10499         162.051         13.5994 
        2.12065         160.364          13.356 
        2.13633         157.975         13.1184 
        2.15211         156.081          12.885 
        2.16785         154.436          12.658 
        2.18349         152.043         12.4379 
        2.19916         151.346         12.2225 
        2.21489         147.952         12.0115 
        2.23063         146.171         11.8054 
         2.2463         144.451         11.6051 
        2.26194         143.154         11.4099 
        2.27765         141.008         11.2182 
        2.29341         139.421         11.0304 
        2.30914         137.287         10.8473 
        2.32486         136.142         10.6684 
        2.34061          133.59         10.4933 
        2.35635         132.036         10.3223 
        2.37203         131.092         10.1557 
        2.38768         129.239         9.99313 
        2.40339         127.683         9.83352 
        2.41914         125.512         9.67703 
        2.43483         124.296          9.5245 
         2.4505         123.228         9.37551 
        2.46622         121.085          9.2292 
        2.48195         119.755         9.08601 
        2.49759         118.045         8.94662 
        2.51328         116.805         8.80979 
        2.52906         115.633         8.67497 
        2.54479         114.026         8.54346 
        2.56049         112.642         8.41494 
        2.57618         111.524         8.28918 
        2.59189         110.429          8.1658 
        2.60758         109.276         8.04512 
        2.62325         107.286         7.92704 
        2.63898          105.76         7.81091 
        2.65468         104.794         7.69735 
        2.67044         103.818         7.58557 
        2.68618          102.52         7.47626 
        2.70184         101.659         7.36955 
        2.71755          99.901         7.26465 
        2.73329         98.7135         7.16164 
        2.74897         97.5094         7.06095 
        2.76462         96.7685         6.96243 
        2.78034         95.8177         6.86538 
        2.79607         94.5371         6.77009 
        2.81179         93.5609          6.6767 
        2.82749         92.6241         6.58519 
        2.84321         91.1928         6.49529 
        2.85893         90.1926         6.40709 
        2.87462         89.0941         6.32069 
        2.89033         88.3465          6.2358 
        2.90605         87.1632         6.15239 
        2.92176         86.2189         6.07055 
        2.93747         85.4238         5.99025 
        2.95318         84.3374         5.91138 
        2.96891         83.8428         5.83389 
        2.98456         82.3255         5.75813 
        3.00023         81.6379         5.68362 
        3.01596         81.0589         5.61018 
        3.03164         79.8704         5.53826 
        3.04738         79.2531         5.46738 
         3.0631         78.5087         5.39777 
        3.07883         77.5327         5.32937 
        3.09456         76.5253         5.26217 
        3.11026         76.0392         5.19623 
        3.12596          74.979         5.13142 
        3.14163         74.2403         5.06787 
        3.15734         73.3803         5.00525 
        3.17308         72.6169         4.94353 
        3.18879          71.877         4.88303 
        3.20447         71.3981         4.82362 
         3.2202         70.3743         4.76502 
         3.2359         69.8117          4.7075 
        3.25157         69.1288         4.65106 
        3.26729         68.2704         4.59538 
        3.28304         67.4526          4.5405 
        3.29877         66.8778         4.48659 
        3.31446         66.2345         4.43367 
        3.33014          65.626         4.38165 
        3.34585         64.9192         4.33039 
        3.36158         64.2793         4.27987 
        3.37727         63.5403         4.23031 
        3.39294           62.91         4.18158 
        3.40867         62.3817         4.13345 
        3.42439         61.3669          4.0861 
        3.44008          60.955         4.03958 
        3.45578         60.5678         3.99375 
        3.47153         59.9358         3.94854 
        3.48724         59.2411          3.9041 
        3.50292         58.8352         3.86045 
        3.51859         58.1371         3.81748 
        3.53431         57.4603         3.77504 
        3.55007         56.8998         3.73314 
        3.56577         56.3648         3.69204 
        3.58146         55.8105         3.65158 
        3.59719         55.3931         3.61163 
        3.61292         54.8288         3.57229 
        3.62859         54.2597         3.53368 
        3.64429         53.8918         3.49557 
        3.66003         53.2311         3.45791 
        3.67578         52.6502         3.42081 
        3.69146          52.217          3.3844 
        3.70712         51.5736         3.34858 
        3.72284         51.0494         3.31315 
        3.73853         50.8186          3.2783 
        3.75422         50.2889         3.24393 
        3.76993         49.8863         3.21003 
        3.78564         49.2638         3.17662 
        3.80137          48.798         3.14363 
        3.81707         48.3162         3.11119 
        3.83279         47.9015         3.07917 
        3.84853         47.4845         3.04755 
        3.86424         47.1136         3.01644 
        3.87992         46.5559         2.98581 
        3.89561          46.254          2.9556 
        3.91134         45.8026         2.92574 
        3.92704         45.3723         2.89634 
        3.94273         44.9295         2.86737 
        3.95845         44.4497         2.83874 
        3.97418         44.0946         2.81049 
        3.98988         43.6683         2.78267 
        4.00554         43.2247          2.7553 
        4.02125          42.785         2.72822 
        4.03698          42.536         2.70146 
        4.05268         42.1354         2.67512 
        4.06839         41.7499         2.64911 
         4.0841         41.4497         2.62346 
        4.09983         41.1082         2.59811 
        4.11555          40.727          2.5731 
        4.13124         40.2936         2.54849 
        4.14693         39.9747         2.52419 
        4.16266         39.7194         2.50014 
        4.17839         39.2655         2.47642 
        4.19408         38.9823         2.45306 
        4.20977         38.5268            2.43 
        4.22551         38.1974         2.40717 
        4.24123         37.9177         2.38466 
        4.25691          37.537          2.3625 
        4.27259         37.2543         2.34062 
        4.28831         36.9027         2.31897 
        4.30404         36.6642         2.29757 
        4.31974         36.2276         2.27649 
        4.33543          35.918         2.25568 
        4.35116         35.5706         2.23508 
        4.36688         35.3354         2.21475 
        4.38255         35.0794         2.19475 
        4.39825         34.7739         2.17495 
        4.41398         34.4626         2.15535 
         4.4297         34.0729         2.13602 
        4.44541         33.9235         2.11693 
        4.46111         33.6815         2.09809 
        4.47683         33.3876         2.07946 
        4.49251         33.0562         2.06109 
        4.50819          32.785         2.04295 
         4.5239         32.4329         2.02501 
        4.53962         32.1836         2.00726 
        4.55535         31.8706         1.98971 
        4.57106         31.6654         1.97239 
        4.58678         31.3567         1.95528 
         4.6025         31.0671         1.93837 
        4.61821         30.8965         1.92166 
        4.63391         30.5999         1.90517 
         4.6496          30.382         1.88888 
        4.66532          30.193         1.87275 
        4.68103         29.9318         1.85682 
        4.69673          29.594         1.84109 
        4.71241         29.4032         1.82556 
        4.72811         29.1349         1.81018 
        4.74384         28.9223         1.79495 
        4.75955         28.6798         1.77993 
        4.77525         28.4557         1.76509 
        4.79096         28.2534         1.75039 
        4.80669         28.0424         1.73586 
         4.8224         27.7858         1.72151 
        4.83809         27.5532         1.70734 
        4.85379         27.3054         1.69331 
         4.8695         27.0897         1.67944 
        4.88521         26.8482         1.66572 
        4.90093         26.6224         1.65216 
        4.91663         26.5007         1.63876 
        4.93234         26.2419         1.62549 
        4.94807         26.0557         1.61236 
        4.96377         25.8504          1.5994 
        4.97943         25.6691         1.58661 
        4.99514         25.4397         1.57393 
        5.01086         25.2802         1.56137 
        5.02654         25.0389         1.54899 
        5.04227         24.8317          1.5367 
          5.058         24.7712         1.52454 
        5.07371         24.5207         1.51253 
        5.08942         24.3639         1.50066 
        5.10513         24.1415         1.48891 
        5.12084         23.9047         1.47727 
        5.13656         23.7996         1.46577 
        5.15225          23.567         1.45441 
        5.16796         23.3824         1.44315 
        5.18369         23.2345         1.43199 
         5.1994           23.02         1.42098 
        5.21509         22.8278         1.41009 
        5.23079          22.665         1.39931 
        5.24649         22.4597         1.38864 
        5.26217         22.3574         1.37809 
        5.27788         22.1753         1.36764 
        5.29359         21.9875         1.35729 
        5.30933         21.8029         1.34704 
        5.32504         21.6764         1.33691 
        5.34073         21.5208         1.32689 
        5.35646         21.3815         1.31696 
        5.37218         21.1857         1.30713 
        5.38789         21.0397         1.29741 
        5.40357         20.8373          1.2878 
        5.41929         20.7277         1.27827 
        5.43502         20.5296         1.26883 
         5.4507         20.4685         1.25951 
        5.46639         20.2539         1.25029 
        5.48212         20.0679         1.24113 
        5.49786         19.9647         1.23206 
        5.51353         19.7835         1.22312 
        5.52921         19.6353         1.21426 
        5.54495         19.5432         1.20546 
        5.56066         19.3757         1.19676 
        5.57637         19.2199         1.18814 
        5.59207         19.1378         1.17962 
        5.60778         18.9708         1.17118 
        5.62346         18.8089         1.16283 
        5.63916         18.6614         1.15456 
        5.65487         18.5283         1.14636 
         5.6706         18.4094         1.13823 
        5.68633         18.2819         1.13018 
        5.70203         18.1242         1.12222 
        5.71773         18.0226         1.11434 
        5.73344         17.9121         1.10654 
        5.74916         17.7802         1.09879 
        5.76486           17.65         1.09114 
        5.78054         17.5134         1.08357 
        5.79626          17.419         1.07605 
          5.812         17.2873         1.06859 
         5.8277         17.1379         1.06122 
        5.84339         17.0059         1.05393 
        5.85911         16.8879         1.04669 
        5.87484         16.7837         1.03952 
        5.89053         16.6525         1.03243 
        5.90623         16.5394          1.0254 
        5.92195         16.4493         1.01842 
        5.93767         16.3139         1.01152 
        5.95336         16.1978         1.00469 
        5.96905         16.0916        0.997924 
        5.98476         15.9836        0.991212 
        6.00048         15.8284        0.984559 
        6.01617         15.7424        0.977977 
        6.03185          15.641        0.971462 
        6.04756          15.505        0.964992 
        6.06331          15.423        0.958566 
        6.07903         15.2923        0.952213 
        6.09473         15.1956        0.945922 
        6.11044         15.0946        0.939683 
        6.12616         15.0092        0.933501 
        6.14186         14.8654        0.927381 
        6.15755         14.7969        0.921316 
        6.17326         14.7279        0.915301 
        6.18898         14.6233        0.909336 
        6.20467         14.4792        0.903435 
        6.22036         14.3887        0.897587 
         6.2361         14.2978        0.891775 
         6.2518         14.1815        0.886024 
        6.26748         14.1195        0.880336 
        6.28319         14.0125        0.874682 
        6.29893         13.9084        0.869073 
        6.31463         13.8207        0.863523 
        6.33033         13.7237        0.858023 
        6.34604         13.6283        0.852567 
        6.36177         13.5712        0.847153 
        6.37747         13.4507        0.841796 
