# k  (h/Mpc)    Pcb(k)  (Mpc/h)^3    Pcb_linear(k) (Mpc/h)^3   ShotnoiseSubtracted = true
      0.0200456         10474.9         10628.5 
      0.0350414         7924.24         7726.57 
      0.0492313         5568.86         5613.98 
      0.0637834         4509.66         4666.85 
      0.0800726         3554.31         3703.96 
       0.096163         2777.26         2687.55 
       0.111083         2255.07         2143.66 
       0.126058         1883.52         1899.72 
       0.142273         1620.68         1609.48 
       0.158546         1329.65         1271.15 
        0.17375         1160.22         1070.94 
       0.188953         1071.18         969.715 
       0.204907         913.863             858 
       0.220756          818.12          725.92 
        0.23588         725.907         631.487 
         0.2514         649.947           573.7 
       0.267535         628.716           519.1 
       0.283568         548.599         457.776 
       0.299022         521.624         407.855 
       0.314451         522.861         372.752 
       0.330372         449.514         341.958 
       0.346141          416.56         310.379 
       0.361624         396.894         282.092 
       0.377134         369.121         259.569 
       0.392932         358.697         240.174 
       0.408854         340.506         221.394 
       0.424564         328.059         204.062 
       0.440253          296.18         189.189 
       0.455999         282.615         176.257 
       0.471626         281.454         164.372 
        0.48727          267.88         153.254 
       0.502856         244.994         143.267 
       0.518488         245.591         134.355 
       0.534347          228.08         126.071 
       0.550082         222.357         118.432 
       0.565732         220.374         111.443 
       0.581496         206.548         105.043 
       0.597222         201.577         99.1729 
       0.612804         195.603         93.7753 
       0.628434         189.052         88.7443 
       0.644267         180.239         84.0407 
       0.660051         176.291         79.7057 
       0.675724         174.409         75.7027 
       0.691403         169.766         71.9713 
       0.707174         163.919         68.4704 
       0.722871         161.312         65.2163 
        0.73838         159.381         62.2085 
       0.754018         149.967         59.3677 
       0.769845         149.791         56.6734 
        0.78569         145.806          54.144 
       0.801365         141.461         51.7942 
       0.817031         137.668         49.5861 
       0.832809         135.346         47.4932 
       0.848511         132.104         45.5311 
       0.864097         129.709         43.6939 
       0.879701         128.037         41.9568 
       0.895507         124.223          40.294 
       0.911279         121.288         38.7253 
        0.92691         118.805         37.2534 
       0.942635         116.509         35.8503 
       0.958396         115.174         34.5168 
       0.974128         112.661         33.2538 
       0.989692         110.025         32.0668 
        1.00528         108.598         30.9362 
        1.02113         105.732         29.8426 
        1.03692          105.32         28.8062 
        1.05264         103.939         27.8239 
        1.06832         100.722         26.8892 
        1.08405         99.7971         25.9951 
        1.09979         99.0017         25.1412 
        1.11537         96.3028         24.3344 
        1.13105         95.2098         23.5583 
        1.14679         93.5784         22.8131 
        1.16256         91.6966         22.0989 
        1.17828         90.8863         21.4177 
        1.19395         88.4466         20.7676 
         1.2097          88.295         20.1413 
        1.22537         86.2084         19.5439 
          1.241         85.9637         18.9727 
        1.25666         82.9997         18.4229 
        1.27241         82.3974         17.8924 
        1.28819         81.8594          17.382 
        1.30392         80.2386         16.8931 
        1.31957         79.4222         16.4251 
        1.33529         78.3039         15.9733 
        1.35108         77.7916         15.5367 
        1.36674         76.4005         15.1196 
         1.3824          75.792         14.7183 
        1.39811         73.9117         14.3302 
        1.41389         72.9205         13.9547 
        1.42964          72.019         13.5933 
        1.44531         71.4244         13.2465 
        1.46101         70.6859         12.9111 
        1.47667         69.6239         12.5883 
        1.49229          68.811         12.2775 
        1.50793         67.9092         11.9768 
        1.52367         67.3925         11.6843 
        1.53953         66.2724         11.3996 
        1.55526         65.1707         11.1267 
        1.57092         65.0551         10.8639 
        1.58662         64.0604          10.609 
        1.60235         63.1804         10.3618 
        1.61809         62.1088         10.1224 
        1.63369          61.415         9.89261 
        1.64941         61.1931         9.66838 
        1.66519         59.6881          9.4503 
        1.68085         59.3488         9.24052 
        1.69652           58.14         9.03705 
        1.71228         57.8216         8.83857 
        1.72806         57.2742         8.64591 
        1.74368         56.4198         8.46093 
        1.75933         55.9738         8.28101 
        1.77505         55.3895         8.10548 
        1.79081         54.5565         7.93475 
         1.8065          54.216         7.76967 
        1.82218         52.6975         7.60944 
        1.83797          52.407         7.45264 
        1.85367         52.0007         7.30113 
        1.86928         51.5492         7.15475 
        1.88497          50.653          7.0116 
        1.90073         49.9784         6.87184 
        1.91647         49.7895         6.73602 
        1.93218         49.3923         6.60416 
        1.94787         48.5664         6.47603 
        1.96363         47.8332          6.3508 
        1.97935         47.4318         6.22914 
        1.99499         46.8864         6.11137 
        2.01064         46.3098         5.99647 
         2.0264         46.1005         5.88381 
        2.04216         45.3238          5.7741 
        2.05781         44.8151         5.66788 
        2.07353         44.1054         5.56396 
        2.08928         43.9818         5.46243 
        2.10499         43.5504          5.3637 
        2.12065         42.9787         5.26771 
        2.13633         42.6963         5.17399 
        2.15211         42.0223         5.08195 
        2.16785         41.3475         4.99241 
        2.18349         40.9673         4.90559 
        2.19916         40.5817         4.82065 
        2.21489         40.3554         4.73745 
        2.23063         39.7369         4.65615 
         2.2463         39.4557         4.57713 
        2.26194         38.9694         4.50015 
        2.27765         38.4849         4.42454 
        2.29341         37.9872         4.35047 
        2.30914          37.661         4.27825 
        2.32486         37.0972         4.20771 
        2.34061         36.8672         4.13865 
        2.35635         36.4618          4.0712 
        2.37203         36.1326         4.00549 
        2.38768         35.8547         3.94137 
        2.40339         35.5305         3.87842 
        2.41914         35.1428          3.8167 
        2.43483          34.634         3.75654 
         2.4505         34.4102         3.69778 
        2.46622         33.9874         3.64007 
        2.48195         33.7318         3.58359 
        2.49759         33.2461         3.52862 
        2.51328         32.9156         3.47465 
        2.52906         32.6698         3.42147 
        2.54479         32.3305         3.36961 
        2.56049         32.0896         3.31892 
        2.57618          31.692         3.26932 
        2.59189         31.3249         3.22066 
        2.60758         30.9807         3.17306 
        2.62325         30.8328         3.12649 
        2.63898         30.5225         3.08068 
        2.65468         30.0781          3.0359 
        2.67044         29.8937         2.99181 
        2.68618         29.6269          2.9487 
        2.70184         29.2709         2.90661 
        2.71755         29.0021         2.86524 
        2.73329         28.6989         2.82461 
        2.74897         28.3831          2.7849 
        2.76462         28.1559         2.74604 
        2.78034         27.8592         2.70776 
        2.79607         27.5837         2.67018 
        2.81179         27.3607         2.63334 
        2.82749         27.0468         2.59725 
        2.84321         26.7921         2.56179 
        2.85893         26.5809         2.52701 
        2.87462         26.3447         2.49293 
        2.89033         26.0485         2.45945 
        2.90605         25.8313         2.42655 
        2.92176          25.601         2.39427 
        2.93747         25.3189          2.3626 
        2.95318          25.198         2.33149 
        2.96891         24.8642         2.30093 
        2.98456         24.6459         2.27105 
        3.00023         24.3246         2.24166 
        3.01596          24.049          2.2127 
        3.03164         23.8762         2.18433 
        3.04738         23.7373         2.15638 
         3.0631         23.4903         2.12892 
        3.07883         23.1863         2.10195 
        3.09456          22.978         2.07544 
        3.11026         22.7332         2.04943 
        3.12596         22.4936         2.02387 
        3.14163         22.3345         1.99881 
        3.15734         22.1755         1.97411 
        3.17308         21.8939         1.94977 
        3.18879         21.7248         1.92591 
        3.20447         21.5603         1.90248 
         3.2202         21.3079         1.87936 
         3.2359         21.1008         1.85668 
        3.25157         20.9095         1.83442 
        3.26729         20.7917         1.81245 
        3.28304         20.5612         1.79081 
        3.29877         20.3653         1.76955 
        3.31446         20.1996         1.74867 
        3.33014          19.958         1.72816 
        3.34585         19.8727         1.70794 
        3.36158         19.5872         1.68801 
        3.37727         19.4641         1.66847 
        3.39294         19.3328         1.64925 
        3.40867         19.1168         1.63026 
        3.42439         18.9259         1.61159 
        3.44008         18.7525         1.59324 
        3.45578         18.5883         1.57517 
        3.47153         18.4176         1.55733 
        3.48724         18.3048         1.53981 
        3.50292         18.0884         1.52259 
        3.51859          17.957         1.50565 
        3.53431         17.8009         1.48891 
        3.55007         17.5912         1.47238 
        3.56577          17.497         1.45617 
        3.58146         17.2888         1.44021 
        3.59719         17.1729         1.42445 
        3.61292          17.017         1.40894 
        3.62859         16.8093         1.39371 
        3.64429         16.6622         1.37868 
        3.66003         16.5937         1.36383 
        3.67578         16.4822          1.3492 
        3.69146         16.2751         1.33483 
        3.70712         16.1291         1.32071 
        3.72284         16.0044         1.30673 
        3.73853         15.9054         1.29299 
        3.75422         15.6823         1.27943 
        3.76993         15.5876         1.26606 
        3.78564         15.4395         1.25288 
        3.80137         15.2984         1.23987 
        3.81707          15.168         1.22708 
        3.83279         15.0704         1.21445 
        3.84853         14.9011         1.20198 
        3.86424           14.76         1.18971 
        3.87992         14.6876         1.17763 
        3.89561         14.5474         1.16571 
        3.91134         14.4477         1.15394 
        3.92704         14.3266         1.14234 
        3.94273          14.186         1.13091 
        3.95845         14.0474         1.11962 
        3.97418         13.9172         1.10848 
        3.98988         13.8203         1.09751 
        4.00554         13.7017         1.08671 
        4.02125         13.5771         1.07603 
        4.03698         13.4882         1.06548 
        4.05268         13.3801         1.05509 
        4.06839         13.2255         1.04483 
         4.0841         13.1494         1.03471 
        4.09983         12.9746         1.02471 
        4.11555         12.9194         1.01485 
        4.13124         12.8149         1.00515 
        4.14693          12.695        0.995559 
        4.16266          12.601        0.986075 
        4.17839         12.4678         0.97672 
        4.19408         12.3939        0.967508 
        4.20977         12.2921         0.95841 
        4.22551          12.172        0.949408 
        4.24123         12.0892         0.94053 
        4.25691          11.975        0.931791 
        4.27259         11.8703        0.923159 
        4.28831         11.8191        0.914619 
        4.30404         11.7075        0.906179 
        4.31974          11.616        0.897864 
        4.33543         11.4719        0.889658 
        4.35116          11.418        0.881534 
        4.36688         11.2852        0.873516 
        4.38255         11.2042        0.865626 
        4.39825         11.1214        0.857817 
        4.41398         11.0403        0.850089 
         4.4297         10.9394        0.842464 
        4.44541         10.8604        0.834934 
        4.46111         10.7681        0.827502 
        4.47683         10.6695        0.820155 
        4.49251         10.5836        0.812911 
        4.50819            10.5        0.805758 
         4.5239         10.4398         0.79868 
        4.53962         10.3405        0.791678 
        4.55535         10.2478        0.784756 
        4.57106         10.2177        0.777928 
        4.58678         10.1101        0.771179 
         4.6025         10.0403        0.764508 
        4.61821         9.97212        0.757917 
        4.63391         9.87264        0.751413 
         4.6496         9.78775        0.744987 
        4.66532         9.72613        0.738627 
        4.68103         9.62353        0.732344 
        4.69673         9.55175         0.72614 
        4.71241         9.48427        0.720013 
        4.72811         9.41571        0.713948 
        4.74384         9.35396        0.707944 
        4.75955         9.26544        0.702019 
        4.77525         9.19093        0.696164 
        4.79096         9.14623        0.690369 
        4.80669         9.04614        0.684638 
         4.8224         8.99745        0.678978 
        4.83809          8.9166        0.673387 
        4.85379         8.86283        0.667856 
         4.8695         8.78638        0.662383 
        4.88521         8.70011        0.656974 
        4.90093          8.6688        0.651624 
        4.91663         8.57739        0.646338 
        4.93234         8.52681        0.641105 
        4.94807         8.45446        0.635927 
        4.96377         8.41023        0.630816 
        4.97943         8.33986        0.625771 
        4.99514         8.26772        0.620769 
        5.01086         8.22827        0.615818 
        5.02654         8.14103        0.610933 
        5.04227         8.08889        0.606086 
          5.058         8.03582         0.60129 
        5.07371         7.98698        0.596555 
        5.08942         7.90803        0.591871 
        5.10513         7.83853        0.587236 
        5.12084           7.794        0.582649 
        5.13656         7.74877        0.578111 
        5.15225         7.67796        0.573629 
        5.16796         7.62027        0.569188 
        5.18369         7.57021         0.56479 
         5.1994         7.52416        0.560446 
        5.21509         7.46876        0.556152 
        5.23079         7.39065        0.551897 
        5.24649         7.35904        0.547691 
        5.26217         7.30439        0.543531 
        5.27788         7.24847        0.539408 
        5.29359         7.19811        0.535327 
        5.30933         7.12191        0.531283 
        5.32504         7.09602        0.527287 
        5.34073         7.03984        0.523337 
        5.35646         6.99227        0.519419 
        5.37218         6.94537        0.515541 
        5.38789         6.88866        0.511708 
        5.40357         6.83828        0.507919 
        5.41929         6.80733        0.504159 
        5.43502         6.74862        0.500437 
         5.4507         6.69801        0.496762 
        5.46639         6.65803        0.493123 
        5.48212         6.60207        0.489512 
        5.49786         6.56226        0.485933 
        5.51353         6.52866        0.482407 
        5.52921         6.45715        0.478913 
        5.54495          6.4178        0.475443 
        5.56066         6.38506        0.472011 
        5.57637         6.33661        0.468613 
        5.59207         6.28057        0.465252 
        5.60778         6.24924        0.461923 
        5.62346         6.20274         0.45863 
        5.63916         6.16502        0.455367 
        5.65487         6.11649        0.452134 
         5.6706         6.08116        0.448928 
        5.68633         6.03919        0.445752 
        5.70203         6.00518        0.442614 
        5.71773         5.95538        0.439506 
        5.73344         5.92245        0.436426 
        5.74916         5.87332        0.433373 
        5.76486         5.84216        0.430353 
        5.78054         5.79086        0.427367 
        5.79626         5.76008        0.424401 
          5.812         5.71834         0.42146 
         5.8277         5.67568        0.418555 
        5.84339         5.64219        0.415678 
        5.85911          5.6004        0.412822 
        5.87484         5.56488        0.409993 
        5.89053         5.52613        0.407197 
        5.90623          5.4947        0.404425 
        5.92195          5.4572        0.401674 
        5.93767          5.4256        0.398951 
        5.95336         5.38425        0.396257 
        5.96905          5.3475        0.393589 
        5.98476         5.31876        0.390942 
        6.00048         5.27492        0.388318 
        6.01617          5.2447        0.385722 
        6.03185         5.21748        0.383152 
        6.04756         5.18885          0.3806 
        6.06331         5.14075        0.378066 
        6.07903         5.09972         0.37556 
        6.09473         5.07112        0.373079 
        6.11044         5.03431        0.370618 
        6.12616         5.00997         0.36818 
        6.14186         4.97563        0.365766 
        6.15755         4.94616        0.363374 
        6.17326         4.91588        0.361002 
        6.18898         4.88595        0.358649 
        6.20467         4.85362        0.356322 
        6.22036         4.82197        0.354016 
         6.2361         4.79573        0.351723 
         6.2518         4.75728        0.349455 
        6.26748         4.73722        0.347212 
        6.28319         4.70519        0.344982 
        6.29893         4.67547        0.342769 
        6.31463         4.64639         0.34058 
        6.33033         4.61142        0.338411 
        6.34604         4.58718        0.336259 
        6.36177         4.55325        0.334124 
        6.37747         4.52908        0.332011 
