# k  (h/Mpc)    Pcb(k)  (Mpc/h)^3    Pcb_linear(k) (Mpc/h)^3   ShotnoiseSubtracted = true
      0.0200456         19679.2         20130.2 
      0.0350414         14000.9           14634 
      0.0492313         10430.2         10632.8 
      0.0637834         9012.24         8838.94 
      0.0800726         7113.95         7015.25 
       0.096163         4935.74         5090.17 
       0.111083         3959.04         4060.05 
       0.126058         3647.89         3598.03 
       0.142273         3157.84         3048.32 
       0.158546          2743.8         2407.54 
        0.17375         2193.31         2028.35 
       0.188953         2141.68         1836.62 
       0.204907         2012.57         1625.04 
       0.220756         1739.64         1374.88 
        0.23588         1550.21         1196.03 
         0.2514         1348.22         1086.58 
       0.267535         1344.42         983.166 
       0.283568         1218.46         867.021 
       0.299022         1150.27         772.471 
       0.314451         1095.58         705.986 
       0.330372         1006.32         647.663 
       0.346141         952.712         587.853 
       0.361624         915.337         534.277 
       0.377134         850.794          491.62 
       0.392932         817.706         454.886 
       0.408854         798.295         419.317 
       0.424564         740.761          386.49 
       0.440253         728.104         358.321 
       0.455999         696.315         333.827 
       0.471626         668.457         311.318 
        0.48727         641.171         290.261 
       0.502856         623.714         271.345 
       0.518488         616.378         254.466 
       0.534347         576.592         238.776 
       0.550082         558.937         224.308 
       0.565732         557.566         211.072 
       0.581496         524.893          198.95 
       0.597222         515.821         187.832 
       0.612804         504.179         177.609 
       0.628434         488.459          168.08 
       0.644267         475.447         159.172 
       0.660051         460.359         150.961 
       0.675724         456.062          143.38 
       0.691403         440.727         136.313 
       0.707174         425.874         129.682 
       0.722871         421.007         123.519 
        0.73838         413.949         117.822 
       0.754018         402.926         112.441 
       0.769845         394.092         107.338 
        0.78569         388.985         102.548 
       0.801365         378.096         98.0975 
       0.817031         366.299         93.9152 
       0.832809         363.916         89.9513 
       0.848511         354.909         86.2352 
       0.864097         345.973         82.7555 
       0.879701         341.292         79.4654 
       0.895507         337.121         76.3162 
       0.911279         326.287         73.3451 
        0.92691         322.672         70.5574 
       0.942635         315.086         67.8999 
       0.958396         307.978         65.3742 
       0.974128         302.862         62.9822 
       0.989692         299.564          60.734 
        1.00528         292.974         58.5927 
        1.02113         290.774         56.5215 
        1.03692         282.719         54.5584 
        1.05264          280.32          52.698 
        1.06832         273.219         50.9277 
        1.08405         268.808         49.2342 
        1.09979         263.642         47.6171 
        1.11537         259.643         46.0889 
        1.13105         253.924         44.6189 
        1.14679         250.429         43.2077 
        1.16256         245.737         41.8549 
        1.17828         243.247         40.5647 
        1.19395         237.557         39.3335 
         1.2097         236.391         38.1473 
        1.22537         230.741         37.0158 
          1.241         229.467         35.9339 
        1.25666         224.307         34.8927 
        1.27241         221.339          33.888 
        1.28819         218.266         32.9212 
        1.30392         212.896         31.9952 
        1.31957         213.302          31.109 
        1.33529          208.46         30.2532 
        1.35108         203.576         29.4263 
        1.36674         202.364         28.6363 
         1.3824         200.503         27.8762 
        1.39811          197.72         27.1411 
        1.41389         194.034         26.4299 
        1.42964         191.829         25.7454 
        1.44531         188.926         25.0886 
        1.46101         186.404         24.4533 
        1.47667         182.959          23.842 
        1.49229         181.317         23.2533 
        1.50793         177.501         22.6839 
        1.52367         176.152         22.1299 
        1.53953         173.354         21.5907 
        1.55526         169.463         21.0739 
        1.57092         168.521         20.5761 
        1.58662         166.327         20.0933 
        1.60235         163.323         19.6251 
        1.61809         162.392         19.1716 
        1.63369         158.922         18.7364 
        1.64941         155.734         18.3118 
        1.66519         155.041         17.8987 
        1.68085         153.184         17.5014 
        1.69652         150.767          17.116 
        1.71228         147.893         16.7401 
        1.72806          146.25         16.3752 
        1.74368         144.877         16.0249 
        1.75933         142.077         15.6841 
        1.77505         140.821         15.3517 
        1.79081         139.628         15.0283 
         1.8065         137.724         14.7156 
        1.82218         135.189         14.4122 
        1.83797         134.266         14.1152 
        1.85367         132.328         13.8282 
        1.86928         129.977          13.551 
        1.88497         128.163         13.2799 
        1.90073         126.916         13.0151 
        1.91647         125.299         12.7579 
        1.93218         123.704         12.5082 
        1.94787         121.913         12.2655 
        1.96363         120.142         12.0283 
        1.97935         118.569         11.7979 
        1.99499         116.789         11.5748 
        2.01064         115.583         11.3572 
         2.0264         113.917         11.1438 
        2.04216          112.62          10.936 
        2.05781         111.564         10.7349 
        2.07353         110.512         10.5381 
        2.08928         108.055         10.3458 
        2.10499         106.828         10.1588 
        2.12065         105.382         9.97696 
        2.13633         104.785         9.79946 
        2.15211         102.611         9.62514 
        2.16785         101.082         9.45554 
        2.18349          100.33         9.29111 
        2.19916          99.228         9.13024 
        2.21489         97.9026         8.97265 
        2.23063         96.3718         8.81868 
         2.2463         95.2529         8.66902 
        2.26194         94.2541          8.5232 
        2.27765         93.1073            8.38 
        2.29341         92.1827         8.23972 
        2.30914         90.9231         8.10294 
        2.32486         90.0844         7.96934 
        2.34061         88.8115         7.83854 
        2.35635         87.4048         7.71079 
        2.37203         86.3084         7.58634 
        2.38768         85.5113         7.46489 
        2.40339         84.5811         7.34566 
        2.41914         83.3559         7.22876 
        2.43483         82.4563         7.11482 
         2.4505         81.3799         7.00353 
        2.46622          80.174         6.89423 
        2.48195         79.2934         6.78727 
        2.49759         78.3177         6.68314 
        2.51328         77.8593         6.58093 
        2.52906         76.4214         6.48022 
        2.54479         75.6741         6.38198 
        2.56049         74.8866         6.28598 
        2.57618         74.1157         6.19203 
        2.59189         73.1218         6.09987 
        2.60758          72.492         6.00973 
        2.62325         71.4204         5.92151 
        2.63898         70.5093         5.83477 
        2.65468         69.7651         5.74994 
        2.67044         68.9625         5.66643 
        2.68618         68.2428         5.58478 
        2.70184         67.8032         5.50507 
        2.71755         66.8657         5.42671 
        2.73329         66.1216         5.34976 
        2.74897         65.3059         5.27455 
        2.76462         64.5613         5.20095 
        2.78034         63.9249         5.12846 
        2.79607         62.8904         5.05727 
        2.81179         62.3898         4.98751 
        2.82749         61.5707         4.91915 
        2.84321         61.1212         4.85199 
        2.85893         60.3624         4.78611 
        2.87462         59.5515         4.72157 
        2.89033         58.9751         4.65815 
        2.90605          58.229         4.59585 
        2.92176         57.8073         4.53472 
        2.93747         57.3653         4.47473 
        2.95318         56.5869         4.41581 
        2.96891         56.0496         4.35793 
        2.98456         55.4012         4.30134 
        3.00023          54.609         4.24567 
        3.01596         54.1602         4.19082 
        3.03164         53.4551         4.13709 
        3.04738         52.9649         4.08415 
         3.0631         52.3863         4.03215 
        3.07883         51.8056         3.98105 
        3.09456         51.3144         3.93085 
        3.11026         50.6021         3.88159 
        3.12596         50.1304         3.83318 
        3.14163         49.6321         3.78571 
        3.15734         49.2687         3.73893 
        3.17308         48.5918         3.69283 
        3.18879         48.2996         3.64763 
        3.20447         47.3971         3.60326 
         3.2202         47.2259         3.55948 
         3.2359         46.6875         3.51651 
        3.25157         46.1561         3.47435 
        3.26729         45.7779         3.43276 
        3.28304         45.2844         3.39176 
        3.29877         44.8649         3.35149 
        3.31446         44.2108         3.31196 
        3.33014         43.9274          3.2731 
        3.34585          43.723         3.23481 
        3.36158         43.1816         3.19707 
        3.37727          42.692         3.16005 
        3.39294         42.2659         3.12365 
        3.40867         41.8117         3.08769 
        3.42439         41.2549         3.05232 
        3.44008         40.9556         3.01758 
        3.45578         40.5177         2.98334 
        3.47153         40.0981         2.94956 
        3.48724         39.7913         2.91637 
        3.50292         39.4644         2.88376 
        3.51859         38.9796         2.85167 
        3.53431         38.5757         2.81996 
        3.55007         38.1141         2.78866 
        3.56577         37.8389         2.75796 
        3.58146         37.4451         2.72774 
        3.59719         37.0956         2.69789 
        3.61292         36.6934         2.66851 
        3.62859         36.4379         2.63967 
        3.64429         36.1392          2.6112 
        3.66003         35.7193         2.58306 
        3.67578         35.2508         2.55535 
        3.69146         35.0098         2.52815 
        3.70712         34.6942          2.5014 
        3.72284         34.3138         2.47493 
        3.73853         34.0065          2.4489 
        3.75422          33.668         2.42322 
        3.76993         33.4807          2.3979 
        3.78564         33.1371         2.37294 
        3.80137         32.7843          2.3483 
        3.81707         32.4318         2.32406 
        3.83279         32.2538         2.30015 
        3.84853         31.9178         2.27653 
        3.86424         31.4844         2.25329 
        3.87992         31.3364          2.2304 
        3.89561         31.0235         2.20784 
        3.91134         30.6047         2.18554 
        3.92704         30.4652         2.16357 
        3.94273         30.0942         2.14193 
        3.95845          29.885         2.12054 
        3.97418         29.5955         2.09944 
        3.98988         29.3183         2.07866 
        4.00554         28.9924         2.05821 
        4.02125         28.7626         2.03798 
        4.03698         28.5386           2.018 
        4.05268         28.3207         1.99832 
        4.06839         28.0104         1.97889 
         4.0841         27.8302         1.95973 
        4.09983         27.4797         1.94079 
        4.11555         27.2534         1.92211 
        4.13124         27.0555         1.90373 
        4.14693         26.7663         1.88557 
        4.16266         26.5235         1.86761 
        4.17839         26.2882         1.84989 
        4.19408         26.0419         1.83244 
        4.20977         25.8345         1.81521 
        4.22551         25.6277         1.79816 
        4.24123         25.4245         1.78135 
        4.25691         25.1667          1.7648 
        4.27259         25.0171         1.74845 
        4.28831         24.6876         1.73227 
        4.30404         24.5587         1.71629 
        4.31974         24.3037         1.70054 
        4.33543         24.0889           1.685 
        4.35116         24.0032         1.66961 
        4.36688         23.7317         1.65442 
        4.38255         23.4526         1.63948 
        4.39825         23.3022         1.62469 
        4.41398         23.0289         1.61005 
         4.4297         22.8703         1.59561 
        4.44541         22.6874         1.58135 
        4.46111         22.5332         1.56727 
        4.47683         22.3327         1.55336 
        4.49251         22.1289         1.53964 
        4.50819         21.9209         1.52609 
         4.5239         21.7831         1.51269 
        4.53962         21.5935         1.49942 
        4.55535         21.4333         1.48632 
        4.57106         21.2292         1.47338 
        4.58678         21.0709          1.4606 
         4.6025           20.92         1.44797 
        4.61821         20.7718         1.43548 
        4.63391         20.5204         1.42316 
         4.6496          20.375         1.41099 
        4.66532         20.2234         1.39895 
        4.68103         20.0284         1.38705 
        4.69673         19.8675          1.3753 
        4.71241         19.7375         1.36369 
        4.72811         19.5522         1.35221 
        4.74384         19.4231         1.34083 
        4.75955         19.2637         1.32961 
        4.77525         19.0789         1.31852 
        4.79096         18.9703         1.30755 
        4.80669         18.7789         1.29669 
         4.8224         18.6183         1.28597 
        4.83809         18.4852         1.27538 
        4.85379         18.2628         1.26491 
         4.8695         18.2116         1.25454 
        4.88521          18.046          1.2443 
        4.90093         17.8902         1.23416 
        4.91663         17.7189         1.22415 
        4.93234         17.6276         1.21424 
        4.94807         17.4558         1.20444 
        4.96377         17.3464         1.19475 
        4.97943         17.2206          1.1852 
        4.99514         17.0794         1.17573 
        5.01086         16.9431         1.16635 
        5.02654          16.794          1.1571 
        5.04227         16.6811         1.14792 
          5.058         16.5308         1.13883 
        5.07371         16.4136         1.12987 
        5.08942         16.3025         1.12099 
        5.10513         16.1745         1.11222 
        5.12084         16.0418         1.10353 
        5.13656         15.8845         1.09493 
        5.15225         15.7931         1.08644 
        5.16796         15.6984         1.07803 
        5.18369         15.5631          1.0697 
         5.1994         15.4612         1.06148 
        5.21509         15.3345         1.05334 
        5.23079         15.2162         1.04528 
        5.24649          15.111         1.03732 
        5.26217         14.9658         1.02944 
        5.27788          14.864         1.02163 
        5.29359         14.7667          1.0139 
        5.30933         14.6311         1.00624 
        5.32504          14.533        0.998673 
        5.34073         14.4225        0.991192 
        5.35646           14.33        0.983771 
        5.37218         14.2147        0.976425 
        5.38789         14.1047        0.969166 
        5.40357          14.021        0.961989 
        5.41929         13.9128        0.954869 
        5.43502         13.7861         0.94782 
         5.4507          13.705        0.940859 
        5.46639         13.5852        0.933967 
        5.48212         13.4731        0.927128 
        5.49786         13.4154        0.920349 
        5.51353         13.2979        0.913671 
        5.52921         13.2375        0.907053 
        5.54495         13.1295        0.900481 
        5.56066         13.0389        0.893981 
        5.57637         12.9226        0.887546 
        5.59207         12.8213         0.88118 
        5.60778          12.753        0.874874 
        5.62346         12.6627        0.868638 
        5.63916         12.5335        0.862458 
        5.65487         12.4714        0.856334 
         5.6706         12.3575        0.850262 
        5.68633         12.2732        0.844247 
        5.70203         12.2152        0.838303 
        5.71773         12.1084        0.832417 
        5.73344         12.0306        0.826584 
        5.74916         11.9611        0.820802 
        5.76486         11.8477        0.815082 
        5.78054          11.777        0.809427 
        5.79626         11.6756        0.803808 
          5.812         11.6145        0.798238 
         5.8277         11.5151        0.792736 
        5.84339         11.4457        0.787287 
        5.85911         11.3544        0.781878 
        5.87484         11.2764        0.776521 
        5.89053         11.1965        0.771224 
        5.90623         11.1102        0.765975 
        5.92195         11.0355        0.760765 
        5.93767         10.9615        0.755606 
        5.95336         10.8946        0.750504 
        5.96905         10.8074        0.745451 
        5.98476         10.7608        0.740437 
        6.00048         10.6385        0.735468 
        6.01617          10.601        0.730551 
        6.03185         10.5256        0.725684 
        6.04756          10.449        0.720851 
        6.06331         10.3764        0.716051 
        6.07903         10.2987        0.711305 
        6.09473         10.2362        0.706606 
        6.11044         10.1694        0.701945 
        6.12616         10.1188        0.697327 
        6.14186         10.0291        0.692756 
        6.15755         9.96298        0.688225 
        6.17326         9.87493        0.683732 
        6.18898         9.84273        0.679276 
        6.20467          9.7603        0.674868 
        6.22036         9.69412          0.6705 
         6.2361          9.6326        0.666158 
         6.2518         9.56997        0.661862 
        6.26748         9.50249        0.657613 
        6.28319          9.4527         0.65339 
        6.29893         9.38495          0.6492 
        6.31463         9.31162        0.645054 
        6.33033         9.24393        0.640945 
        6.34604         9.19325        0.636869 
        6.36177          9.1303        0.632825 
        6.37747         9.08383        0.628824 
