# k  (h/Mpc)    Pcb(k)  (Mpc/h)^3    Pcb_linear(k) (Mpc/h)^3   ShotnoiseSubtracted = true
      0.0200456         23395.4         23816.8 
      0.0350414         17868.7           17314 
      0.0492313         12286.3           12580 
      0.0637834         9901.84         10457.7 
      0.0800726         7766.58            8300 
       0.096163         6262.03         6022.37 
       0.111083         5100.16          4803.6 
       0.126058         4213.23         4256.97 
       0.142273         3697.79         3606.59 
       0.158546         3033.39         2848.45 
        0.17375         2720.01         2399.82 
       0.188953         2586.38         2172.98 
       0.204907          2225.5         1922.64 
       0.220756         2015.03         1626.67 
        0.23588          1799.1         1415.06 
         0.2514         1632.42         1285.57 
       0.267535         1572.45         1163.22 
       0.283568         1405.07         1025.81 
       0.299022         1338.41         913.939 
       0.314451         1395.43         835.279 
       0.330372          1239.9         766.274 
       0.346141         1138.13         695.511 
       0.361624         1091.53         632.124 
       0.377134         1048.46         581.654 
       0.392932         996.998         538.193 
       0.408854         957.519          496.11 
       0.424564           937.3         457.272 
       0.440253          871.57         423.944 
       0.455999         833.035         394.964 
       0.471626         846.088         368.332 
        0.48727         798.993         343.419 
       0.502856         770.564         321.038 
       0.518488         744.542         301.069 
       0.534347         717.422         282.505 
       0.550082         684.036         265.387 
       0.565732         672.833         249.727 
       0.581496         658.293         235.385 
       0.597222         645.721         222.231 
       0.612804         629.385         210.136 
       0.628434          603.43         198.862 
       0.644267         587.166         188.322 
       0.660051         580.738         178.608 
       0.675724         569.006         169.638 
       0.691403          550.77         161.277 
       0.707174         535.125         153.432 
       0.722871         530.321          146.14 
        0.73838         517.149           139.4 
       0.754018         505.466         133.034 
       0.769845         498.539         126.996 
        0.78569         487.523         121.328 
       0.801365         471.424         116.063 
       0.817031          467.01         111.115 
       0.832809          459.38         106.425 
       0.848511         451.828         102.028 
       0.864097         441.905         97.9112 
       0.879701         441.554         94.0186 
       0.895507         423.877         90.2927 
       0.911279         418.479         86.7773 
        0.92691         412.944         83.4791 
       0.942635         407.603         80.3349 
       0.958396         395.044         77.3467 
       0.974128         389.295         74.5167 
       0.989692           378.7         71.8567 
        1.00528         374.532         69.3232 
        1.02113         368.085         66.8727 
        1.03692         362.525         64.5502 
        1.05264         357.408         62.3491 
        1.06832         349.161         60.2544 
        1.08405         347.814         58.2509 
        1.09979         339.837         56.3376 
        1.11537         331.149         54.5295 
        1.13105         327.349         52.7904 
        1.14679         321.497         51.1206 
        1.16256         319.661         49.5201 
        1.17828          314.36         47.9937 
        1.19395         306.315         46.5369 
         1.2097         303.909         45.1335 
        1.22537         299.104         43.7949 
          1.241         292.536         42.5148 
        1.25666         289.646         41.2828 
        1.27241         285.854         40.0941 
        1.28819          278.67         38.9504 
        1.30392          278.56         37.8547 
        1.31957         270.914         36.8062 
        1.33529         267.171         35.7937 
        1.35108         265.804         34.8154 
        1.36674         258.654         33.8807 
         1.3824         255.622         32.9813 
        1.39811         252.507         32.1117 
        1.41389         246.875         31.2702 
        1.42964         243.506         30.4604 
        1.44531         240.686         29.6833 
        1.46101         236.248         28.9317 
        1.47667         233.668         28.2084 
        1.49229         230.416         27.5119 
        1.50793         226.745         26.8382 
        1.52367         223.088         26.1827 
        1.53953         219.531         25.5448 
        1.55526         216.859         24.9333 
        1.57092         214.981         24.3444 
        1.58662         210.118         23.7731 
        1.60235         207.559         23.2192 
        1.61809         205.508         22.6826 
        1.63369         201.534         22.1678 
        1.64941         198.612         21.6653 
        1.66519         195.923         21.1767 
        1.68085         192.413         20.7066 
        1.69652         190.422         20.2506 
        1.71228         187.509         19.8059 
        1.72806         185.347         19.3741 
        1.74368         182.916         18.9596 
        1.75933         181.557         18.5564 
        1.77505         178.635         18.1631 
        1.79081         175.393         17.7805 
         1.8065         174.361         17.4106 
        1.82218         169.841         17.0516 
        1.83797         168.595         16.7002 
        1.85367         166.099         16.3607 
        1.86928         163.516         16.0327 
        1.88497         161.899         15.7119 
        1.90073         160.326         15.3987 
        1.91647         157.268         15.0944 
        1.93218         154.757         14.7989 
        1.94787         152.852         14.5118 
        1.96363         152.037         14.2312 
        1.97935         150.144         13.9585 
        1.99499         147.692         13.6946 
        2.01064         144.663         13.4372 
         2.0264         144.177         13.1847 
        2.04216         141.489         12.9389 
        2.05781         139.181         12.7008 
        2.07353         138.406          12.468 
        2.08928         136.565         12.2405 
        2.10499         134.956         12.0192 
        2.12065         133.421         11.8041 
        2.13633           131.4         11.5941 
        2.15211         129.387         11.3879 
        2.16785          128.09         11.1872 
        2.18349         126.687         10.9927 
        2.19916         124.786         10.8023 
        2.21489         123.109         10.6159 
        2.23063         121.622         10.4337 
         2.2463         119.888         10.2566 
        2.26194         118.903         10.0841 
        2.27765         116.911          9.9147 
        2.29341         115.946         9.74872 
        2.30914         114.505         9.58689 
        2.32486         112.733         9.42883 
        2.34061         111.168         9.27407 
        2.35635         110.373         9.12293 
        2.37203         108.565         8.97568 
        2.38768          107.72         8.83199 
        2.40339         105.649         8.69093 
        2.41914         104.628         8.55262 
        2.43483         103.736         8.41781 
         2.4505         102.532         8.28614 
        2.46622         100.749         8.15683 
        2.48195         99.8774         8.03027 
        2.49759         98.2986         7.90708 
        2.51328          97.339         7.78615 
        2.52906         96.4109         7.66699 
        2.54479         95.0509         7.55077 
        2.56049         93.7346         7.43718 
        2.57618         92.7525         7.32603 
        2.59189         92.1226         7.21699 
        2.60758         90.5186         7.11033 
        2.62325         89.9277         7.00597 
        2.63898         88.7455         6.90333 
        2.65468         87.9021         6.80297 
        2.67044          86.955         6.70417 
        2.68618         85.5327         6.60757 
        2.70184         84.6381         6.51325 
        2.71755         83.9946         6.42055 
        2.73329         82.5428          6.3295 
        2.74897         81.7356         6.24052 
        2.76462         81.4329         6.15344 
        2.78034         80.0263         6.06767 
        2.79607         78.9357         5.98345 
        2.81179         78.2382         5.90091 
        2.82749         77.6001         5.82003 
        2.84321         76.3663         5.74058 
        2.85893         75.2038         5.66263 
        2.87462          74.827         5.58626 
        2.89033         73.8851         5.51124 
        2.90605          73.024         5.43752 
        2.92176         72.4655         5.36519 
        2.93747         71.5505         5.29422 
        2.95318         70.4564         5.22451 
        2.96891         70.0466         5.15603 
        2.98456         68.9529         5.08908 
        3.00023         68.3407         5.02322 
        3.01596         67.7358         4.95832 
        3.03164         66.8905         4.89475 
        3.04738         66.5413         4.83211 
         3.0631         65.3809         4.77059 
        3.07883         64.8914         4.71014 
        3.09456         63.9657         4.65074 
        3.11026         63.6126         4.59246 
        3.12596         62.7413         4.53518 
        3.14163         62.1395         4.47902 
        3.15734         61.2222         4.42367 
        3.17308         60.8436         4.36913 
        3.18879         60.2094         4.31565 
        3.20447         59.6493         4.26315 
         3.2202         58.7106         4.21136 
         3.2359         58.1575         4.16052 
        3.25157         57.8012         4.11064 
        3.26729          57.044         4.06143 
        3.28304         56.3051         4.01292 
        3.29877         55.9479         3.96528 
        3.31446         55.1227         3.91851 
        3.33014         54.7288         3.87253 
        3.34585         54.1537         3.82722 
        3.36158         53.7581         3.78257 
        3.37727         53.2379         3.73877 
        3.39294         52.5494         3.69571 
        3.40867         52.1445         3.65317 
        3.42439          51.541         3.61132 
        3.44008         51.0158         3.57021 
        3.45578         50.4781         3.52971 
        3.47153         49.9968         3.48974 
        3.48724         49.5831         3.45047 
        3.50292         49.0917         3.41189 
        3.51859         48.6065         3.37392 
        3.53431         48.0377         3.33641 
        3.55007         47.4855         3.29937 
        3.56577         47.0138         3.26305 
        3.58146         46.5523         3.22729 
        3.59719         46.2019         3.19198 
        3.61292         45.5943         3.15721 
        3.62859         45.2667         3.12309 
        3.64429         44.8757         3.08941 
        3.66003         44.5021         3.05612 
        3.67578         43.9309         3.02334 
        3.69146         43.5836         2.99116 
        3.70712         43.2378          2.9595 
        3.72284         42.7699         2.92819 
        3.73853         42.3758         2.89738 
        3.75422          41.949         2.86701 
        3.76993         41.5921         2.83704 
        3.78564         41.1884         2.80752 
        3.80137         40.8533         2.77836 
        3.81707         40.3468         2.74969 
        3.83279         40.0482         2.72139 
        3.84853         39.6515         2.69344 
        3.86424         39.2609         2.66595 
        3.87992         38.8393         2.63887 
        3.89561         38.5868         2.61218 
        3.91134         38.1935         2.58579 
        3.92704         37.8435          2.5598 
        3.94273         37.5308          2.5342 
        3.95845          37.084         2.50889 
        3.97418         36.8214         2.48393 
        3.98988         36.4955         2.45934 
        4.00554         36.0492         2.43515 
        4.02125         35.8545         2.41122 
        4.03698         35.4556         2.38757 
        4.05268         35.2047         2.36429 
        4.06839          34.913          2.3413 
         4.0841         34.6072         2.31863 
        4.09983         34.2153         2.29622 
        4.11555         33.9998         2.27412 
        4.13124         33.5387         2.25238 
        4.14693         33.3444         2.23089 
        4.16266         33.0801         2.20964 
        4.17839         32.6975         2.18868 
        4.19408         32.4473         2.16803 
        4.20977         32.1851         2.14765 
        4.22551          31.892         2.12748 
        4.24123          31.641         2.10758 
        4.25691         31.3183           2.088 
        4.27259         31.0634         2.06865 
        4.28831         30.8508         2.04952 
        4.30404         30.5778         2.03061 
        4.31974         30.2927         2.01197 
        4.33543         30.0013         1.99358 
        4.35116         29.7659         1.97538 
        4.36688         29.4653         1.95741 
        4.38255          29.306         1.93973 
        4.39825         29.0464         1.92223 
        4.41398         28.7882         1.90492 
         4.4297         28.4976         1.88783 
        4.44541         28.3521         1.87096 
        4.46111         27.9696          1.8543 
        4.47683         27.8749         1.83784 
        4.49251         27.6356         1.82161 
        4.50819         27.3474         1.80558 
         4.5239         27.0704         1.78972 
        4.53962         26.8787         1.77403 
        4.55535         26.6899         1.75852 
        4.57106         26.3746         1.74321 
        4.58678         26.2248         1.72809 
         4.6025           26.04         1.71314 
        4.61821         25.8035         1.69837 
        4.63391         25.6045          1.6838 
         4.6496         25.3309          1.6694 
        4.66532         25.1619         1.65515 
        4.68103         24.9403         1.64107 
        4.69673         24.7865         1.62717 
        4.71241         24.5606         1.61344 
        4.72811         24.3736         1.59985 
        4.74384         24.2388         1.58639 
        4.75955         24.0518         1.57311 
        4.77525         23.7744            1.56 
        4.79096         23.5603         1.54701 
        4.80669         23.4013         1.53417 
         4.8224         23.2508         1.52148 
        4.83809         23.0025         1.50896 
        4.85379         22.8567         1.49656 
         4.8695         22.6623          1.4843 
        4.88521         22.4723         1.47218 
        4.90093           22.34         1.46019 
        4.91663         22.1581         1.44834 
        4.93234         21.9257         1.43662 
        4.94807         21.7408         1.42501 
        4.96377         21.6025         1.41356 
        4.97943         21.4696         1.40226 
        4.99514         21.3264         1.39105 
        5.01086         21.1257         1.37995 
        5.02654          20.951           1.369 
        5.04227         20.7802         1.35814 
          5.058         20.5725          1.3474 
        5.07371         20.4482         1.33679 
        5.08942         20.2403         1.32629 
        5.10513         20.1672          1.3159 
        5.12084         19.9968         1.30562 
        5.13656         19.8496         1.29546 
        5.15225         19.7463         1.28541 
        5.16796         19.5479         1.27546 
        5.18369          19.385         1.26561 
         5.1994         19.1988         1.25587 
        5.21509          19.086         1.24625 
        5.23079         18.9511         1.23672 
        5.24649         18.8169         1.22729 
        5.26217         18.6518         1.21797 
        5.27788         18.5392         1.20873 
        5.29359         18.3646         1.19959 
        5.30933         18.2164         1.19052 
        5.32504         18.0935         1.18157 
        5.34073         17.9453         1.17272 
        5.35646          17.796         1.16394 
        5.37218         17.6953         1.15525 
        5.38789         17.5671         1.14666 
        5.40357         17.4256         1.13817 
        5.41929         17.3175         1.12974 
        5.43502         17.1793          1.1214 
         5.4507         17.0259         1.11317 
        5.46639          16.904         1.10501 
        5.48212         16.7765         1.09692 
        5.49786         16.6558          1.0889 
        5.51353         16.5493           1.081 
        5.52921         16.4089         1.07317 
        5.54495          16.298         1.06539 
        5.56066         16.1792          1.0577 
        5.57637         16.0398         1.05009 
        5.59207         15.9223         1.04256 
        5.60778         15.8844          1.0351 
        5.62346         15.7118         1.02772 
        5.63916         15.5964         1.02041 
        5.65487         15.4556         1.01316 
         5.6706         15.3848         1.00598 
        5.68633         15.2856        0.998861 
        5.70203          15.161        0.991828 
        5.71773         15.0625        0.984864 
        5.73344         14.9624        0.977963 
        5.74916          14.836        0.971122 
        5.76486         14.7233        0.964355 
        5.78054         14.6068        0.957663 
        5.79626         14.5456        0.951016 
          5.812         14.4367        0.944426 
         5.8277         14.2951        0.937916 
        5.84339         14.1999        0.931469 
        5.85911         14.1271        0.925069 
        5.87484         13.9993        0.918731 
        5.89053          13.898        0.912465 
        5.90623         13.8144        0.906254 
        5.92195         13.6949         0.90009 
        5.93767         13.6191        0.893987 
        5.95336         13.5223         0.88795 
        5.96905         13.4228        0.881971 
        5.98476         13.3427        0.876039 
        6.00048         13.2352         0.87016 
        6.01617          13.178        0.864342 
        6.03185         13.0716        0.858585 
        6.04756         12.9904        0.852866 
        6.06331         12.9011        0.847187 
        6.07903         12.7676        0.841572 
        6.09473         12.6981        0.836012 
        6.11044         12.6294        0.830498 
        6.12616         12.5559        0.825035 
        6.14186         12.4802        0.819626 
        6.15755         12.3576        0.814265 
        6.17326         12.2771        0.808949 
        6.18898         12.1849        0.803677 
        6.20467         12.0924        0.798462 
        6.22036         12.0261        0.793294 
         6.2361          11.927        0.788157 
         6.2518         11.8556        0.783074 
        6.26748         11.8064        0.778047 
        6.28319         11.7038         0.77305 
        6.29893         11.6377        0.768093 
        6.31463         11.5653        0.763187 
        6.33033         11.4837        0.758326 
        6.34604         11.3973        0.753504 
        6.36177         11.3317        0.748719 
        6.37747         11.2593        0.743985 
