# k  (h/Mpc)    Pcb(k)  (Mpc/h)^3    Pcb_linear(k) (Mpc/h)^3   ShotnoiseSubtracted = true
      0.0200456         1429.11         1449.68 
      0.0350414         1046.67         1053.87 
      0.0492313         767.974         765.719 
      0.0637834         642.597         636.535 
      0.0800726         509.444         505.202 
       0.096163         365.083         366.568 
       0.111083         289.844         292.384 
       0.126058         260.572         259.112 
       0.142273         222.196         219.525 
       0.158546         176.858         173.379 
        0.17375         146.248         146.071 
       0.188953         134.527         132.264 
       0.204907         122.788         117.027 
       0.220756         102.452         99.0119 
        0.23588         89.1995         86.1318 
         0.2514         79.9899         78.2498 
       0.267535         73.2108         70.8027 
       0.283568         65.2029         62.4384 
       0.299022         58.8516         55.6294 
       0.314451         52.6778         50.8415 
       0.330372         48.9093         46.6414 
       0.346141         44.4092         42.3342 
       0.361624         40.8971          38.476 
       0.377134         38.2309          35.404 
       0.392932         33.9979         32.7586 
       0.408854         32.5932         30.1971 
       0.424564          30.292         27.8331 
       0.440253         27.9216         25.8045 
       0.455999         26.3021         24.0406 
       0.471626         24.6978         22.4195 
        0.48727         23.1977         20.9031 
       0.502856          21.638         19.5409 
       0.518488         20.6552         18.3254 
       0.534347         19.7304         17.1954 
       0.550082         18.0199         16.1535 
       0.565732         16.6792         15.2003 
       0.581496         16.3315         14.3273 
       0.597222           15.68         13.5267 
       0.612804         14.5919         12.7905 
       0.628434         14.0514         12.1043 
       0.644267         13.5024         11.4627 
       0.660051         12.7336         10.8715 
       0.675724         12.0839         10.3255 
       0.691403         11.6751         9.81654 
       0.707174         11.1211         9.33903 
       0.722871         10.6625         8.89519 
        0.73838         10.2409         8.48494 
       0.754018         9.89161         8.09746 
       0.769845         9.41496         7.72997 
        0.78569         9.10797         7.38498 
       0.801365         8.71864         7.06448 
       0.817031         8.43635         6.76329 
       0.832809         8.18338         6.47784 
       0.848511         7.70234         6.21022 
       0.864097         7.46472         5.95963 
       0.879701         7.22364          5.7227 
       0.895507         6.90273         5.49591 
       0.911279          6.8036         5.28194 
        0.92691         6.55514         5.08119 
       0.942635         6.26555         4.88981 
       0.958396         6.06128         4.70792 
       0.974128         5.90072         4.53566 
       0.989692         5.80085         4.37375 
        1.00528         5.55333         4.21955 
        1.02113         5.34579         4.07039 
        1.03692          5.2424         3.92902 
        1.05264         5.07237         3.79505 
        1.06832          4.9529         3.66755 
        1.08405         4.73785          3.5456 
        1.09979         4.63796         3.42914 
        1.11537         4.53353         3.31909 
        1.13105         4.40651         3.21323 
        1.14679         4.29746          3.1116 
        1.16256         4.16377         3.01418 
        1.17828         4.08071         2.92127 
        1.19395         3.96327          2.8326 
         1.2097         3.81747         2.74717 
        1.22537         3.72861         2.66569 
          1.241         3.65732         2.58778 
        1.25666         3.62591         2.51279 
        1.27241         3.47446         2.44044 
        1.28819         3.39574         2.37082 
        1.30392         3.33654         2.30413 
        1.31957         3.26192         2.24031 
        1.33529         3.17479         2.17868 
        1.35108         3.10181         2.11913 
        1.36674          3.0411         2.06224 
         1.3824         2.93622          2.0075 
        1.39811         2.88678         1.95457 
        1.41389         2.84035         1.90335 
        1.42964         2.77842         1.85406 
        1.44531         2.72241         1.80675 
        1.46101         2.66451         1.76101 
        1.47667          2.5856         1.71698 
        1.49229          2.5642         1.67459 
        1.50793         2.49358         1.63358 
        1.52367         2.46634         1.59368 
        1.53953         2.38945         1.55486 
        1.55526         2.34363         1.51763 
        1.57092         2.30747         1.48179 
        1.58662         2.26083         1.44702 
        1.60235         2.21518          1.4133 
        1.61809         2.17409         1.38064 
        1.63369         2.14471          1.3493 
        1.64941          2.0947         1.31872 
        1.66519         2.06464         1.28898 
        1.68085          2.0093         1.26036 
        1.69652         1.97766         1.23261 
        1.71228         1.95149         1.20554 
        1.72806         1.90422         1.17926 
        1.74368         1.87732         1.15403 
        1.75933         1.84029         1.12949 
        1.77505         1.81368         1.10555 
        1.79081         1.78151         1.08226 
         1.8065         1.74746         1.05974 
        1.82218         1.72848         1.03789 
        1.83797         1.70477          1.0165 
        1.85367         1.67901        0.995839 
        1.86928         1.65174        0.975874 
        1.88497         1.61239        0.956348 
        1.90073         1.58325        0.937285 
        1.91647         1.56699         0.91876 
        1.93218         1.54888        0.900775 
        1.94787         1.51704        0.883299 
        1.96363         1.49072        0.866218 
        1.97935         1.46638        0.849625 
        1.99499         1.43863        0.833561 
        2.01064         1.42234        0.817889 
         2.0264         1.41301        0.802522 
        2.04216         1.38489        0.787559 
        2.05781         1.36182        0.773072 
        2.07353         1.34686        0.758898 
        2.08928         1.32426        0.745049 
        2.10499         1.30512        0.731583 
        2.12065         1.29487         0.71849 
        2.13633         1.27045        0.705708 
        2.15211         1.24989        0.693154 
        2.16785         1.23077         0.68094 
        2.18349         1.21865        0.669098 
        2.19916         1.19606        0.657513 
        2.21489         1.18004        0.646165 
        2.23063         1.16336        0.635077 
         2.2463         1.15487        0.624299 
        2.26194         1.12978        0.613798 
        2.27765         1.11691        0.603485 
        2.29341         1.10703        0.593383 
        2.30914         1.09442        0.583533 
        2.32486          1.0812        0.573912 
        2.34061         1.06343        0.564492 
        2.35635         1.04625        0.555292 
        2.37203         1.03758         0.54633 
        2.38768         1.02588        0.537583 
        2.40339         1.01432        0.528997 
        2.41914         1.00195        0.520579 
        2.43483        0.987668        0.512373 
         2.4505        0.972678        0.504358 
        2.46622        0.961884        0.496488 
        2.48195        0.955978        0.488785 
        2.49759         0.94207        0.481286 
        2.51328        0.926535        0.473926 
        2.52906        0.916979        0.466672 
        2.54479        0.908356        0.459598 
        2.56049        0.896238        0.452684 
        2.57618        0.888246        0.445919 
        2.59189        0.877285        0.439282 
        2.60758        0.865665         0.43279 
        2.62325        0.857253        0.426437 
        2.63898        0.849273         0.42019 
        2.65468         0.83946        0.414081 
        2.67044        0.828855        0.408068 
        2.68618        0.817163        0.402188 
        2.70184        0.808213        0.396447 
        2.71755        0.800056        0.390804 
        2.73329        0.793725        0.385262 
        2.74897        0.784524        0.379846 
        2.76462        0.775334        0.374546 
        2.78034        0.769493        0.369325 
        2.79607        0.759698        0.364199 
        2.81179        0.750231        0.359175 
        2.82749        0.745348        0.354252 
        2.84321        0.738803        0.349416 
        2.85893         0.72856        0.344672 
        2.87462         0.72364        0.340023 
        2.89033        0.712233        0.335457 
        2.90605        0.706961         0.33097 
        2.92176         0.69922        0.326567 
        2.93747        0.693767        0.322247 
        2.95318        0.687265        0.318004 
        2.96891        0.680007        0.313836 
        2.98456        0.676137        0.309761 
        3.00023        0.667669        0.305752 
        3.01596        0.661978        0.301802 
        3.03164        0.656517        0.297932 
        3.04738        0.645953         0.29412 
         3.0631        0.642714        0.290375 
        3.07883        0.636402        0.286695 
        3.09456        0.629967         0.28308 
        3.11026        0.624081        0.279533 
        3.12596           0.618        0.276046 
        3.14163        0.612879        0.272628 
        3.15734        0.610293        0.269259 
        3.17308        0.601578        0.265939 
        3.18879        0.595998        0.262684 
        3.20447        0.591494        0.259488 
         3.2202        0.586857        0.256336 
         3.2359        0.582301        0.253241 
        3.25157        0.576064        0.250205 
        3.26729        0.573474         0.24721 
        3.28304        0.566057        0.244258 
        3.29877        0.560829        0.241357 
        3.31446        0.557289        0.238511 
        3.33014        0.553795        0.235712 
        3.34585        0.549183        0.232954 
        3.36158        0.542892        0.230237 
        3.37727        0.540214        0.227571 
        3.39294        0.536079         0.22495 
        3.40867        0.531225         0.22236 
        3.42439        0.526318        0.219813 
        3.44008        0.523945        0.217311 
        3.45578         0.52055        0.214845 
        3.47153        0.515045        0.212413 
        3.48724        0.512315        0.210022 
        3.50292        0.509352        0.207674 
        3.51859        0.503867        0.205363 
        3.53431        0.501005         0.20308 
        3.55007        0.498664        0.200825 
        3.56577        0.492828        0.198614 
        3.58146         0.48917        0.196438 
        3.59719         0.48746        0.194289 
        3.61292        0.483282        0.192172 
        3.62859        0.477751        0.190095 
        3.64429        0.476817        0.188045 
        3.66003        0.472473        0.186019 
        3.67578        0.468254        0.184024 
        3.69146        0.466233        0.182065 
        3.70712        0.462313        0.180138 
        3.72284        0.459356        0.178232 
        3.73853        0.455805        0.176357 
        3.75422        0.451732        0.174508 
        3.76993        0.450963        0.172684 
        3.78564        0.447288        0.170887 
        3.80137        0.442549        0.169113 
        3.81707        0.442265        0.167367 
        3.83279        0.437217        0.165645 
        3.84853        0.433846        0.163944 
        3.86424        0.431561         0.16227 
        3.87992        0.428372        0.160622 
        3.89561         0.42642        0.158997 
        3.91134        0.423186        0.157391 
        3.92704        0.419435        0.155809 
        3.94273        0.417416        0.154251 
        3.95845        0.415037        0.152711 
        3.97418         0.41085        0.151191 
        3.98988        0.408491        0.149695 
        4.00554        0.405238        0.148222 
        4.02125        0.401787        0.146765 
        4.03698        0.397753        0.145326 
        4.05268        0.395025        0.143909 
        4.06839        0.391559         0.14251 
         4.0841        0.387863         0.14113 
        4.09983         0.38471        0.139766 
        4.11555        0.380675        0.138421 
        4.13124        0.377478        0.137097 
        4.14693        0.374599        0.135789 
        4.16266        0.371277        0.134496 
        4.17839        0.368746         0.13322 
        4.19408        0.365988        0.131963 
        4.20977        0.363408        0.130723 
        4.22551        0.360495        0.129495 
        4.24123        0.357816        0.128284 
        4.25691        0.355347        0.127092 
        4.27259        0.353066        0.125914 
        4.28831        0.350448         0.12475 
        4.30404        0.347443        0.123598 
        4.31974        0.345609        0.122464 
        4.33543        0.343264        0.121345 
        4.35116        0.341666        0.120237 
        4.36688        0.338941        0.119143 
        4.38255        0.337346        0.118067 
        4.39825        0.334794        0.117002 
        4.41398        0.332724        0.115948 
         4.4297        0.331014        0.114908 
        4.44541        0.329253        0.113881 
        4.46111        0.328169        0.112867 
        4.47683        0.326475        0.111865 
        4.49251        0.324002        0.110877 
        4.50819        0.322181        0.109901 
         4.5239        0.321841        0.108936 
        4.53962        0.319963        0.107981 
        4.55535        0.319266        0.107037 
        4.57106        0.317166        0.106106 
        4.58678         0.31582        0.105185 
         4.6025        0.314267        0.104275 
        4.61821        0.313048        0.103376 
        4.63391        0.312314        0.102489 
         4.6496        0.310785        0.101613 
        4.66532        0.309748        0.100745 
        4.68103         0.30911       0.0998881 
        4.69673        0.308124       0.0990419 
        4.71241        0.307426       0.0982063 
        4.72811        0.306293        0.097379 
        4.74384        0.305601       0.0965601 
        4.75955        0.305431       0.0957519 
        4.77525        0.304032       0.0949534 
        4.79096        0.303731        0.094163 
        4.80669        0.302772       0.0933812 
         4.8224        0.302305       0.0926092 
        4.83809        0.301912       0.0918467 
        4.85379        0.301878       0.0910924 
         4.8695        0.301027       0.0903458 
        4.88521        0.300685        0.089608 
        4.90093        0.301202       0.0888783 
        4.91663        0.300524       0.0881574 
        4.93234        0.299617       0.0874437 
        4.94807        0.300032       0.0867374 
        4.96377        0.300066       0.0860402 
        4.97943        0.300397       0.0853522 
        4.99514        0.299802       0.0846699 
        5.01086        0.300312       0.0839945 
        5.02654        0.300127       0.0833282 
        5.04227         0.29998       0.0826672 
          5.058        0.300348        0.082013 
        5.07371        0.299711       0.0813672 
        5.08942        0.301301       0.0807283 
        5.10513        0.300861       0.0800961 
        5.12084        0.301279       0.0794704 
        5.13656        0.302231       0.0788515 
        5.15225        0.302443       0.0782403 
        5.16796        0.303665       0.0776345 
        5.18369         0.30383       0.0770346 
         5.1994         0.30481       0.0764421 
        5.21509        0.304684       0.0758564 
        5.23079        0.305555       0.0752761 
        5.24649        0.306552       0.0747023 
        5.26217        0.306217       0.0741349 
        5.27788        0.307395       0.0735726 
        5.29359        0.308343        0.073016 
        5.30933        0.309572       0.0724644 
        5.32504        0.309861       0.0719194 
        5.34073        0.310901       0.0713806 
        5.35646         0.31211       0.0708462 
        5.37218        0.313403       0.0703172 
        5.38789        0.314496       0.0697945 
        5.40357         0.31555       0.0692776 
        5.41929        0.315512       0.0687648 
        5.43502        0.317204       0.0682572 
         5.4507        0.318253       0.0677559 
        5.46639        0.320494       0.0672596 
        5.48212        0.321228        0.066767 
        5.49786        0.321487       0.0662788 
        5.51353        0.324532        0.065798 
        5.52921         0.32485       0.0653213 
        5.54495        0.326118        0.064848 
        5.56066        0.328888         0.06438 
        5.57637        0.328777       0.0639166 
        5.59207        0.331209       0.0634581 
        5.60778        0.331917        0.063004 
        5.62346        0.333704       0.0625549 
        5.63916        0.334823       0.0621098 
        5.65487        0.337011       0.0616688 
         5.6706        0.338139       0.0612316 
        5.68633        0.341441       0.0607984 
        5.70203        0.342807       0.0603703 
        5.71773        0.344199       0.0599465 
        5.73344        0.345254       0.0595264 
        5.74916         0.34699         0.05911 
        5.76486        0.349064       0.0586981 
        5.78054        0.351401       0.0582908 
        5.79626        0.351285       0.0578862 
          5.812        0.354313       0.0574851 
         5.8277        0.355414       0.0570889 
        5.84339         0.35784       0.0566964 
        5.85911        0.358381       0.0563069 
        5.87484        0.360466       0.0559211 
        5.89053        0.363722       0.0555397 
        5.90623        0.365023       0.0551616 
        5.92195        0.366802       0.0547864 
        5.93767        0.369245        0.054415 
        5.95336        0.369366       0.0540475 
        5.96905         0.37201       0.0536836 
        5.98476        0.373808       0.0533225 
        6.00048        0.377297       0.0529647 
        6.01617         0.37748       0.0526106 
        6.03185        0.379196       0.0522601 
        6.04756        0.382723        0.051912 
        6.06331        0.383961       0.0515664 
        6.07903        0.386824       0.0512246 
        6.09473        0.387736       0.0508862 
        6.11044        0.390228       0.0505505 
        6.12616        0.391573        0.050218 
        6.14186        0.393746       0.0498888 
        6.15755        0.396142       0.0495625 
        6.17326        0.397587       0.0492389 
        6.18898        0.399719        0.048918 
        6.20467        0.403058       0.0486006 
        6.22036        0.402475        0.048286 
         6.2361        0.404636       0.0479733 
         6.2518        0.406015       0.0476639 
        6.26748        0.408515        0.047358 
        6.28319        0.411245       0.0470538 
        6.29893        0.413224       0.0467521 
        6.31463         0.41481       0.0464535 
        6.33033         0.41565       0.0461576 
        6.34604        0.417581       0.0458641 
        6.36177        0.420114       0.0455729 
        6.37747        0.422573       0.0452847 
