# k  (h/Mpc)    Pcb(k)  (Mpc/h)^3    Pcb_linear(k) (Mpc/h)^3   ShotnoiseSubtracted = true
      0.0200456         12654.5         12847.2 
      0.0350414         9592.17         9339.46 
      0.0492313         6713.06         6785.88 
      0.0637834         5429.05         5641.04 
      0.0800726         4275.04         4477.15 
       0.096163         3361.91         3248.56 
       0.111083         2732.71         2591.14 
       0.126058         2275.05         2296.28 
       0.142273         1965.22         1945.45 
       0.158546         1613.82          1536.5 
        0.17375         1414.54          1294.5 
       0.188953         1313.47         1172.14 
       0.204907         1122.63          1037.1 
       0.220756         1006.95         877.453 
        0.23588         895.292         763.308 
         0.2514         801.947         693.457 
       0.267535          777.78          627.46 
       0.283568          680.55         553.335 
       0.299022         649.034         492.993 
       0.314451         657.991         450.562 
       0.330372         565.775          413.34 
       0.346141         523.816         375.169 
       0.361624         500.645         340.978 
       0.377134         469.587         313.753 
       0.392932         454.759          290.31 
       0.408854         432.594         267.609 
       0.424564         418.412         246.659 
       0.440253         379.078         228.682 
       0.455999         362.928          213.05 
       0.471626         364.977         198.684 
        0.48727         345.856         185.245 
       0.502856         318.166         173.173 
       0.518488         319.071         162.401 
       0.534347         296.711         152.387 
       0.550082          287.56         143.154 
       0.565732         285.945         134.707 
       0.581496         272.099          126.97 
       0.597222         264.593         119.875 
       0.612804         257.504         113.351 
       0.628434         247.873         107.269 
       0.644267         237.114         101.584 
       0.660051         233.219         96.3439 
       0.675724         230.413         91.5054 
       0.691403         224.187         86.9951 
       0.707174         216.268         82.7634 
       0.722871         212.923           78.83 
        0.73838         210.949         75.1943 
       0.754018         200.053         71.7605 
       0.769845         199.844         68.5038 
        0.78569         194.686         65.4464 
       0.801365          189.26         62.6061 
       0.817031         185.059          59.937 
       0.832809         181.986         57.4072 
       0.848511         177.471         55.0356 
       0.864097         173.533         52.8148 
       0.879701         172.319         50.7151 
       0.895507         168.099         48.7053 
       0.911279         163.192         46.8091 
        0.92691         160.836           45.03 
       0.942635         158.734         43.3339 
       0.958396         155.677          41.722 
       0.974128         152.571         40.1954 
       0.989692         148.281         38.7606 
        1.00528         147.236          37.394 
        1.02113         143.781         36.0722 
        1.03692         141.988         34.8194 
        1.05264         140.037         33.6321 
        1.06832         137.676         32.5022 
        1.08405         135.029         31.4214 
        1.09979         134.196         30.3894 
        1.11537         131.039         29.4141 
        1.13105         129.601         28.4759 
        1.14679         127.447         27.5753 
        1.16256         125.233         26.7119 
        1.17828         123.844         25.8885 
        1.19395         120.859         25.1027 
         1.2097         120.034         24.3457 
        1.22537          117.89         23.6236 
          1.241         116.529         22.9331 
        1.25666         113.676         22.2686 
        1.27241         111.552         21.6274 
        1.28819         111.014         21.0104 
        1.30392          108.98         20.4194 
        1.31957         107.223         19.8538 
        1.33529         106.036         19.3077 
        1.35108          105.05         18.7799 
        1.36674         102.999         18.2758 
         1.3824         102.659         17.7907 
        1.39811         99.9981         17.3216 
        1.41389         99.1314         16.8676 
        1.42964          97.092         16.4308 
        1.44531         96.3328         16.0116 
        1.46101         94.8779         15.6062 
        1.47667         94.2863         15.2161 
        1.49229         93.2334         14.8404 
        1.50793         91.4186         14.4769 
        1.52367         90.5754         14.1234 
        1.53953         89.4221         13.7793 
        1.55526         88.0147         13.4494 
        1.57092          87.553         13.1317 
        1.58662         86.2694         12.8236 
        1.60235         84.8458         12.5248 
        1.61809         84.0682         12.2354 
        1.63369         82.6229         11.9577 
        1.64941         82.6398         11.6866 
        1.66519         80.8017          11.423 
        1.68085         79.8141         11.1694 
        1.69652         78.4702         10.9235 
        1.71228         77.6491         10.6836 
        1.72806          77.165         10.4507 
        1.74368         75.8276         10.2271 
        1.75933         75.1543         10.0096 
        1.77505         74.4733         9.79747 
        1.79081          73.119          9.5911 
         1.8065         72.7957         9.39156 
        1.82218         71.2654         9.19788 
        1.83797          70.927         9.00835 
        1.85367         69.6981         8.82522 
        1.86928         69.0467         8.64828 
        1.88497          68.369         8.47524 
        1.90073         67.4771         8.30631 
        1.91647         66.5277         8.14213 
        1.93218         65.8685         7.98275 
        1.94787         65.0057         7.82788 
        1.96363         64.1972         7.67651 
        1.97935         63.5563         7.52946 
        1.99499          62.862         7.38709 
        2.01064         62.1566         7.24821 
         2.0264         61.3211         7.11203 
        2.04216          60.622         6.97942 
        2.05781         59.9054         6.85103 
        2.07353         59.2187         6.72542 
        2.08928         58.5179         6.60269 
        2.10499         57.8909         6.48335 
        2.12065         57.3599         6.36733 
        2.13633         56.8445         6.25405 
        2.15211         55.9741         6.14279 
        2.16785          55.125         6.03456 
        2.18349         54.6248         5.92961 
        2.19916         53.9516         5.82695 
        2.21489         53.5405         5.72637 
        2.23063         52.7445         5.62811 
         2.2463         52.2889         5.53259 
        2.26194         51.9681         5.43954 
        2.27765         51.1008         5.34814 
        2.29341         50.4524         5.25861 
        2.30914         49.8597         5.17132 
        2.32486         49.2755         5.08606 
        2.34061         48.9637         5.00258 
        2.35635          48.142         4.92105 
        2.37203         47.7483         4.84162 
        2.38768         47.3389         4.76411 
        2.40339         46.8067         4.68802 
        2.41914         46.2946         4.61342 
        2.43483         45.5736          4.5407 
         2.4505         45.3251         4.46967 
        2.46622         44.8225         4.39992 
        2.48195         44.2254         4.33166 
        2.49759         43.7157          4.2652 
        2.51328         43.4029         4.19997 
        2.52906         42.8328          4.1357 
        2.54479         42.4979           4.073 
        2.56049          41.724         4.01173 
        2.57618         41.4829         3.95178 
        2.59189         41.0494         3.89296 
        2.60758         40.4344         3.83543 
        2.62325          40.276         3.77913 
        2.63898         39.7594         3.72377 
        2.65468         39.3928         3.66963 
        2.67044         39.0572         3.61634 
        2.68618         38.6719         3.56423 
        2.70184         38.0193         3.51335 
        2.71755          37.817         3.46334 
        2.73329         37.1958         3.41423 
        2.74897         37.0027         3.36623 
        2.76462         36.4616         3.31926 
        2.78034         36.1967           3.273 
        2.79607         35.7207         3.22756 
        2.81179         35.4049         3.18305 
        2.82749         35.0187         3.13942 
        2.84321         34.5907         3.09656 
        2.85893         34.2476         3.05451 
        2.87462         33.9032         3.01332 
        2.89033         33.6607         2.97285 
        2.90605         33.2581         2.93308 
        2.92176         33.0537         2.89407 
        2.93747         32.7246         2.85578 
        2.95318         32.3143         2.81818 
        2.96891         31.9719         2.78124 
        2.98456         31.7159         2.74513 
        3.00023          31.327          2.7096 
        3.01596         31.0569         2.67459 
        3.03164         30.6965          2.6403 
        3.04738          30.479         2.60652 
         3.0631         30.2264         2.57333 
        3.07883         29.7902         2.54072 
        3.09456         29.4169         2.50868 
        3.11026         29.1665         2.47724 
        3.12596         28.8952         2.44635 
        3.14163         28.6108         2.41605 
        3.15734         28.3244          2.3862 
        3.17308         28.0117         2.35678 
        3.18879         27.7562         2.32793 
        3.20447         27.5226         2.29961 
         3.2202         27.1894         2.27167 
         3.2359          26.914         2.24425 
        3.25157         26.7496         2.21734 
        3.26729          26.464          2.1908 
        3.28304         26.0842         2.16463 
        3.29877         25.8246         2.13893 
        3.31446         25.6039          2.1137 
        3.33014         25.4238          2.0889 
        3.34585         25.1434         2.06446 
        3.36158         24.9488         2.04038 
        3.37727          24.641         2.01675 
        3.39294         24.4215         1.99352 
        3.40867         24.1912         1.97058 
        3.42439         23.9954           1.948 
        3.44008          23.731         1.92583 
        3.45578         23.6218         1.90398 
        3.47153         23.2746         1.88242 
        3.48724         23.0671         1.86124 
        3.50292         22.8576         1.84043 
        3.51859         22.6446         1.81994 
        3.53431         22.4372         1.79971 
        3.55007         22.2112         1.77973 
        3.56577         22.0367         1.76014 
        3.58146         21.8359         1.74085 
        3.59719         21.5937          1.7218 
        3.61292         21.4046         1.70305 
        3.62859         21.1941         1.68464 
        3.64429         20.9505         1.66648 
        3.66003         20.8686         1.64852 
        3.67578         20.6568         1.63083 
        3.69146         20.4105         1.61348 
        3.70712         20.2852          1.5964 
        3.72284         20.0671         1.57951 
        3.73853         19.9075         1.56289 
        3.75422         19.6527         1.54651 
        3.76993          19.526         1.53035 
        3.78564         19.3492         1.51442 
        3.80137         19.1825         1.49869 
        3.81707         19.0231         1.48322 
        3.83279         18.8222         1.46796 
        3.84853         18.6405         1.45289 
        3.86424         18.4727         1.43805 
        3.87992         18.2957         1.42345 
        3.89561         18.1862         1.40905 
        3.91134         17.9391         1.39482 
        3.92704         17.8321          1.3808 
        3.94273         17.6536         1.36699 
        3.95845         17.5149         1.35334 
        3.97418         17.3254         1.33987 
        3.98988         17.1835         1.32661 
        4.00554         17.1101         1.31356 
        4.02125         16.8601         1.30065 
        4.03698         16.6919         1.28789 
        4.05268         16.6056         1.27533 
        4.06839          16.477         1.26294 
         4.0841         16.2935         1.25071 
        4.09983         16.1413         1.23862 
        4.11555         15.9936          1.2267 
        4.13124          15.906         1.21497 
        4.14693         15.7813         1.20338 
        4.16266         15.6544         1.19192 
        4.17839         15.4865         1.18061 
        4.19408         15.3349         1.16947 
        4.20977         15.2277         1.15848 
        4.22551         15.0888         1.14759 
        4.24123         14.9509         1.13686 
        4.25691         14.7743          1.1263 
        4.27259         14.7176         1.11586 
        4.28831         14.6318         1.10554 
        4.30404          14.448         1.09534 
        4.31974         14.3634         1.08529 
        4.33543          14.222         1.07537 
        4.35116         14.0774         1.06555 
        4.36688         13.9799         1.05586 
        4.38255         13.8673         1.04632 
        4.39825         13.7035         1.03688 
        4.41398         13.6464         1.02754 
         4.4297         13.4965         1.01833 
        4.44541          13.386         1.00922 
        4.46111         13.3009         1.00024 
        4.47683         13.1737        0.991359 
        4.49251         13.0644        0.982604 
        4.50819         12.9631        0.973956 
         4.5239         12.8555        0.965401 
        4.53962         12.7715        0.956937 
        4.55535         12.6446        0.948571 
        4.57106         12.5454        0.940317 
        4.58678         12.4536        0.932159 
         4.6025         12.3576        0.924096 
        4.61821         12.2454         0.91613 
        4.63391         12.1513        0.908268 
         4.6496         12.0409        0.900501 
        4.66532         11.9496        0.892813 
        4.68103          11.844        0.885218 
        4.69673         11.7329        0.877719 
        4.71241         11.6743        0.870314 
        4.72811         11.5969        0.862982 
        4.74384         11.4753        0.855725 
        4.75955         11.4002        0.848563 
        4.77525         11.3006        0.841486 
        4.79096         11.2341        0.834481 
        4.80669         11.1517        0.827553 
         4.8224         11.0646        0.820712 
        4.83809          10.971        0.813954 
        4.85379         10.8709        0.807269 
         4.8695         10.7739        0.800653 
        4.88521         10.7209        0.794115 
        4.90093         10.6536        0.787648 
        4.91663         10.5485        0.781259 
        4.93234         10.4522        0.774934 
        4.94807         10.3808        0.768675 
        4.96377         10.3027        0.762496 
        4.97943         10.2327        0.756399 
        4.99514         10.1021        0.750352 
        5.01086         10.0705        0.744367 
        5.02654         9.99782        0.738463 
        5.04227         9.88725        0.732604 
          5.058         9.84217        0.726807 
        5.07371          9.7573        0.721084 
        5.08942          9.7124        0.715422 
        5.10513          9.6114        0.709819 
        5.12084         9.55989        0.704274 
        5.13656         9.47512         0.69879 
        5.15225         9.38881        0.693373 
        5.16796         9.32837        0.688004 
        5.18369         9.26801        0.682688 
         5.1994         9.18618        0.677437 
        5.21509         9.10584        0.672246 
        5.23079         9.03868        0.667104 
        5.24649         8.97883        0.662019 
        5.26217         8.90045        0.656991 
        5.27788         8.86741        0.652007 
        5.29359         8.76942        0.647075 
        5.30933          8.7351        0.642186 
        5.32504          8.6678        0.637357 
        5.34073         8.60748        0.632582 
        5.35646         8.52245        0.627846 
        5.37218         8.47572        0.623158 
        5.38789         8.40344        0.618525 
        5.40357         8.33046        0.613945 
        5.41929          8.3027        0.609401 
        5.43502         8.23366        0.604902 
         5.4507         8.16133        0.600459 
        5.46639         8.10953        0.596061 
        5.48212         8.05513        0.591696 
        5.49786          7.9958        0.587369 
        5.51353         7.94679        0.583108 
        5.52921         7.89395        0.578884 
        5.54495         7.83633         0.57469 
        5.56066          7.7617        0.570541 
        5.57637         7.72476        0.566435 
        5.59207         7.66514        0.562372 
        5.60778          7.6118        0.558347 
        5.62346         7.55078        0.554368 
        5.63916         7.50796        0.550423 
        5.65487         7.45856        0.546515 
         5.6706          7.4028         0.54264 
        5.68633         7.34637        0.538801 
        5.70203         7.28413        0.535008 
        5.71773         7.24736        0.531251 
        5.73344         7.20038        0.527529 
        5.74916         7.15136        0.523838 
        5.76486         7.10336        0.520188 
        5.78054         7.05123        0.516579 
        5.79626         6.99083        0.512993 
          5.812         6.97036        0.509438 
         5.8277         6.90199        0.505927 
        5.84339          6.8557        0.502449 
        5.85911         6.79806        0.498997 
        5.87484         6.76444        0.495578 
        5.89053         6.72232        0.492198 
        5.90623         6.67553        0.488847 
        5.92195          6.6331        0.485523 
        5.93767         6.57913         0.48223 
        5.95336         6.53683        0.478974 
        5.96905         6.49846        0.475749 
        5.98476         6.44542        0.472549 
        6.00048         6.40777        0.469378 
        6.01617         6.36295         0.46624 
        6.03185          6.3225        0.463134 
        6.04756         6.28156        0.460049 
        6.06331         6.24237        0.456986 
        6.07903         6.19507        0.453957 
        6.09473         6.16067        0.450958 
        6.11044         6.13013        0.447984 
        6.12616         6.06893        0.445037 
        6.14186          6.0387        0.442119 
        6.15755         5.99853        0.439227 
        6.17326         5.96237         0.43636 
        6.18898         5.91869        0.433516 
        6.20467         5.87731        0.430703 
        6.22036         5.84391        0.427915 
         6.2361         5.80287        0.425144 
         6.2518         5.75903        0.422402 
        6.26748         5.73667        0.419691 
        6.28319         5.69289        0.416995 
        6.29893         5.66331        0.414321 
        6.31463         5.62128        0.411675 
        6.33033         5.59231        0.409053 
        6.34604         5.54542        0.406452 
        6.36177         5.51706        0.403871 
        6.37747         5.48114        0.401317 
