# k  (h/Mpc)    Pcb(k)  (Mpc/h)^3    Pcb_linear(k) (Mpc/h)^3   ShotnoiseSubtracted = true
      0.0200456         14082.2         14370.8 
      0.0350414         10083.5         10447.1 
      0.0492313         7496.54         7590.66 
      0.0637834         6434.95         6310.05 
      0.0800726         5087.48         5008.13 
       0.096163         3544.39         3633.83 
       0.111083         2826.58         2898.44 
       0.126058         2606.28         2568.61 
       0.142273         2253.51         2176.18 
       0.158546         1911.38         1718.72 
        0.17375         1529.62         1448.02 
       0.188953         1483.73         1311.15 
       0.204907         1394.33          1160.1 
       0.220756         1193.11         981.516 
        0.23588         1054.68         853.834 
         0.2514         918.277           775.7 
       0.267535         903.741         701.875 
       0.283568         819.361         618.959 
       0.299022         767.795         551.461 
       0.314451         726.827         503.998 
       0.330372         669.492         462.361 
       0.346141          615.38         419.663 
       0.361624         591.709         381.417 
       0.377134         549.179         350.963 
       0.392932         526.027          324.74 
       0.408854         506.814         299.347 
       0.424564         477.472         275.913 
       0.440253         466.191         255.803 
       0.455999         439.576         238.317 
       0.471626         414.503         222.247 
        0.48727         400.809         207.215 
       0.502856         388.688         193.711 
       0.518488         384.841         181.662 
       0.534347         360.006          170.46 
       0.550082         342.373         160.132 
       0.565732         340.186         150.683 
       0.581496         320.725         142.029 
       0.597222         315.135         134.092 
       0.612804         305.333         126.794 
       0.628434         293.574         119.991 
       0.644267         284.999         113.632 
       0.660051          279.51          107.77 
       0.675724         274.855         102.358 
       0.691403         266.673         97.3125 
       0.707174         256.739         92.5789 
       0.722871         253.679          88.179 
        0.73838         249.276         84.1122 
       0.754018         242.651         80.2711 
       0.769845         234.305         76.6281 
        0.78569         233.907         73.2082 
       0.801365         225.711          70.031 
       0.817031         218.885         67.0453 
       0.832809         216.705         64.2156 
       0.848511          210.88         61.5626 
       0.864097         208.133         59.0785 
       0.879701         204.158         56.7298 
       0.895507         198.984         54.4816 
       0.911279         193.016         52.3605 
        0.92691         193.006         50.3704 
       0.942635         188.046         48.4732 
       0.958396         186.783         46.6702 
       0.974128          182.39         44.9625 
       0.989692         178.071         43.3575 
        1.00528         175.752         41.8289 
        1.02113         174.431         40.3502 
        1.03692         169.252         38.9489 
        1.05264         165.978         37.6207 
        1.06832         163.091         36.3569 
        1.08405          160.54         35.1479 
        1.09979          159.45         33.9935 
        1.11537         154.848         32.9025 
        1.13105         152.994         31.8531 
        1.14679         152.655         30.8456 
        1.16256         149.959         29.8799 
        1.17828          146.79         28.9588 
        1.19395         144.601         28.0799 
         1.2097         143.441          27.233 
        1.22537         140.885         26.4253 
          1.241         138.778         25.6529 
        1.25666         136.499         24.9096 
        1.27241         134.136         24.1924 
        1.28819         132.643         23.5022 
        1.30392          130.67         22.8411 
        1.31957         129.601         22.2084 
        1.33529         126.165         21.5975 
        1.35108         125.339         21.0072 
        1.36674         124.095         20.4432 
         1.3824         121.596         19.9006 
        1.39811         120.988         19.3759 
        1.41389         118.809         18.8681 
        1.42964         116.299         18.3795 
        1.44531         114.212         17.9106 
        1.46101         113.148         17.4571 
        1.47667         111.864         17.0207 
        1.49229         110.244         16.6004 
        1.50793         109.297         16.1939 
        1.52367         107.878         15.7984 
        1.53953         105.779         15.4135 
        1.55526         104.838         15.0445 
        1.57092          103.61         14.6891 
        1.58662         101.677         14.3445 
        1.60235         101.222         14.0102 
        1.61809         99.1828         13.6864 
        1.63369         98.4309         13.3758 
        1.64941         97.5536         13.0726 
        1.66519         95.3916         12.7778 
        1.68085         94.8589         12.4941 
        1.69652         92.4624          12.219 
        1.71228          92.639         11.9506 
        1.72806         91.2353         11.6901 
        1.74368         90.0373           11.44 
        1.75933         88.6965         11.1968 
        1.77505         87.7691         10.9594 
        1.79081          86.387         10.7286 
         1.8065         85.4363         10.5054 
        1.82218         83.8445         10.2887 
        1.83797         82.9266         10.0767 
        1.85367         82.1059         9.87187 
        1.86928         81.6576         9.67395 
        1.88497         79.9356         9.48038 
        1.90073         79.3758         9.29141 
        1.91647         78.3691         9.10777 
        1.93218         77.2276         8.92949 
        1.94787         76.5548         8.75625 
        1.96363         75.2171         8.58692 
        1.97935         74.5937         8.42243 
        1.99499         73.6053         8.26318 
        2.01064          72.887         8.10783 
         2.0264         71.4853          7.9555 
        2.04216         70.7466         7.80716 
        2.05781         69.9491         7.66355 
        2.07353         68.7231         7.52304 
        2.08928         67.8308         7.38575 
        2.10499         67.3315         7.25226 
        2.12065         66.8693         7.12248 
        2.13633         65.9886         6.99576 
        2.15211         65.1927         6.87131 
        2.16785         64.4636         6.75024 
        2.18349         63.7519         6.63285 
        2.19916         62.8726         6.51801 
        2.21489         62.2408         6.40551 
        2.23063         61.7644         6.29559 
         2.2463         60.8087         6.18874 
        2.26194         60.1995         6.08465 
        2.27765         59.6266         5.98242 
        2.29341         58.8544         5.88227 
        2.30914         57.9421         5.78463 
        2.32486         57.1803         5.68925 
        2.34061         56.6658         5.59587 
        2.35635         56.1488         5.50468 
        2.37203         55.2395         5.41583 
        2.38768         54.6998         5.32913 
        2.40339         54.0063         5.24401 
        2.41914         53.6448         5.16056 
        2.43483         53.3073         5.07921 
         2.4505         52.6468         4.99976 
        2.46622         52.0098         4.92174 
        2.48195         51.3753         4.84538 
        2.49759          50.538         4.77105 
        2.51328         50.1115         4.69808 
        2.52906         49.7025         4.62618 
        2.54479         49.0893         4.55605 
        2.56049         48.4522         4.48751 
        2.57618         48.0658         4.42045 
        2.59189         47.5092         4.35465 
        2.60758          47.164          4.2903 
        2.62325         46.4998         4.22732 
        2.63898          46.086         4.16539 
        2.65468         45.5427         4.10484 
        2.67044          44.794         4.04522 
        2.68618          44.567         3.98693 
        2.70184         43.8987         3.93003 
        2.71755         43.7647         3.87409 
        2.73329         42.9672         3.81915 
        2.74897         42.6062         3.76546 
        2.76462         42.1269         3.71292 
        2.78034         41.8504         3.66117 
        2.79607         41.2667         3.61035 
        2.81179         40.8843         3.56055 
        2.82749         40.2337         3.51174 
        2.84321         39.9735          3.4638 
        2.85893         39.5331         3.41677 
        2.87462         39.0206         3.37069 
        2.89033         38.6775         3.32542 
        2.90605         38.3145         3.28094 
        2.92176          37.923          3.2373 
        2.93747          37.538         3.19447 
        2.95318         37.1257         3.15241 
        2.96891         36.5533         3.11109 
        2.98456         36.3982         3.07069 
        3.00023         35.9752         3.03095 
        3.01596         35.5989         2.99179 
        3.03164          35.179         2.95344 
        3.04738         34.9869         2.91564 
         3.0631         34.4363         2.87852 
        3.07883         34.1543         2.84204 
        3.09456         33.8184          2.8062 
        3.11026         33.4328         2.77104 
        3.12596         33.1537         2.73648 
        3.14163         32.7689         2.70259 
        3.15734         32.3465         2.66919 
        3.17308         32.1697         2.63628 
        3.18879         31.8989         2.60402 
        3.20447         31.4514         2.57234 
         3.2202         31.0867         2.54109 
         3.2359          30.885         2.51041 
        3.25157         30.5674         2.48032 
        3.26729          30.309         2.45062 
        3.28304         29.9551         2.42135 
        3.29877          29.634          2.3926 
        3.31446         29.4123         2.36438 
        3.33014         29.0851         2.33664 
        3.34585         28.8549          2.3093 
        3.36158         28.5275         2.28236 
        3.37727         28.2168         2.25594 
        3.39294         27.9514         2.22995 
        3.40867         27.6889         2.20428 
        3.42439         27.4438         2.17903 
        3.44008         27.2382         2.15422 
        3.45578         26.7962         2.12979 
        3.47153         26.6024         2.10567 
        3.48724         26.3442         2.08197 
        3.50292         26.0732          2.0587 
        3.51859         25.8529         2.03578 
        3.53431         25.6925         2.01315 
        3.55007         25.3848         1.99081 
        3.56577         25.1328         1.96889 
        3.58146         24.9549         1.94731 
        3.59719         24.6457           1.926 
        3.61292          24.438         1.90503 
        3.62859         24.2213         1.88444 
        3.64429         23.9482         1.86411 
        3.66003         23.7266         1.84403 
        3.67578         23.5952         1.82425 
        3.69146         23.3241         1.80483 
        3.70712         23.0799         1.78573 
        3.72284         22.9457         1.76684 
        3.73853         22.7255         1.74825 
        3.75422         22.4671         1.72992 
        3.76993         22.3042         1.71184 
        3.78564         21.9995         1.69402 
        3.80137         21.8725         1.67643 
        3.81707         21.6929         1.65913 
        3.83279         21.3878         1.64206 
        3.84853         21.1711         1.62519 
        3.86424         21.0231          1.6086 
        3.87992         20.8567         1.59227 
        3.89561         20.6758         1.57616 
        3.91134         20.5144         1.56024 
        3.92704         20.3122         1.54456 
        3.94273         20.0957         1.52911 
        3.95845          19.936         1.51384 
        3.97418         19.7897         1.49878 
        3.98988         19.5833         1.48394 
        4.00554         19.4477         1.46934 
        4.02125         19.2662          1.4549 
        4.03698         18.9993         1.44063 
        4.05268         18.8783         1.42659 
        4.06839         18.6912         1.41272 
         4.0841         18.6135         1.39904 
        4.09983         18.4056         1.38552 
        4.11555         18.2487         1.37218 
        4.13124          18.026         1.35906 
        4.14693         17.8519          1.3461 
        4.16266         17.7241         1.33327 
        4.17839           17.56         1.32062 
        4.19408         17.3867         1.30817 
        4.20977         17.3078         1.29587 
        4.22551         17.1452         1.28369 
        4.24123         16.9695         1.27169 
        4.25691         16.8741         1.25987 
        4.27259         16.6877          1.2482 
        4.28831         16.5439         1.23666 
        4.30404          16.399         1.22524 
        4.31974         16.2312           1.214 
        4.33543         16.1305         1.20291 
        4.35116         15.9998         1.19192 
        4.36688         15.8264         1.18108 
        4.38255         15.7201         1.17041 
        4.39825          15.618         1.15986 
        4.41398         15.4456         1.14941 
         4.4297         15.3281          1.1391 
        4.44541         15.2234         1.12891 
        4.46111         15.0796         1.11887 
        4.47683         14.9374         1.10893 
        4.49251         14.8654         1.09914 
        4.50819         14.6916         1.08947 
         4.5239         14.6049         1.07989 
        4.53962         14.4504         1.07043 
        4.55535         14.3558         1.06107 
        4.57106         14.2237         1.05184 
        4.58678         14.1513         1.04271 
         4.6025         13.9859         1.03369 
        4.61821         13.8764         1.02478 
        4.63391         13.7883         1.01599 
         4.6496         13.6384          1.0073 
        4.66532         13.5115        0.998698 
        4.68103         13.4199        0.990203 
        4.69673         13.3658        0.981814 
        4.71241         13.2324         0.97353 
        4.72811         13.1123        0.965329 
        4.74384         13.0086        0.957212 
        4.75955         12.9036          0.9492 
        4.77525         12.8211        0.941284 
        4.79096          12.721        0.933449 
        4.80669         12.6146        0.925699 
         4.8224         12.4957        0.918046 
        4.83809         12.4139        0.910487 
        4.85379          12.298        0.903009 
         4.8695         12.2424        0.895609 
        4.88521         12.1093        0.888295 
        4.90093         12.0126        0.881061 
        4.91663         11.9585        0.873914 
        4.93234         11.8154        0.866839 
        4.94807          11.755        0.859838 
        4.96377          11.649        0.852926 
        4.97943         11.5709        0.846106 
        4.99514         11.4598        0.839342 
        5.01086         11.3949        0.832647 
        5.02654         11.2894        0.826042 
        5.04227         11.2226        0.819489 
          5.058         11.1439        0.813005 
        5.07371         11.0553        0.806603 
        5.08942         10.9491        0.800269 
        5.10513         10.8693        0.794002 
        5.12084         10.8013        0.787799 
        5.13656         10.7111        0.781664 
        5.15225           10.63        0.775605 
        5.16796         10.5697          0.7696 
        5.18369         10.4619        0.763653 
         5.1994         10.4091        0.757779 
        5.21509         10.3152        0.751973 
        5.23079         10.2572         0.74622 
        5.24649         10.1925        0.740533 
        5.26217         10.0743        0.734908 
        5.27788         10.0074        0.729334 
        5.29359         9.95094        0.723816 
        5.30933         9.88176        0.718348 
        5.32504          9.8083        0.712945 
        5.34073         9.71838        0.707604 
        5.35646         9.65926        0.702307 
        5.37218         9.58571        0.697063 
        5.38789         9.51079         0.69188 
        5.40357         9.44407        0.686757 
        5.41929         9.35943        0.681674 
        5.43502         9.33218        0.676642 
         5.4507         9.23668        0.671672 
        5.46639         9.17134        0.666752 
        5.48212         9.10939        0.661869 
        5.49786          9.0407         0.65703 
        5.51353         8.96822        0.652263 
        5.52921         8.90786        0.647538 
        5.54495         8.83399        0.642846 
        5.56066         8.76807        0.638206 
        5.57637         8.70882        0.633612 
        5.59207         8.65632        0.629068 
        5.60778         8.58285        0.624566 
        5.62346         8.52281        0.620114 
        5.63916         8.46968        0.615702 
        5.65487         8.40606         0.61133 
         5.6706         8.35885        0.606996 
        5.68633         8.28708        0.602702 
        5.70203         8.24526        0.598458 
        5.71773         8.17517        0.594256 
        5.73344         8.12044        0.590092 
        5.74916         8.04464        0.585964 
        5.76486          8.0322        0.581881 
        5.78054         7.94493        0.577843 
        5.79626          7.8812        0.573833 
          5.812         7.84689        0.569856 
         5.8277         7.78667        0.565928 
        5.84339          7.7374        0.562038 
        5.85911         7.67679        0.558177 
        5.87484         7.62803        0.554352 
        5.89053         7.57503        0.550571 
        5.90623         7.51639        0.546823 
        5.92195         7.48007        0.543104 
        5.93767         7.42964        0.539422 
        5.95336         7.37064        0.535779 
        5.96905         7.30466        0.532172 
        5.98476         7.28137        0.528592 
        6.00048         7.23034        0.525045 
        6.01617         7.18026        0.521535 
        6.03185         7.12254        0.518061 
        6.04756         7.07361         0.51461 
        6.06331         7.03913        0.511183 
        6.07903         6.99926        0.507795 
        6.09473         6.92777        0.504441 
        6.11044         6.89489        0.501113 
        6.12616         6.85042        0.497817 
        6.14186          6.8035        0.494553 
        6.15755         6.74919        0.491319 
        6.17326         6.71188        0.488111 
        6.18898         6.67312         0.48493 
        6.20467         6.62383        0.481783 
        6.22036         6.57855        0.478665 
         6.2361         6.54434        0.475565 
         6.2518         6.48937        0.472498 
        6.26748         6.44143        0.469465 
        6.28319         6.40529         0.46645 
        6.29893         6.37636        0.463459 
        6.31463         6.33425        0.460499 
        6.33033         6.29067        0.457566 
        6.34604         6.24991        0.454656 
        6.36177         6.19908        0.451769 
        6.37747         6.17801        0.448912 
