# k  (h/Mpc)    Pcb(k)  (Mpc/h)^3    Pcb_linear(k) (Mpc/h)^3   ShotnoiseSubtracted = true
      0.0200456         17173.6         17455.6 
      0.0350414         13063.7         12689.6 
      0.0492313         9070.54         9220.03 
      0.0637834         7321.06         7664.53 
      0.0800726         5754.73         6083.14 
       0.096163          4577.9         4413.85 
       0.111083         3726.21          3520.6 
       0.126058         3087.54         3119.97 
       0.142273            2687          2643.3 
       0.158546         2206.97         2087.65 
        0.17375         1952.78         1758.85 
       0.188953         1832.77          1592.6 
       0.204907            1572         1409.12 
       0.220756         1415.25          1192.2 
        0.23588         1261.62         1037.11 
         0.2514          1134.6         942.206 
       0.267535         1099.73         852.535 
       0.283568           970.1         751.821 
       0.299022         926.294         669.834 
       0.314451         955.212         612.183 
       0.330372         829.042         561.609 
       0.346141         764.059         509.746 
       0.361624         732.467         463.289 
       0.377134         696.157         426.299 
       0.392932         669.126         394.446 
       0.408854         638.272         363.603 
       0.424564         621.296         335.138 
       0.440253         569.073         310.712 
       0.455999         544.663         289.472 
       0.471626         553.745         269.953 
        0.48727         522.739         251.695 
       0.502856         490.055         235.292 
       0.518488         484.753         220.656 
       0.534347         456.635          207.05 
       0.550082          437.76         194.505 
       0.565732         433.953         183.027 
       0.581496          422.08         172.516 
       0.597222          410.26         162.875 
       0.612804         400.633          154.01 
       0.628434         384.487         145.748 
       0.644267          370.45         138.023 
       0.660051         365.452         130.903 
       0.675724         358.903         124.329 
       0.691403         350.489         118.201 
       0.707174         337.274         112.451 
       0.722871         331.859         107.107 
        0.73838         327.401         102.167 
       0.754018         315.309         97.5016 
       0.769845         313.472         93.0766 
        0.78569         306.399         88.9226 
       0.801365         297.098         85.0634 
       0.817031         293.576         81.4369 
       0.832809         288.314         77.9997 
       0.848511         281.413         74.7773 
       0.864097         274.474         71.7599 
       0.879701         272.846          68.907 
       0.895507         265.037         66.1763 
       0.911279         258.535         63.5999 
        0.92691         256.104         61.1826 
       0.942635         253.941         58.8782 
       0.958396         246.628         56.6881 
       0.974128         243.555         54.6139 
       0.989692         234.661         52.6644 
        1.00528         234.352         50.8076 
        1.02113         230.769         49.0116 
        1.03692         225.436         47.3094 
        1.05264         221.634         45.6962 
        1.06832         221.085          44.161 
        1.08405         214.955         42.6926 
        1.09979         213.212         41.2903 
        1.11537         208.673         39.9652 
        1.13105         205.072         38.6905 
        1.14679         203.199         37.4667 
        1.16256         200.367         36.2937 
        1.17828         197.907          35.175 
        1.19395         192.603         34.1073 
         1.2097         191.938         33.0787 
        1.22537         190.147         32.0976 
          1.241         184.919         31.1594 
        1.25666         183.168         30.2566 
        1.27241         179.433         29.3853 
        1.28819         177.523         28.5471 
        1.30392         175.103          27.744 
        1.31957         170.776         26.9756 
        1.33529         168.613         26.2335 
        1.35108         167.248         25.5165 
        1.36674         163.897         24.8315 
         1.3824          162.66         24.1723 
        1.39811         159.949          23.535 
        1.41389         156.869         22.9182 
        1.42964         154.901         22.3247 
        1.44531         153.319         21.7551 
        1.46101         150.136         21.2043 
        1.47667         149.448         20.6742 
        1.49229         147.005         20.1637 
        1.50793         144.293         19.6699 
        1.52367          142.83         19.1895 
        1.53953         139.831          18.722 
        1.55526         139.411         18.2738 
        1.57092         137.693         17.8422 
        1.58662         134.342         17.4235 
        1.60235         133.102         17.0175 
        1.61809         131.196         16.6243 
        1.63369         129.226          16.247 
        1.64941          128.34         15.8787 
        1.66519         126.394         15.5206 
        1.68085         123.975          15.176 
        1.69652         122.846         14.8419 
        1.71228         121.676         14.5159 
        1.72806         120.292         14.1995 
        1.74368         118.391         13.8957 
        1.75933         117.381         13.6002 
        1.77505         115.236         13.3119 
        1.79081         113.603         13.0315 
         1.8065         111.678         12.7604 
        1.82218         110.432         12.4972 
        1.83797         109.948         12.2397 
        1.85367         108.108         11.9909 
        1.86928         107.298         11.7505 
        1.88497         105.287         11.5154 
        1.90073         104.534         11.2859 
        1.91647         102.797         11.0628 
        1.93218         101.641         10.8462 
        1.94787         99.9701         10.6358 
        1.96363         99.1861         10.4301 
        1.97935         98.0418         10.2303 
        1.99499         97.2618         10.0369 
        2.01064          94.936          9.8482 
         2.0264         94.4281         9.66317 
        2.04216         92.3665           9.483 
        2.05781         91.9717         9.30856 
        2.07353         90.6989         9.13789 
        2.08928         89.3901         8.97113 
        2.10499         88.3543         8.80899 
        2.12065         87.7776         8.65134 
        2.13633         86.6199         8.49743 
        2.15211         85.2209         8.34626 
        2.16785         84.0082         8.19921 
        2.18349         82.8927         8.05662 
        2.19916         81.8667         7.91712 
        2.21489         81.1523         7.78047 
        2.23063         79.8425         7.64696 
         2.2463         79.3638         7.51718 
        2.26194         78.2547         7.39074 
        2.27765         77.3017         7.26657 
        2.29341         76.4105         7.14492 
        2.30914         75.4644         7.02632 
        2.32486         73.9642         6.91047 
        2.34061         73.5569         6.79705 
        2.35635         72.5318         6.68628 
        2.37203         71.5228         6.57836 
        2.38768         70.8416         6.47304 
        2.40339          70.154         6.36966 
        2.41914         68.9332         6.26829 
        2.43483          68.437         6.16949 
         2.4505           67.47         6.07298 
        2.46622         66.9374         5.97821 
        2.48195         65.9603         5.88546 
        2.49759         65.1806         5.79517 
        2.51328         64.3641         5.70654 
        2.52906         63.4646          5.6192 
        2.54479         62.9088         5.53402 
        2.56049         62.1664         5.45078 
        2.57618         61.2602         5.36931 
        2.59189         60.8689         5.28939 
        2.60758         59.9461         5.21123 
        2.62325         59.2909         5.13473 
        2.63898         58.7034         5.05951 
        2.65468         58.1367         4.98596 
        2.67044         57.4436         4.91355 
        2.68618         56.8662         4.84274 
        2.70184         56.1265         4.77362 
        2.71755         55.3235         4.70567 
        2.73329         54.8365         4.63895 
        2.74897          54.301         4.57373 
        2.76462         53.9538         4.50991 
        2.78034         53.2552         4.44705 
        2.79607         52.5013         4.38532 
        2.81179         51.8765         4.32483 
        2.82749         51.4124         4.26555 
        2.84321          50.967         4.20732 
        2.85893         50.3965         4.15019 
        2.87462         49.6996         4.09422 
        2.89033         49.0902         4.03923 
        2.90605         48.5609         3.98521 
        2.92176         48.1749          3.9322 
        2.93747         47.5544         3.88018 
        2.95318         47.0992         3.82909 
        2.96891         46.5121          3.7789 
        2.98456         46.0871         3.72983 
        3.00023         45.3813         3.68156 
        3.01596         44.9949         3.63399 
        3.03164         44.5867          3.5874 
        3.04738           44.16          3.5415 
         3.0631         43.6277         3.49641 
        3.07883         43.1526          3.4521 
        3.09456         42.6538         3.40857 
        3.11026         42.2672         3.36585 
        3.12596         41.8629         3.32388 
        3.14163         41.3423         3.28271 
        3.15734         40.9354         3.24215 
        3.17308         40.5642         3.20217 
        3.18879         40.2347         3.16298 
        3.20447         39.7948          3.1245 
         3.2202         39.3181         3.08654 
         3.2359         38.9862         3.04928 
        3.25157         38.5289         3.01272 
        3.26729         38.1362         2.97666 
        3.28304          37.824         2.94111 
        3.29877         37.2622         2.90619 
        3.31446         37.0178         2.87191 
        3.33014         36.6084         2.83821 
        3.34585         36.1316         2.80501 
        3.36158         35.8476         2.77228 
        3.37727         35.5072         2.74018 
        3.39294         35.1283         2.70862 
        3.40867            34.8         2.67744 
        3.42439         34.3815         2.64677 
        3.44008         34.1231         2.61664 
        3.45578         33.7254         2.58695 
        3.47153         33.4766         2.55766 
        3.48724         33.1133         2.52888 
        3.50292         32.7516          2.5006 
        3.51859          32.541         2.47277 
        3.53431         32.2575         2.44528 
        3.55007         31.7119         2.41814 
        3.56577         31.6816         2.39152 
        3.58146         31.2087         2.36531 
        3.59719         30.9342         2.33943 
        3.61292         30.7005         2.31395 
        3.62859         30.3347         2.28894 
        3.64429         30.0623         2.26425 
        3.66003         29.7679         2.23986 
        3.67578         29.5289         2.21583 
        3.69146         29.2562         2.19224 
        3.70712         28.8961         2.16904 
        3.72284         28.6628         2.14609 
        3.73853         28.4907         2.12352 
        3.75422         28.2025         2.10125 
        3.76993         27.9194         2.07929 
        3.78564         27.6897         2.05765 
        3.80137         27.4655         2.03629 
        3.81707         27.1691         2.01527 
        3.83279         26.9015         1.99453 
        3.84853         26.6713         1.97405 
        3.86424         26.3309          1.9539 
        3.87992         26.0937         1.93405 
        3.89561         25.9226         1.91449 
        3.91134         25.6679         1.89515 
        3.92704         25.3909          1.8761 
        3.94273         25.1162         1.85733 
        3.95845         24.9847         1.83879 
        3.97418         24.6833         1.82049 
        3.98988         24.4805         1.80247 
        4.00554         24.2226         1.78474 
        4.02125         24.0831          1.7672 
        4.03698         23.8424         1.74987 
        4.05268         23.6103         1.73281 
        4.06839         23.3927         1.71596 
         4.0841         23.2067         1.69934 
        4.09983          22.938         1.68292 
        4.11555         22.7368         1.66673 
        4.13124         22.6758         1.65079 
        4.14693         22.3313         1.63504 
        4.16266         22.1783         1.61947 
        4.17839          22.041          1.6041 
        4.19408         21.7802         1.58897 
        4.20977         21.6577         1.57403 
        4.22551         21.4616         1.55924 
        4.24123         21.2388         1.54466 
        4.25691         21.0454         1.53031 
        4.27259         20.9137         1.51613 
        4.28831         20.7157         1.50211 
        4.30404         20.5468         1.48825 
        4.31974         20.3259         1.47459 
        4.33543         20.1833         1.46112 
        4.35116         20.0123         1.44777 
        4.36688         19.8102          1.4346 
        4.38255         19.6377         1.42165 
        4.39825         19.5024         1.40882 
        4.41398           19.34         1.39613 
         4.4297         19.1646         1.38361 
        4.44541         18.9867         1.37124 
        4.46111         18.7989         1.35903 
        4.47683         18.6538         1.34697 
        4.49251         18.5438         1.33507 
        4.50819         18.3829         1.32332 
         4.5239         18.2297          1.3117 
        4.53962         18.0987          1.3002 
        4.55535         17.9115         1.28883 
        4.57106         17.8288         1.27762 
        4.58678         17.6467         1.26653 
         4.6025         17.4075         1.25558 
        4.61821         17.3115         1.24475 
        4.63391         17.1809         1.23407 
         4.6496         17.0946         1.22352 
        4.66532         16.8855         1.21307 
        4.68103         16.7707         1.20275 
        4.69673         16.6724         1.19256 
        4.71241         16.5565          1.1825 
        4.72811         16.3818         1.17254 
        4.74384         16.2332         1.16268 
        4.75955         16.1242         1.15295 
        4.77525          16.007         1.14333 
        4.79096         15.8398         1.13382 
        4.80669         15.7242          1.1244 
         4.8224         15.5803         1.11511 
        4.83809         15.4567         1.10593 
        4.85379         15.3647         1.09684 
         4.8695         15.2523         1.08785 
        4.88521         15.1253         1.07897 
        4.90093         14.9951         1.07018 
        4.91663         14.8439          1.0615 
        4.93234          14.748         1.05291 
        4.94807         14.6501          1.0444 
        4.96377          14.523         1.03601 
        4.97943         14.4183         1.02773 
        4.99514         14.2881         1.01951 
        5.01086         14.2119         1.01138 
        5.02654         14.0842         1.00336 
        5.04227         13.9542        0.995396 
          5.058          13.851        0.987519 
        5.07371         13.7433        0.979743 
        5.08942          13.681         0.97205 
        5.10513          13.538        0.964438 
        5.12084         13.4495        0.956904 
        5.13656         13.3518        0.949452 
        5.15225         13.2357        0.942091 
        5.16796         13.1115        0.934797 
        5.18369         13.0082        0.927574 
         5.1994         12.9405        0.920439 
        5.21509          12.815        0.913387 
        5.23079         12.7468        0.906399 
        5.24649         12.6479        0.899491 
        5.26217         12.5476        0.892659 
        5.27788         12.4473        0.885888 
        5.29359         12.3331        0.879186 
        5.30933         12.2835        0.872544 
        5.32504         12.1926        0.865982 
        5.34073         12.0896        0.859494 
        5.35646         12.0124         0.85306 
        5.37218         11.8942         0.84669 
        5.38789         11.7983        0.840395 
        5.40357         11.7384        0.834172 
        5.41929         11.6626        0.827998 
        5.43502         11.5572        0.821885 
         5.4507         11.4813        0.815849 
        5.46639         11.3794        0.809873 
        5.48212         11.3065        0.803942 
        5.49786         11.2357        0.798064 
        5.51353         11.1469        0.792273 
        5.52921         11.0737        0.786534 
        5.54495         10.9968        0.780836 
        5.56066         10.8991        0.775199 
        5.57637         10.8282        0.769619 
        5.59207         10.7813        0.764099 
        5.60778         10.6896        0.758631 
        5.62346         10.5751        0.753224 
        5.63916          10.531        0.747865 
        5.65487         10.4754        0.742555 
         5.6706         10.3723         0.73729 
        5.68633         10.2985        0.732074 
        5.70203         10.2322        0.726919 
        5.71773         10.1371        0.721815 
        5.73344         10.0709        0.716758 
        5.74916         10.0165        0.711744 
        5.76486         9.94819        0.706784 
        5.78054         9.88157         0.70188 
        5.79626         9.82792        0.697008 
          5.812         9.74876        0.692178 
         5.8277         9.67152        0.687407 
        5.84339         9.59213        0.682682 
        5.85911         9.52472        0.677991 
        5.87484         9.46498        0.673346 
        5.89053         9.39496        0.668753 
        5.90623         9.33622        0.664201 
        5.92195         9.27069        0.659684 
        5.93767         9.23161        0.655211 
        5.95336         9.13882        0.650786 
        5.96905         9.09274        0.646405 
        5.98476         9.02731        0.642057 
        6.00048         8.96878        0.637748 
        6.01617         8.89627        0.633484 
        6.03185          8.8344        0.629264 
        6.04756         8.77039        0.625073 
        6.06331         8.72446        0.620911 
        6.07903         8.66716        0.616795 
        6.09473         8.61173        0.612721 
        6.11044         8.54348        0.608679 
        6.12616         8.48974        0.604675 
        6.14186         8.43324        0.600711 
        6.15755         8.37499        0.596782 
        6.17326          8.3277        0.592886 
        6.18898         8.26651        0.589022 
        6.20467         8.20116          0.5852 
        6.22036         8.15114        0.581412 
         6.2361         8.08999        0.577647 
         6.2518         8.06225        0.573922 
        6.26748         7.98404        0.570237 
        6.28319         7.95292        0.566575 
        6.29893         7.90072        0.562942 
        6.31463         7.82356        0.559347 
        6.33033          7.7877        0.555784 
        6.34604         7.74003         0.55225 
        6.36177         7.69945        0.548743 
        6.37747         7.62805        0.545273 
