# k  (h/Mpc)    Pcb(k)  (Mpc/h)^3    Pcb_linear(k) (Mpc/h)^3   ShotnoiseSubtracted = true
      0.0200456         130.603         132.356 
      0.0350414         96.2951         96.2185 
      0.0492313         70.2152         69.9105 
      0.0637834         58.2827          58.116 
      0.0800726         46.1933         46.1252 
       0.096163         33.5567         33.4679 
       0.111083         26.7159         26.6948 
       0.126058         23.6654          23.657 
       0.142273         20.0633         20.0427 
       0.158546         15.9152         15.8295 
        0.17375         13.3353         13.3364 
       0.188953         12.0744         12.0758 
       0.204907           10.78         10.6846 
       0.220756         9.08615         9.03983 
        0.23588         7.90414         7.86387 
         0.2514         7.14574         7.14424 
       0.267535         6.46546         6.46431 
       0.283568         5.71744         5.70066 
       0.299022         5.10656         5.07899 
       0.314451         4.62347         4.64185 
       0.330372         4.25649         4.25838 
       0.346141          3.8662         3.86513 
       0.361624         3.52417         3.51287 
       0.377134         3.25133          3.2324 
       0.392932         2.96203         2.99087 
       0.408854         2.76885         2.75701 
       0.424564         2.53891         2.54117 
       0.440253           2.357         2.35596 
       0.455999         2.20515         2.19491 
       0.471626         2.06075         2.04691 
        0.48727         1.91041         1.90846 
       0.502856         1.78155         1.78409 
       0.518488         1.68669         1.67312 
       0.534347         1.59022         1.56995 
       0.550082         1.47494         1.47482 
       0.565732         1.37447          1.3878 
       0.581496         1.31258         1.30809 
       0.597222         1.24159         1.23499 
       0.612804         1.16905         1.16778 
       0.628434         1.11417         1.10513 
       0.644267          1.0498         1.04655 
       0.660051        0.992675        0.992569 
       0.675724        0.945927        0.942721 
       0.691403         0.90212        0.896254 
       0.707174        0.855141        0.852658 
       0.722871         0.81025        0.812135 
        0.73838        0.778734        0.774678 
       0.754018        0.746547        0.739302 
       0.769845        0.710787         0.70575 
        0.78569        0.677819        0.674252 
       0.801365         0.64664         0.64499 
       0.817031        0.620353        0.617492 
       0.832809        0.594116         0.59143 
       0.848511        0.567817        0.566996 
       0.864097        0.542572        0.544117 
       0.879701        0.520405        0.522485 
       0.895507        0.503839        0.501779 
       0.911279        0.484112        0.482243 
        0.92691         0.46426        0.463915 
       0.942635        0.447204        0.446441 
       0.958396        0.429143        0.429835 
       0.974128        0.413318        0.414108 
       0.989692        0.399607        0.399326 
        1.00528        0.386237        0.385247 
        1.02113        0.369411        0.371628 
        1.03692        0.358421        0.358721 
        1.05264        0.346118        0.346489 
        1.06832         0.33477        0.334849 
        1.08405        0.321663        0.323715 
        1.09979        0.311086        0.313082 
        1.11537        0.303351        0.303034 
        1.13105        0.293115        0.293369 
        1.14679         0.28503         0.28409 
        1.16256        0.273237        0.275196 
        1.17828        0.264928        0.266713 
        1.19395        0.256322        0.258617 
         1.2097        0.248226        0.250818 
        1.22537        0.242683        0.243379 
          1.241        0.234765        0.236265 
        1.25666        0.229016        0.229419 
        1.27241         0.22117        0.222813 
        1.28819        0.214728        0.216457 
        1.30392         0.20863        0.210368 
        1.31957         0.20308        0.204541 
        1.33529         0.19677        0.198914 
        1.35108        0.191383        0.193478 
        1.36674        0.184823        0.188284 
         1.3824          0.1821        0.183286 
        1.39811        0.176198        0.178453 
        1.41389        0.171676        0.173777 
        1.42964        0.167905        0.169276 
        1.44531        0.162151        0.164957 
        1.46101        0.158654        0.160781 
        1.47667        0.153679        0.156761 
        1.49229        0.150497        0.152891 
        1.50793        0.146162        0.149146 
        1.52367         0.14292        0.145504 
        1.53953        0.139725        0.141959 
        1.55526        0.136256        0.138561 
        1.57092        0.131947        0.135288 
        1.58662        0.129496        0.132113 
        1.60235        0.126854        0.129035 
        1.61809        0.122676        0.126053 
        1.63369         0.12078        0.123192 
        1.64941        0.117972          0.1204 
        1.66519        0.114824        0.117684 
        1.68085        0.111958        0.115072 
        1.69652        0.109319        0.112538 
        1.71228        0.107487        0.110066 
        1.72806        0.104253        0.107667 
        1.74368         0.10254        0.105363 
        1.75933         0.10023        0.103123 
        1.77505       0.0979048        0.100937 
        1.79081       0.0961373       0.0988109 
         1.8065       0.0933582       0.0967552 
        1.82218       0.0917397       0.0947599 
        1.83797       0.0896204       0.0928072 
        1.85367       0.0877764       0.0909205 
        1.86928       0.0862323       0.0890977 
        1.88497       0.0845242        0.087315 
        1.90073       0.0825297       0.0855745 
        1.91647       0.0806768       0.0838832 
        1.93218       0.0789799       0.0822412 
        1.94787        0.077327       0.0806456 
        1.96363       0.0759951       0.0790861 
        1.97935        0.074152       0.0775711 
        1.99499       0.0729201       0.0761044 
        2.01064       0.0716606       0.0746736 
         2.0264        0.070199       0.0732706 
        2.04216       0.0687546       0.0719045 
        2.05781       0.0675027       0.0705818 
        2.07353       0.0658022       0.0692877 
        2.08928       0.0647226       0.0680233 
        2.10499       0.0632826       0.0667938 
        2.12065        0.062506       0.0655985 
        2.13633       0.0609961       0.0644314 
        2.15211       0.0602719       0.0632852 
        2.16785        0.059028       0.0621702 
        2.18349       0.0575044        0.061089 
        2.19916       0.0570569       0.0600313 
        2.21489       0.0560342       0.0589951 
        2.23063       0.0548815       0.0579828 
         2.2463        0.053692       0.0569987 
        2.26194       0.0527242         0.05604 
        2.27765       0.0517872       0.0550985 
        2.29341       0.0511395       0.0541761 
        2.30914       0.0499822       0.0532768 
        2.32486       0.0491024       0.0523984 
        2.34061       0.0483422       0.0515384 
        2.35635       0.0474252       0.0506984 
        2.37203       0.0466529       0.0498801 
        2.38768       0.0458364       0.0490816 
        2.40339       0.0449987       0.0482977 
        2.41914       0.0444386       0.0475291 
        2.43483       0.0434249       0.0467799 
         2.4505       0.0426966       0.0460481 
        2.46622       0.0420611       0.0453296 
        2.48195       0.0412267       0.0446263 
        2.49759       0.0407819       0.0439416 
        2.51328       0.0402222       0.0432696 
        2.52906       0.0394645       0.0426074 
        2.54479       0.0387741       0.0419615 
        2.56049       0.0381893       0.0413303 
        2.57618       0.0375649       0.0407126 
        2.59189       0.0369754       0.0401066 
        2.60758       0.0364926       0.0395139 
        2.62325       0.0358086       0.0389339 
        2.63898        0.035268       0.0383636 
        2.65468       0.0346012       0.0378058 
        2.67044       0.0342727       0.0372568 
        2.68618       0.0336694       0.0367199 
        2.70184       0.0331275       0.0361958 
        2.71755        0.032483       0.0356806 
        2.73329        0.032102       0.0351746 
        2.74897       0.0317032       0.0346801 
        2.76462       0.0311271       0.0341962 
        2.78034       0.0307112       0.0337196 
        2.79607       0.0302539       0.0332515 
        2.81179       0.0298219       0.0327929 
        2.82749       0.0293348       0.0323434 
        2.84321       0.0289193       0.0319018 
        2.85893       0.0284847       0.0314687 
        2.87462       0.0281742       0.0310443 
        2.89033       0.0277625       0.0306273 
        2.90605       0.0272318       0.0302177 
        2.92176       0.0269777       0.0298157 
        2.93747       0.0265648       0.0294213 
        2.95318       0.0261056       0.0290339 
        2.96891       0.0258354       0.0286534 
        2.98456       0.0255446       0.0282813 
        3.00023       0.0250685       0.0279153 
        3.01596       0.0246841       0.0275546 
        3.03164       0.0244975       0.0272014 
        3.04738       0.0241111       0.0268533 
         3.0631        0.023671       0.0265114 
        3.07883       0.0233681       0.0261754 
        3.09456       0.0232018       0.0258453 
        3.11026       0.0227869       0.0255215 
        3.12596       0.0225851       0.0252032 
        3.14163       0.0222279        0.024891 
        3.15734       0.0219507       0.0245835 
        3.17308       0.0216586       0.0242803 
        3.18879       0.0213753       0.0239832 
        3.20447       0.0211579       0.0236914 
         3.2202       0.0208456       0.0234036 
         3.2359        0.020627       0.0231211 
        3.25157       0.0203179       0.0228439 
        3.26729       0.0201117       0.0225704 
        3.28304       0.0198245       0.0223008 
        3.29877        0.019629        0.022036 
        3.31446       0.0193437       0.0217761 
        3.33014       0.0191139       0.0215206 
        3.34585       0.0188979       0.0212688 
        3.36158       0.0185974       0.0210207 
        3.37727       0.0184441       0.0207773 
        3.39294       0.0182442        0.020538 
        3.40867       0.0180342       0.0203016 
        3.42439       0.0178319        0.020069 
        3.44008       0.0176144       0.0198405 
        3.45578       0.0174482       0.0196155 
        3.47153       0.0172008       0.0193934 
        3.48724       0.0171035       0.0191751 
        3.50292       0.0167986       0.0189607 
        3.51859       0.0165834       0.0187497 
        3.53431        0.016504       0.0185412 
        3.55007       0.0163178       0.0183355 
        3.56577       0.0161904       0.0181336 
        3.58146       0.0158985       0.0179348 
        3.59719       0.0157765       0.0177386 
        3.61292       0.0155727       0.0175454 
        3.62859        0.015416       0.0173558 
        3.64429       0.0153104       0.0171686 
        3.66003       0.0151275       0.0169836 
        3.67578       0.0149687       0.0168014 
        3.69146       0.0148591       0.0166226 
        3.70712       0.0147243       0.0164467 
        3.72284       0.0145256       0.0162727 
        3.73853       0.0143608       0.0161015 
        3.75422       0.0143041       0.0159327 
        3.76993          0.0141       0.0157662 
        3.78564       0.0140234       0.0156021 
        3.80137       0.0138699       0.0154401 
        3.81707       0.0136815       0.0152807 
        3.83279       0.0135843       0.0151234 
        3.84853       0.0134663       0.0149681 
        3.86424       0.0133084       0.0148153 
        3.87992        0.013214       0.0146649 
        3.89561       0.0131159       0.0145165 
        3.91134       0.0130044       0.0143699 
        3.92704        0.012835       0.0142255 
        3.94273       0.0127195       0.0140832 
        3.95845       0.0125897       0.0139426 
        3.97418       0.0124961       0.0138038 
        3.98988       0.0123768       0.0136672 
        4.00554        0.012221       0.0135327 
        4.02125       0.0120651       0.0133997 
        4.03698       0.0119596       0.0132683 
        4.05268       0.0117733       0.0131389 
        4.06839       0.0115997       0.0130112 
         4.0841       0.0114673       0.0128852 
        4.09983       0.0112917       0.0127607 
        4.11555        0.011185       0.0126379 
        4.13124       0.0110083        0.012517 
        4.14693       0.0108653       0.0123976 
        4.16266       0.0107289       0.0122795 
        4.17839       0.0105911        0.012163 
        4.19408       0.0104922       0.0120483 
        4.20977       0.0103563        0.011935 
        4.22551       0.0102171       0.0118229 
        4.24123       0.0101078       0.0117124 
        4.25691       0.0100176       0.0116035 
        4.27259      0.00990262        0.011496 
        4.28831      0.00982977       0.0113897 
        4.30404      0.00972166       0.0112846 
        4.31974      0.00960706        0.011181 
        4.33543      0.00952373       0.0110788 
        4.35116      0.00944219       0.0109777 
        4.36688      0.00936602       0.0108778 
        4.38255      0.00930441       0.0107796 
        4.39825      0.00925082       0.0106823 
        4.41398      0.00920738       0.0105861 
         4.4297      0.00914083       0.0104911 
        4.44541      0.00907603       0.0103974 
        4.46111      0.00901554       0.0103048 
        4.47683       0.0089924       0.0102133 
        4.49251      0.00892311       0.0101231 
        4.50819      0.00888807        0.010034 
         4.5239      0.00886319       0.0099459 
        4.53962      0.00884723      0.00985871 
        4.55535      0.00882241      0.00977252 
        4.57106       0.0088294      0.00968748 
        4.58678      0.00877022      0.00960343 
         4.6025      0.00878872      0.00952037 
        4.61821      0.00877901       0.0094383 
        4.63391      0.00876688       0.0093573 
         4.6496       0.0087833      0.00927728 
        4.66532      0.00877356      0.00919808 
        4.68103      0.00879468      0.00911983 
        4.69673      0.00880528      0.00904257 
        4.71241      0.00885658      0.00896628 
        4.72811      0.00883434      0.00889074 
        4.74384      0.00887492      0.00881598 
        4.75955      0.00889815      0.00874219 
        4.77525      0.00895505      0.00866929 
        4.79096      0.00900697      0.00859712 
        4.80669      0.00900393      0.00852575 
         4.8224      0.00910704      0.00845526 
        4.83809      0.00912671      0.00838565 
        4.85379      0.00921022      0.00831677 
         4.8695      0.00924798      0.00824862 
        4.88521      0.00930726      0.00818125 
        4.90093      0.00938439      0.00811463 
        4.91663      0.00952005      0.00804881 
        4.93234      0.00956595      0.00798364 
        4.94807       0.0096532      0.00791916 
        4.96377      0.00971251      0.00785551 
        4.97943       0.0098222      0.00779269 
        4.99514      0.00991829       0.0077304 
        5.01086       0.0100042      0.00766873 
        5.02654       0.0101588       0.0076079 
        5.04227       0.0102705      0.00754755 
          5.058       0.0103927      0.00748783 
        5.07371        0.010505      0.00742886 
        5.08942       0.0107156      0.00737053 
        5.10513       0.0107734      0.00731281 
        5.12084       0.0108964      0.00725568 
        5.13656       0.0110774      0.00719918 
        5.15225       0.0112134      0.00714337 
        5.16796       0.0114242      0.00708806 
        5.18369        0.011535      0.00703329 
         5.1994       0.0117355       0.0069792 
        5.21509       0.0119438      0.00692572 
        5.23079       0.0120602      0.00687274 
        5.24649       0.0122971      0.00682035 
        5.26217       0.0124775      0.00676855 
        5.27788       0.0127193      0.00671721 
        5.29359       0.0128832       0.0066664 
        5.30933       0.0131893      0.00661603 
        5.32504        0.013327      0.00656627 
        5.34073        0.013627      0.00651708 
        5.35646       0.0138239      0.00646829 
        5.37218       0.0140993      0.00641999 
        5.38789       0.0143595      0.00637226 
        5.40357       0.0145713      0.00632508 
        5.41929       0.0148306      0.00627826 
        5.43502       0.0151347      0.00623191 
         5.4507       0.0154601      0.00618614 
        5.46639       0.0158518      0.00614083 
        5.48212       0.0159452      0.00609586 
        5.49786       0.0163203      0.00605129 
        5.51353       0.0167414      0.00600738 
        5.52921       0.0170823      0.00596387 
        5.54495       0.0174457      0.00592066 
        5.56066         0.01777      0.00587792 
        5.57637       0.0181628      0.00583561 
        5.59207       0.0184829      0.00579375 
        5.60778       0.0188813      0.00575229 
        5.62346       0.0193437      0.00571129 
        5.63916       0.0197035      0.00567066 
        5.65487       0.0201966      0.00563039 
         5.6706       0.0204762      0.00559047 
        5.68633       0.0210505      0.00555092 
        5.70203        0.021501      0.00551184 
        5.71773       0.0220188      0.00547314 
        5.73344       0.0224422      0.00543479 
        5.74916       0.0231049      0.00539677 
        5.76486       0.0235435      0.00535916 
        5.78054       0.0239333      0.00532198 
        5.79626        0.024598      0.00528504 
          5.812       0.0251217      0.00524841 
         5.8277       0.0257564      0.00521224 
        5.84339       0.0262979      0.00517641 
        5.85911        0.027102      0.00514084 
        5.87484       0.0277201      0.00510562 
        5.89053       0.0283172       0.0050708 
        5.90623       0.0291077      0.00503628 
        5.92195       0.0299134      0.00500203 
        5.93767        0.030464      0.00496811 
        5.95336       0.0312834      0.00493456 
        5.96905       0.0320402      0.00490134 
        5.98476       0.0325323      0.00486837 
        6.00048       0.0334992       0.0048357 
        6.01617       0.0342933      0.00480337 
        6.03185       0.0352007      0.00477137 
        6.04756       0.0360938      0.00473959 
        6.06331       0.0369554      0.00470803 
        6.07903       0.0381326      0.00467683 
        6.09473       0.0388775      0.00464593 
        6.11044       0.0400444      0.00461529 
        6.12616       0.0412459      0.00458492 
        6.14186       0.0420062      0.00455487 
        6.15755        0.043102      0.00452508 
        6.17326       0.0439362      0.00449553 
        6.18898       0.0454831      0.00446624 
        6.20467        0.046942      0.00443725 
        6.22036       0.0479159      0.00440853 
         6.2361       0.0491981      0.00437999 
         6.2518       0.0506236      0.00435174 
        6.26748       0.0515304       0.0043238 
        6.28319       0.0534383      0.00429603 
        6.29893       0.0547703      0.00426848 
        6.31463       0.0562496      0.00424122 
        6.33033        0.057629      0.00421421 
        6.34604       0.0592579      0.00418741 
        6.36177        0.061145      0.00416082 
        6.37747       0.0625329      0.00413451 
