# k  (h/Mpc)    Pcb(k)  (Mpc/h)^3    Pcb_linear(k) (Mpc/h)^3   ShotnoiseSubtracted = true
      0.0200456         26121.7         26609.7 
      0.0350414         19982.7         19344.3 
      0.0492313         13685.8         14055.2 
      0.0637834         11026.2           11684 
      0.0800726         8641.73         9273.29 
       0.096163         7004.58         6728.58 
       0.111083         5704.61         5366.89 
       0.126058         4711.49         4756.15 
       0.142273         4147.21         4029.51 
       0.158546         3399.87         3182.47 
        0.17375         3066.32         2681.23 
       0.188953         2931.65         2427.79 
       0.204907         2524.03          2148.1 
       0.220756         2291.77         1817.42 
        0.23588         2047.36            1581 
         0.2514         1864.63         1436.32 
       0.267535         1791.11         1299.62 
       0.283568         1609.15         1146.09 
       0.299022         1530.74         1021.11 
       0.314451         1597.81         933.226 
       0.330372         1435.44          856.13 
       0.346141         1318.85         777.068 
       0.361624         1263.23         706.249 
       0.377134            1218          649.86 
       0.392932         1152.44         601.303 
       0.408854         1111.63         554.285 
       0.424564         1088.72         510.893 
       0.440253         1019.72         473.657 
       0.455999         974.229         441.279 
       0.471626         984.371         411.523 
        0.48727         932.586         383.689 
       0.502856           908.3         358.684 
       0.518488         871.498         336.373 
       0.534347          845.13         315.632 
       0.550082         808.082         296.507 
       0.565732          791.35         279.011 
       0.581496         773.519         262.987 
       0.597222         762.852         248.291 
       0.612804         741.573         234.777 
       0.628434         712.419         222.181 
       0.644267         694.383         210.405 
       0.660051         686.364         199.552 
       0.675724         674.832          189.53 
       0.691403         648.487         180.188 
       0.707174         633.602         171.423 
       0.722871         630.661         163.276 
        0.73838         610.631         155.746 
       0.754018         601.153         148.634 
       0.769845         590.654         141.888 
        0.78569         577.033         135.556 
       0.801365         560.298         129.673 
       0.817031         553.111         124.144 
       0.832809         542.836         118.905 
       0.848511         533.033         113.992 
       0.864097         524.303         109.393 
       0.879701         526.192         105.043 
       0.895507         505.946         100.881 
       0.911279         500.922         96.9531 
        0.92691         491.683         93.2682 
       0.942635         484.118         89.7553 
       0.958396         473.396         86.4167 
       0.974128         464.566         83.2547 
       0.989692          454.72         80.2828 
        1.00528         447.301         77.4523 
        1.02113         439.434         74.7144 
        1.03692         433.092         72.1195 
        1.05264         428.077         69.6603 
        1.06832         418.018         67.3201 
        1.08405         415.948         65.0816 
        1.09979          405.54         62.9439 
        1.11537         397.173         60.9238 
        1.13105         391.851         58.9807 
        1.14679         385.064         57.1152 
        1.16256          382.26          55.327 
        1.17828         376.411         53.6215 
        1.19395         367.896          51.994 
         1.2097         361.545         50.4259 
        1.22537         357.304         48.9304 
          1.241         349.936         47.5002 
        1.25666         346.178         46.1238 
        1.27241         343.377         44.7957 
        1.28819         334.033         43.5178 
        1.30392         332.119         42.2937 
        1.31957          325.32         41.1222 
        1.33529          320.51         39.9909 
        1.35108         320.047         38.8979 
        1.36674         311.632         37.8537 
         1.3824         305.278         36.8488 
        1.39811         301.769         35.8772 
        1.41389         297.337         34.9371 
        1.42964         292.445         34.0323 
        1.44531         287.641          33.164 
        1.46101         281.507         32.3243 
        1.47667         280.289         31.5162 
        1.49229         276.664          30.738 
        1.50793         270.705         29.9853 
        1.52367         266.521          29.253 
        1.53953         263.536         28.5403 
        1.55526         258.367         27.8571 
        1.57092         256.234         27.1991 
        1.58662         251.161         26.5609 
        1.60235         247.329         25.9419 
        1.61809         245.229         25.3424 
        1.63369         240.444         24.7673 
        1.64941         237.692         24.2059 
        1.66519         234.017         23.6599 
        1.68085         229.834         23.1347 
        1.69652         226.867         22.6253 
        1.71228         223.341         22.1284 
        1.72806         220.516          21.646 
        1.74368         217.236         21.1829 
        1.75933         215.176         20.7324 
        1.77505          211.64          20.293 
        1.79081         208.893         19.8655 
         1.8065         207.594         19.4522 
        1.82218         202.063         19.0511 
        1.83797          200.44         18.6585 
        1.85367         197.444         18.2792 
        1.86928         193.824         17.9127 
        1.88497         191.866         17.5543 
        1.90073         190.119         17.2044 
        1.91647         187.116         16.8644 
        1.93218         183.922         16.5343 
        1.94787         180.764         16.2135 
        1.96363          179.87         15.8999 
        1.97935         176.852         15.5954 
        1.99499          175.06         15.3005 
        2.01064         170.873         15.0128 
         2.0264         170.118         14.7308 
        2.04216         167.036         14.4561 
        2.05781         165.229         14.1902 
        2.07353          163.88           13.93 
        2.08928         162.149         13.6758 
        2.10499         158.905         13.4286 
        2.12065         157.283         13.1883 
        2.13633         154.947         12.9537 
        2.15211         153.056         12.7232 
        2.16785         151.471         12.4991 
        2.18349         149.256         12.2817 
        2.19916          148.27          12.069 
        2.21489         145.122         11.8607 
        2.23063         143.369         11.6572 
         2.2463         141.649         11.4594 
        2.26194         140.405         11.2666 
        2.27765         138.254         11.0773 
        2.29341         136.757         10.8919 
        2.30914         134.638         10.7111 
        2.32486          133.53         10.5345 
        2.34061         131.024         10.3616 
        2.35635         129.578         10.1927 
        2.37203         128.516         10.0282 
        2.38768         126.851         9.86766 
        2.40339         125.246         9.71005 
        2.41914           123.1         9.55553 
        2.43483          121.91         9.40491 
         2.4505          120.95         9.25779 
        2.46622         118.751         9.11332 
        2.48195         117.523         8.97193 
        2.49759         115.762         8.83429 
        2.51328          114.59         8.69918 
        2.52906         113.451         8.56605 
        2.54479         111.844         8.43619 
        2.56049         110.516         8.30929 
        2.57618         109.354          8.1851 
        2.59189         108.387         8.06327 
        2.60758         107.089         7.94411 
        2.62325         105.255         7.82751 
        2.63898         103.783         7.71284 
        2.65468         102.855         7.60071 
        2.67044         101.903         7.49033 
        2.68618         100.581         7.38239 
        2.70184          99.717         7.27702 
        2.71755         98.0533         7.17344 
        2.73329         96.8165         7.07172 
        2.74897         95.7393          6.9723 
        2.76462         95.0403         6.87502 
        2.78034          94.089         6.77919 
        2.79607         92.7454         6.68508 
        2.81179         91.8074         6.59287 
        2.82749         90.9589         6.50251 
        2.84321          89.499         6.41374 
        2.85893         88.5169         6.32665 
        2.87462         87.5116         6.24133 
        2.89033         86.7109          6.1575 
        2.90605           85.58         6.07514 
        2.92176         84.7138         5.99433 
        2.93747          83.874         5.91503 
        2.95318          82.788         5.83715 
        2.96891         82.3398         5.76064 
        2.98456         80.8006         5.68584 
        3.00023         80.1374         5.61225 
        3.01596         79.6416         5.53974 
        3.03164         78.4031         5.46872 
        3.04738         77.8689         5.39874 
         3.0631          77.076            5.33 
        3.07883         76.1448         5.26246 
        3.09456         75.1371          5.1961 
        3.11026         74.6795         5.13099 
        3.12596         73.6243         5.06699 
        3.14163         72.9449         5.00424 
        3.15734         72.0473         4.94241 
        3.17308         71.3637         4.88147 
        3.18879         70.6095         4.82172 
        3.20447          70.172         4.76306 
         3.2202         69.0852          4.7052 
         3.2359         68.5715         4.64839 
        3.25157         67.8722         4.59267 
        3.26729         67.0211         4.53768 
        3.28304         66.2467         4.48349 
        3.29877         65.6932         4.43026 
        3.31446          65.023           4.378 
        3.33014         64.4461         4.32664 
        3.34585         63.7097         4.27602 
        3.36158         63.1263         4.22613 
        3.37727         62.3979          4.1772 
        3.39294         61.7663         4.12908 
        3.40867         61.3021         4.08155 
        3.42439         60.3006         4.03479 
        3.44008         59.8743         3.98886 
        3.45578         59.4752         3.94361 
        3.47153         58.8838         3.89896 
        3.48724         58.1681         3.85508 
        3.50292         57.7718         3.81198 
        3.51859         57.0886         3.76955 
        3.53431         56.4343         3.72764 
        3.55007         55.8336         3.68627 
        3.56577         55.3118         3.64568 
        3.58146         54.8089         3.60573 
        3.59719         54.3744         3.56628 
        3.61292         53.8144         3.52743 
        3.62859         53.2826         3.48931 
        3.64429         52.9012         3.45168 
        3.66003         52.2235         3.41449 
        3.67578         51.6856         3.37786 
        3.69146         51.2515         3.34191 
        3.70712         50.6449         3.30654 
        3.72284         50.1062         3.27156 
        3.73853         49.9037         3.23714 
        3.75422         49.3871          3.2032 
        3.76993         48.9663         3.16972 
        3.78564         48.3738         3.13673 
        3.80137         47.8771         3.10416 
        3.81707         47.4359         3.07212 
        3.83279         47.0408         3.04051 
        3.84853         46.6039         3.00929 
        3.86424         46.2291         2.97856 
        3.87992         45.7044         2.94832 
        3.89561         45.4083         2.91849 
        3.91134         44.9355         2.88901 
        3.92704         44.5547         2.85997 
        3.94273         44.1347         2.83136 
        3.95845         43.6191         2.80309 
        3.97418         43.2728          2.7752 
        3.98988         42.8807         2.74773 
        4.00554         42.4383          2.7207 
        4.02125         42.0045         2.69396 
        4.03698         41.7662         2.66754 
        4.05268         41.3688         2.64153 
        4.06839          40.983         2.61585 
         4.0841         40.6834         2.59052 
        4.09983         40.3656         2.56549 
        4.11555         39.9974          2.5408 
        4.13124         39.5391          2.5165 
        4.14693          39.233         2.49249 
        4.16266         38.9699         2.46875 
        4.17839         38.5116         2.44533 
        4.19408         38.2593         2.42226 
        4.20977         37.8105         2.39949 
        4.22551         37.4885         2.37695 
        4.24123         37.2021         2.35472 
        4.25691         36.8361         2.33284 
        4.27259         36.5468         2.31123 
        4.28831         36.2121         2.28985 
        4.30404         35.9787         2.26872 
        4.31974         35.5352          2.2479 
        4.33543         35.2228         2.22736 
        4.35116         34.9009         2.20702 
        4.36688           34.65         2.18694 
        4.38255         34.3949         2.16719 
        4.39825         34.1115         2.14764 
        4.41398         33.8212         2.12829 
         4.4297         33.4371          2.1092 
        4.44541         33.2913         2.09035 
        4.46111         33.0446         2.07174 
        4.47683         32.7634         2.05335 
        4.49251         32.4302         2.03521 
        4.50819         32.1495          2.0173 
         4.5239         31.8064         1.99958 
        4.53962         31.5737         1.98205 
        4.55535         31.2673         1.96473 
        4.57106          31.065         1.94763 
        4.58678         30.7771         1.93073 
         4.6025          30.496         1.91403 
        4.61821         30.3394         1.89753 
        4.63391         30.0168         1.88125 
         4.6496         29.8333         1.86516 
        4.66532          29.615         1.84924 
        4.68103         29.3447         1.83351 
        4.69673         29.0415         1.81797 
        4.71241         28.8349         1.80263 
        4.72811         28.5739         1.78745 
        4.74384         28.3741         1.77242 
        4.75955         28.1561         1.75758 
        4.77525         27.9232         1.74293 
        4.79096         27.7222         1.72842 
        4.80669         27.5072         1.71407 
         4.8224         27.2636          1.6999 
        4.83809         27.0348          1.6859 
        4.85379         26.8107         1.67205 
         4.8695         26.5802         1.65835 
        4.88521         26.3635         1.64481 
        4.90093         26.1403         1.63141 
        4.91663         26.0017         1.61818 
        4.93234         25.7764         1.60508 
        4.94807         25.5855         1.59212 
        4.96377         25.3689         1.57932 
        4.97943         25.1951         1.56669 
        4.99514         24.9959         1.55416 
        5.01086         24.8319         1.54177 
        5.02654         24.6023         1.52954 
        5.04227         24.3923          1.5174 
          5.058         24.3121          1.5054 
        5.07371         24.0783         1.49354 
        5.08942         23.9154         1.48181 
        5.10513         23.6818         1.47021 
        5.12084         23.4625         1.45873 
        5.13656         23.3498         1.44737 
        5.15225         23.1458         1.43615 
        5.16796          22.941         1.42503 
        5.18369         22.8069         1.41401 
         5.1994          22.591         1.40314 
        5.21509         22.4078         1.39239 
        5.23079         22.2625         1.38174 
        5.24649         22.0622          1.3712 
        5.26217         21.9479         1.36079 
        5.27788         21.7766         1.35047 
        5.29359         21.5944         1.34025 
        5.30933         21.3975         1.33013 
        5.32504         21.2792         1.32012 
        5.34073         21.1218         1.31023 
        5.35646         20.9762         1.30042 
        5.37218         20.7914         1.29071 
        5.38789         20.6567         1.28112 
        5.40357         20.4657         1.27163 
        5.41929         20.3497         1.26222 
        5.43502         20.1526          1.2529 
         5.4507         20.0932          1.2437 
        5.46639         19.8807         1.23459 
        5.48212         19.7145         1.22555 
        5.49786          19.604         1.21659 
        5.51353         19.4287         1.20776 
        5.52921         19.2855         1.19901 
        5.54495         19.1952         1.19032 
        5.56066         19.0235         1.18173 
        5.57637         18.8641         1.17323 
        5.59207         18.7823         1.16481 
        5.60778         18.6233         1.15648 
        5.62346         18.4668         1.14823 
        5.63916         18.3259         1.14006 
        5.65487         18.2034         1.13197 
         5.6706         18.0799         1.12394 
        5.68633         17.9479         1.11599 
        5.70203         17.7916         1.10813 
        5.71773         17.7008         1.10035 
        5.73344         17.5855         1.09264 
        5.74916         17.4646           1.085 
        5.76486         17.3321         1.07744 
        5.78054          17.196         1.06996 
        5.79626         17.1114         1.06254 
          5.812         16.9645         1.05517 
         5.8277         16.8235          1.0479 
        5.84339         16.6985          1.0407 
        5.85911         16.5812         1.03355 
        5.87484         16.4721         1.02646 
        5.89053         16.3477         1.01946 
        5.90623         16.2419         1.01252 
        5.92195         16.1372         1.00564 
        5.93767         16.0104        0.998818 
        5.95336         15.8987        0.992074 
        5.96905           15.79        0.985394 
        5.98476         15.6934        0.978766 
        6.00048         15.5484        0.972198 
        6.01617         15.4464        0.965698 
        6.03185         15.3553        0.959265 
        6.04756         15.2207        0.952876 
        6.06331         15.1396        0.946531 
        6.07903         15.0162        0.940257 
        6.09473         14.9231        0.934046 
        6.11044         14.8237        0.927885 
        6.12616         14.7351        0.921781 
        6.14186         14.6118        0.915737 
        6.15755         14.5256        0.909749 
        6.17326         14.4605        0.903809 
        6.18898         14.3611        0.897919 
        6.20467         14.2269        0.892092 
        6.22036         14.1268        0.886318 
         6.2361         14.0388        0.880578 
         6.2518          13.932        0.874899 
        6.26748         13.8682        0.869283 
        6.28319         13.7639          0.8637 
        6.29893         13.6633        0.858162 
        6.31463         13.5701        0.852681 
        6.33033         13.4801         0.84725 
        6.34604         13.3947        0.841863 
        6.36177         13.3347        0.836517 
        6.37747         13.2189        0.831227 
