# k  (h/Mpc)    Pcb(k)  (Mpc/h)^3    Pcb_linear(k) (Mpc/h)^3   ShotnoiseSubtracted = true
      0.0200456         9773.38         9914.95 
      0.0350414         7388.38         7207.83 
      0.0492313         5199.53         5237.07 
      0.0637834         4212.64         4353.53 
      0.0800726         3321.21         3455.29 
       0.096163         2589.32         2507.11 
       0.111083         2101.59         1999.74 
       0.126058         1757.49         1772.18 
       0.142273         1510.26         1501.42 
       0.158546         1238.44         1185.81 
        0.17375         1079.08         999.044 
       0.188953         994.351         904.611 
       0.204907         847.835         800.397 
       0.220756         758.482         677.184 
        0.23588         672.439         589.091 
         0.2514         602.134         535.183 
       0.267535         581.588         484.249 
       0.283568         507.179         427.043 
       0.299022         481.569         380.473 
       0.314451          480.65         347.726 
       0.330372         413.541             319 
       0.346141           383.2         289.541 
       0.361624         364.589         263.153 
       0.377134         338.124         242.143 
       0.392932         328.849          224.05 
       0.408854         311.887         206.531 
       0.424564         300.027         190.362 
       0.440253         270.736         176.488 
       0.455999         257.807         164.423 
       0.471626         255.801         153.336 
        0.48727         243.909         142.965 
       0.502856         222.799         133.648 
       0.518488         222.939         125.335 
       0.534347         207.181         117.607 
       0.550082         202.241         110.481 
       0.565732         200.032         103.961 
       0.581496         186.606         97.9907 
       0.597222         182.326         92.5148 
       0.612804         176.729         87.4796 
       0.628434         171.078         82.7863 
       0.644267         162.892         78.3985 
       0.660051          158.95         74.3545 
       0.675724         157.231         70.6203 
       0.691403         153.115         67.1394 
       0.707174         147.819         63.8736 
       0.722871          145.43         60.8379 
        0.73838         143.316          58.032 
       0.754018         134.639         55.3819 
       0.769845         134.387         52.8685 
        0.78569         130.785          50.509 
       0.801365         126.778          48.317 
       0.817031         123.179          46.257 
       0.832809         121.082         44.3047 
       0.848511         118.212         42.4743 
       0.864097         116.152         40.7604 
       0.879701         114.435         39.1399 
       0.895507          110.73         37.5888 
       0.911279         108.404         36.1254 
        0.92691         105.914         34.7524 
       0.942635         103.726         33.4434 
       0.958396         102.815         32.1995 
       0.974128          100.52         31.0213 
       0.989692         98.2638         29.9139 
        1.00528         96.7818         28.8593 
        1.02113          94.251         27.8391 
        1.03692         94.0366         26.8722 
        1.05264         92.7034         25.9559 
        1.06832         89.6212         25.0839 
        1.08405          88.916         24.2498 
        1.09979         88.1415         23.4533 
        1.11537         85.7222         22.7007 
        1.13105         84.5706         21.9766 
        1.14679         83.2213         21.2815 
        1.16256         81.5371         20.6152 
        1.17828         80.8471         19.9798 
        1.19395         78.6323         19.3733 
         1.2097         78.6566         18.7891 
        1.22537         76.7383         18.2318 
          1.241         76.5235         17.6989 
        1.25666         73.8104         17.1861 
        1.27241         73.5188         16.6912 
        1.28819         72.9146          16.215 
        1.30392         71.4088         15.7589 
        1.31957         70.8798         15.3224 
        1.33529         69.8286         14.9009 
        1.35108         69.2147         14.4936 
        1.36674         68.0719         14.1045 
         1.3824         67.3235         13.7301 
        1.39811         65.8232         13.3681 
        1.41389         64.8688         13.0178 
        1.42964          64.243         12.6807 
        1.44531         63.5657         12.3571 
        1.46101         62.9423         12.0443 
        1.47667         61.9301         11.7432 
        1.49229         61.1603         11.4532 
        1.50793         60.4658         11.1727 
        1.52367         59.9673         10.8999 
        1.53953         58.9788         10.6343 
        1.55526         58.0284         10.3797 
        1.57092         57.8511         10.1346 
        1.58662         56.9915         9.89676 
        1.60235         56.2191         9.66614 
        1.61809         55.2535         9.44277 
        1.63369         54.6266         9.22846 
        1.64941         54.3156         9.01928 
        1.66519         53.0715         8.81584 
        1.68085          52.841         8.62014 
        1.69652         51.7215         8.43034 
        1.71228         51.5222         8.24518 
        1.72806         50.8803         8.06545 
        1.74368          50.182         7.89289 
        1.75933         49.8416         7.72505 
        1.77505         49.3232         7.56131 
        1.79081         48.6345         7.40204 
         1.8065         48.1485         7.24804 
        1.82218         46.9067         7.09857 
        1.83797         46.6357          6.9523 
        1.85367            46.3         6.81096 
        1.86928         45.9713         6.67441 
        1.88497          45.088         6.54086 
        1.90073         44.5477         6.41048 
        1.91647         44.4062         6.28378 
        1.93218         44.1456         6.16078 
        1.94787         43.3577         6.04125 
        1.96363         42.6676         5.92443 
        1.97935         42.3766         5.81094 
        1.99499         41.8608         5.70107 
        2.01064         41.3023         5.59389 
         2.0264         41.1655         5.48879 
        2.04216         40.5571         5.38644 
        2.05781         40.0711         5.28736 
        2.07353         39.4489         5.19042 
        2.08928         39.4248          5.0957 
        2.10499         39.0035          5.0036 
        2.12065         38.4524         4.91406 
        2.13633          38.261         4.82663 
        2.15211         37.6037         4.74077 
        2.16785         37.0643         4.65724 
        2.18349         36.7605         4.57625 
        2.19916         36.3955         4.49701 
        2.21489         36.1638         4.41939 
        2.23063         35.7076         4.34356 
         2.2463         35.4715         4.26984 
        2.26194         34.9306         4.19802 
        2.27765         34.5564         4.12749 
        2.29341         34.1879         4.05839 
        2.30914         33.8595         3.99102 
        2.32486         33.3618         3.92522 
        2.34061         33.1797          3.8608 
        2.35635         32.8684         3.79788 
        2.37203         32.5687         3.73658 
        2.38768          32.278         3.67676 
        2.40339          32.028         3.61803 
        2.41914         31.6602         3.56046 
        2.43483         31.3906         3.50434 
         2.4505         31.0212         3.44952 
        2.46622         30.6424         3.39569 
        2.48195         30.4847           3.343 
        2.49759         29.9851         3.29172 
        2.51328         29.7213         3.24138 
        2.52906         29.5639         3.19177 
        2.54479         29.2132         3.14339 
        2.56049         29.0835          3.0961 
        2.57618         28.6722         3.04983 
        2.59189         28.3646         3.00443 
        2.60758         28.1093         2.96003 
        2.62325         27.8373         2.91658 
        2.63898         27.6957         2.87386 
        2.65468         27.2708         2.83208 
        2.67044         27.0745         2.79095 
        2.68618         26.8202         2.75073 
        2.70184         26.4914         2.71147 
        2.71755         26.2776         2.67287 
        2.73329         25.9999         2.63497 
        2.74897         25.7631         2.59793 
        2.76462         25.5786         2.56168 
        2.78034         25.2301         2.52597 
        2.79607         25.0253         2.49091 
        2.81179         24.8035         2.45655 
        2.82749         24.5619         2.42288 
        2.84321         24.3223          2.3898 
        2.85893         24.1444         2.35735 
        2.87462         23.9205         2.32556 
        2.89033         23.6876         2.29433 
        2.90605         23.4141         2.26364 
        2.92176         23.1732         2.23353 
        2.93747         23.0064         2.20398 
        2.95318         22.8961         2.17496 
        2.96891         22.5794         2.14646 
        2.98456         22.4007         2.11858 
        3.00023         22.0909         2.09117 
        3.01596         21.8039         2.06415 
        3.03164         21.7065         2.03768 
        3.04738         21.5579         2.01161 
         3.0631         21.3393           1.986 
        3.07883         21.0949         1.96083 
        3.09456         20.9017          1.9361 
        3.11026         20.6696         1.91184 
        3.12596         20.4533           1.888 
        3.14163         20.3153         1.86462 
        3.15734         20.1653         1.84157 
        3.17308         19.9383         1.81887 
        3.18879         19.7623         1.79661 
        3.20447         19.6574         1.77475 
         3.2202         19.3797         1.75319 
         3.2359         19.1926         1.73202 
        3.25157          19.024         1.71126 
        3.26729         18.8983         1.69077 
        3.28304         18.7439         1.67058 
        3.29877         18.5913         1.65074 
        3.31446         18.3968         1.63127 
        3.33014         18.1705         1.61214 
        3.34585          18.124         1.59327 
        3.36158         17.8562         1.57469 
        3.37727         17.7499         1.55645 
        3.39294         17.5909         1.53852 
        3.40867         17.4353         1.52081 
        3.42439         17.2302         1.50339 
        3.44008         17.0777         1.48628 
        3.45578         16.9342         1.46942 
        3.47153         16.8169         1.45278 
        3.48724         16.6697         1.43643 
        3.50292         16.5253         1.42037 
        3.51859         16.3812         1.40456 
        3.53431         16.2187         1.38895 
        3.55007         16.0666         1.37353 
        3.56577         15.9778         1.35841 
        3.58146         15.7928         1.34352 
        3.59719         15.6677         1.32882 
        3.61292         15.5376         1.31435 
        3.62859         15.3429         1.30014 
        3.64429         15.2461         1.28612 
        3.66003         15.1528         1.27226 
        3.67578         15.0634         1.25861 
        3.69146          14.878         1.24522 
        3.70712           14.75         1.23204 
        3.72284         14.5986           1.219 
        3.73853         14.5318         1.20618 
        3.75422         14.3108         1.19354 
        3.76993         14.2325         1.18106 
        3.78564         14.1212         1.16877 
        3.80137         13.9859         1.15663 
        3.81707         13.8283         1.14469 
        3.83279         13.7906         1.13291 
        3.84853         13.6376         1.12128 
        3.86424         13.4918         1.10983 
        3.87992          13.428         1.09856 
        3.89561         13.2824         1.08745 
        3.91134         13.2012         1.07647 
        3.92704         13.0727         1.06565 
        3.94273         12.9739         1.05499 
        3.95845         12.8653         1.04445 
        3.97418         12.7271         1.03406 
        3.98988         12.6501         1.02382 
        4.00554         12.5253         1.01375 
        4.02125         12.4313         1.00379 
        4.03698          12.361        0.993944 
        4.05268         12.2199        0.984253 
        4.06839          12.101        0.974684 
         4.0841         12.0259        0.965246 
        4.09983         11.8994        0.955918 
        4.11555         11.8182        0.946718 
        4.13124         11.7051        0.937664 
        4.14693         11.6305        0.928721 
        4.16266         11.5249        0.919874 
        4.17839         11.4246        0.911147 
        4.19408         11.3623        0.902553 
        4.20977         11.2485        0.894066 
        4.22551         11.1683        0.885668 
        4.24123         11.0881        0.877386 
        4.25691         10.9685        0.869233 
        4.27259         10.8771        0.861181 
        4.28831         10.8161        0.853215 
        4.30404         10.7121        0.845341 
        4.31974         10.6365        0.837584 
        4.33543         10.5117        0.829929 
        4.35116         10.4789        0.822351 
        4.36688         10.3647        0.814871 
        4.38255         10.2674        0.807511 
        4.39825         10.2084        0.800226 
        4.41398         10.1363        0.793017 
         4.4297         10.0314        0.785904 
        4.44541         9.98082        0.778879 
        4.46111         9.87708        0.771946 
        4.47683         9.78841        0.765092 
        4.49251         9.71828        0.758335 
        4.50819         9.64731        0.751662 
         4.5239         9.59319        0.745059 
        4.53962          9.4941        0.738527 
        4.55535         9.43172         0.73207 
        4.57106         9.37016          0.7257 
        4.58678          9.2925        0.719404 
         4.6025          9.2245        0.713182 
        4.61821         9.15432        0.707033 
        4.63391         9.05724        0.700966 
         4.6496         8.98721        0.694972 
        4.66532         8.94568        0.689038 
        4.68103         8.83879        0.683177 
        4.69673          8.7885        0.677389 
        4.71241         8.71991        0.671674 
        4.72811         8.64695        0.666016 
        4.74384          8.6092        0.660415 
        4.75955         8.52446        0.654888 
        4.77525         8.46182        0.649426 
        4.79096         8.40169         0.64402 
        4.80669         8.32332        0.638673 
         4.8224         8.26806        0.633393 
        4.83809         8.20974        0.628178 
        4.85379         8.16134        0.623019 
         4.8695         8.08862        0.617913 
        4.88521         8.01115        0.612867 
        4.90093         7.98505        0.607876 
        4.91663         7.90277        0.602945 
        4.93234         7.85212        0.598064 
        4.94807         7.79638        0.593233 
        4.96377         7.73247        0.588465 
        4.97943         7.66917        0.583759 
        4.99514         7.62425        0.579093 
        5.01086         7.56563        0.574474 
        5.02654         7.50617        0.569917 
        5.04227         7.43614        0.565396 
          5.058         7.39724        0.560922 
        5.07371         7.36287        0.556505 
        5.08942         7.26935        0.552135 
        5.10513         7.22574        0.547811 
        5.12084         7.16781        0.543532 
        5.13656         7.12611        0.539299 
        5.15225         7.07622        0.535118 
        5.16796         7.02403        0.530975 
        5.18369         6.97985        0.526872 
         5.1994         6.93755         0.52282 
        5.21509         6.87672        0.518813 
        5.23079         6.80863        0.514845 
        5.24649         6.78351         0.51092 
        5.26217         6.73767         0.50704 
        5.27788          6.6837        0.503194 
        5.29359         6.63942        0.499387 
        5.30933         6.57388        0.495615 
        5.32504         6.54753        0.491887 
        5.34073         6.49322        0.488202 
        5.35646         6.45923        0.484547 
        5.37218         6.41305        0.480929 
        5.38789         6.36156        0.477354 
        5.40357         6.31336        0.473819 
        5.41929         6.28576        0.470312 
        5.43502         6.23266         0.46684 
         5.4507         6.18497        0.463411 
        5.46639         6.13785        0.460016 
        5.48212         6.09587        0.456648 
        5.49786         6.05841        0.453309 
        5.51353         6.02357         0.45002 
        5.52921          5.9767         0.44676 
        5.54495         5.93412        0.443523 
        5.56066             5.9        0.440322 
        5.57637           5.855        0.437152 
        5.59207         5.80126        0.434017 
        5.60778          5.7894        0.430911 
        5.62346         5.73902        0.427839 
        5.63916         5.69795        0.424795 
        5.65487         5.65007        0.421779 
         5.6706         5.62364        0.418789 
        5.68633         5.58521        0.415826 
        5.70203         5.54831        0.412898 
        5.71773         5.50967        0.409999 
        5.73344         5.48043        0.407126 
        5.74916         5.43635        0.404278 
        5.76486         5.40811        0.401461 
        5.78054         5.35846        0.398675 
        5.79626         5.33326        0.395908 
          5.812         5.29172        0.393164 
         5.8277         5.25865        0.390455 
        5.84339         5.22482        0.387771 
        5.85911         5.18936        0.385106 
        5.87484         5.15986        0.382468 
        5.89053         5.11143        0.379859 
        5.90623          5.0929        0.377273 
        5.92195         5.06492        0.374707 
        5.93767          5.0132        0.372167 
        5.95336         4.98647        0.369654 
        5.96905         4.95267        0.367165 
        5.98476         4.92769        0.364695 
        6.00048         4.89609        0.362248 
        6.01617         4.86397        0.359826 
        6.03185         4.84026        0.357429 
        6.04756         4.80921        0.355048 
        6.06331         4.76698        0.352684 
        6.07903          4.7382        0.350346 
        6.09473          4.7113        0.348032 
        6.11044          4.6719        0.345736 
        6.12616         4.64639        0.343462 
        6.14186         4.61599         0.34121 
        6.15755         4.58682        0.338979 
        6.17326          4.5629        0.336765 
        6.18898         4.54124        0.334571 
        6.20467         4.50467          0.3324 
        6.22036         4.48009        0.330248 
         6.2361         4.44434         0.32811 
         6.2518          4.4227        0.325994 
        6.26748         4.39535        0.323901 
        6.28319          4.3699        0.321821 
        6.29893          4.3353        0.319757 
        6.31463          4.3193        0.317715 
        6.33033         4.28929        0.315691 
        6.34604         4.26046        0.313684 
        6.36177         4.23812        0.311692 
        6.37747         4.21277        0.309721 
