# k  (h/Mpc)    Pcb(k)  (Mpc/h)^3    Pcb_linear(k) (Mpc/h)^3   ShotnoiseSubtracted = true
      0.0200456         19312.1         19751.7 
      0.0350414         13745.1         14358.8 
      0.0492313         10238.5         10432.9 
      0.0637834         8843.07         8672.74 
      0.0800726         6981.11         6883.34 
       0.096163         4844.59         4994.46 
       0.111083         3884.29         3983.71 
       0.126058         3579.45         3530.38 
       0.142273         3098.39         2991.01 
       0.158546          2688.2         2362.27 
        0.17375         2148.69         1990.21 
       0.188953         2097.46         1802.09 
       0.204907         1971.11         1594.48 
       0.220756         1702.87         1349.03 
        0.23588         1516.62         1173.54 
         0.2514         1318.86         1066.15 
       0.267535         1314.35         964.681 
       0.283568         1191.21         850.719 
       0.299022         1124.11         757.946 
       0.314451         1070.52         692.712 
       0.330372         983.529         635.485 
       0.346141         929.267           576.8 
       0.361624         892.857         524.232 
       0.377134         829.713         482.376 
       0.392932          797.62         446.333 
       0.408854          777.98         411.433 
       0.424564         722.487         379.224 
       0.440253         710.159         351.584 
       0.455999         678.272         327.551 
       0.471626         650.634         305.464 
        0.48727         624.281         284.803 
       0.502856         607.331         266.243 
       0.518488         600.143         249.682 
       0.534347         561.239         234.286 
       0.550082         543.499          220.09 
       0.565732         542.343         207.103 
       0.581496         510.352         195.209 
       0.597222         501.738           184.3 
       0.612804         490.118          174.27 
       0.628434         474.567          164.92 
       0.644267         461.911         156.179 
       0.660051         447.295         148.123 
       0.675724         443.084         140.684 
       0.691403         428.271          133.75 
       0.707174         413.774         127.244 
       0.722871         409.027         121.196 
        0.73838         402.343         115.607 
       0.754018         391.403         110.327 
       0.769845         382.535          105.32 
        0.78569         378.024          100.62 
       0.801365           367.2          96.253 
       0.817031         355.635         92.1493 
       0.832809         353.396           88.26 
       0.848511         344.484         84.6138 
       0.864097         336.176         81.1995 
       0.879701         331.623         77.9713 
       0.895507         327.197         74.8813 
       0.911279         316.603          71.966 
        0.92691         313.347         69.2308 
       0.942635         305.988         66.6232 
       0.958396         299.292         64.1451 
       0.974128         294.267          61.798 
       0.989692         290.836         59.5921 
        1.00528         284.722          57.491 
        1.02113         282.435         55.4587 
        1.03692         274.775         53.5326 
        1.05264         272.177         51.7072 
        1.06832         265.475         49.9701 
        1.08405         261.075         48.3085 
        1.09979         256.103         46.7218 
        1.11537         252.284         45.2223 
        1.13105         246.541           43.78 
        1.14679         243.696         42.3953 
        1.16256          239.08         41.0679 
        1.17828         236.351          39.802 
        1.19395         231.028         38.5939 
         1.2097         230.135           37.43 
        1.22537         224.581         36.3199 
          1.241         223.306         35.2583 
        1.25666         218.265         34.2366 
        1.27241         215.377         33.2508 
        1.28819         212.443         32.3022 
        1.30392          207.26         31.3936 
        1.31957         207.676          30.524 
        1.33529         202.912         29.6843 
        1.35108         198.228          28.873 
        1.36674         197.192         28.0979 
         1.3824         195.209          27.352 
        1.39811         192.714         26.6308 
        1.41389         188.954          25.933 
        1.42964         186.744         25.2614 
        1.44531         183.946         24.6169 
        1.46101         181.633         23.9936 
        1.47667         178.152         23.3938 
        1.49229         176.486         22.8161 
        1.50793         172.982         22.2574 
        1.52367         171.674         21.7138 
        1.53953         168.822         21.1848 
        1.55526         165.218         20.6776 
        1.57092         164.232         20.1892 
        1.58662         162.034         19.7155 
        1.60235         159.198         19.2561 
        1.61809         158.279         18.8111 
        1.63369         154.885         18.3842 
        1.64941         151.869         17.9675 
        1.66519         151.077         17.5622 
        1.68085         149.389         17.1723 
        1.69652          147.02         16.7942 
        1.71228         144.259         16.4254 
        1.72806         142.629         16.0673 
        1.74368         141.404         15.7236 
        1.75933         138.676         15.3892 
        1.77505         137.349          15.063 
        1.79081         136.255         14.7457 
         1.8065         134.422         14.4389 
        1.82218          131.83         14.1412 
        1.83797         130.903         13.8498 
        1.85367         129.105         13.5682 
        1.86928         126.822         13.2962 
        1.88497         124.953         13.0302 
        1.90073         123.722         12.7704 
        1.91647         122.177          12.518 
        1.93218         120.595          12.273 
        1.94787         118.899         12.0349 
        1.96363         117.222         11.8022 
        1.97935         115.538         11.5761 
        1.99499         113.926         11.3572 
        2.01064         112.698         11.1437 
         2.0264         111.077         10.9343 
        2.04216         109.885         10.7304 
        2.05781         108.814          10.533 
        2.07353         107.813         10.3399 
        2.08928         105.399         10.1512 
        2.10499         104.121         9.96775 
        2.12065          102.85         9.78937 
        2.13633         102.231         9.61521 
        2.15211         100.176         9.44416 
        2.16785         98.6649         9.27776 
        2.18349         97.8881         9.11641 
        2.19916         96.8304         8.95857 
        2.21489         95.5624         8.80394 
        2.23063         94.0934         8.65287 
         2.2463          92.966         8.50602 
        2.26194         92.1385         8.36295 
        2.27765         90.8662         8.22244 
        2.29341         89.9877         8.08479 
        2.30914         88.7476         7.95058 
        2.32486         87.9793          7.8195 
        2.34061         86.7069         7.69116 
        2.35635           85.24         7.56581 
        2.37203         84.2274          7.4437 
        2.38768         83.4742         7.32453 
        2.40339         82.5409         7.20754 
        2.41914         81.2947         7.09284 
        2.43483         80.4237         6.98104 
         2.4505         79.4164         6.87184 
        2.46622         78.2169         6.76461 
        2.48195          77.403         6.65965 
        2.49759         76.5033         6.55748 
        2.51328         75.9627          6.4572 
        2.52906         74.6236         6.35837 
        2.54479          73.926         6.26199 
        2.56049         73.1312         6.16779 
        2.57618         72.3912         6.07561 
        2.59189         71.3904         5.98518 
        2.60758         70.7284         5.89673 
        2.62325         69.7276         5.81017 
        2.63898         68.9024         5.72506 
        2.65468         68.0978         5.64183 
        2.67044         67.3264         5.55989 
        2.68618         66.6256         5.47978 
        2.70184         66.2166         5.40156 
        2.71755         65.3113         5.32467 
        2.73329         64.5684         5.24917 
        2.74897         63.8048         5.17537 
        2.76462          63.075         5.10316 
        2.78034         62.3842         5.03203 
        2.79607         61.4164         4.96218 
        2.81179         60.9614         4.89374 
        2.82749         60.1455         4.82666 
        2.84321         59.6932         4.76077 
        2.85893         58.9253         4.69612 
        2.87462         58.1958         4.63279 
        2.89033          57.616         4.57057 
        2.90605         56.8512         4.50944 
        2.92176         56.5176         4.44945 
        2.93747         56.0384         4.39059 
        2.95318         55.3044         4.33278 
        2.96891         54.6918         4.27599 
        2.98456         54.0968         4.22046 
        3.00023          53.313         4.16584 
        3.01596         52.8745         4.11202 
        3.03164         52.2191          4.0593 
        3.04738         51.6824         4.00736 
         3.0631         51.1577         3.95634 
        3.07883         50.5665          3.9062 
        3.09456         50.1513         3.85694 
        3.11026         49.4134         3.80861 
        3.12596          48.963         3.76111 
        3.14163         48.4701         3.71453 
        3.15734         48.1231         3.66863 
        3.17308         47.5061          3.6234 
        3.18879         47.1752         3.57905 
        3.20447         46.2626         3.53551 
         3.2202         46.1443         3.49256 
         3.2359         45.6222         3.45039 
        3.25157         45.1236         3.40903 
        3.26729         44.7331         3.36822 
        3.28304          44.247         3.32799 
        3.29877         43.8192         3.28848 
        3.31446         43.1896         3.24969 
        3.33014         42.9143         3.21156 
        3.34585         42.7204         3.17399 
        3.36158         42.1813         3.13696 
        3.37727         41.6672         3.10063 
        3.39294          41.282         3.06492 
        3.40867         40.8134         3.02964 
        3.42439          40.308         2.99493 
        3.44008         39.9747         2.96084 
        3.45578         39.5569         2.92725 
        3.47153         39.1558         2.89411 
        3.48724         38.8654         2.86153 
        3.50292         38.5467         2.82954 
        3.51859          38.044         2.79805 
        3.53431         37.6378         2.76694 
        3.55007         37.2219         2.73623 
        3.56577         36.9257         2.70611 
        3.58146          36.555         2.67645 
        3.59719         36.1844         2.64717 
        3.61292         35.8523         2.61833 
        3.62859         35.5773         2.59003 
        3.64429         35.2622          2.5621 
        3.66003         34.8484          2.5345 
        3.67578         34.4057         2.50731 
        3.69146         34.1786         2.48062 
        3.70712         33.8629         2.45437 
        3.72284         33.5139          2.4284 
        3.73853         33.2039         2.40285 
        3.75422         32.8866         2.37766 
        3.76993         32.6715         2.35281 
        3.78564         32.3259         2.32832 
        3.80137         31.9848         2.30415 
        3.81707         31.6457         2.28036 
        3.83279         31.4431          2.2569 
        3.84853         31.1601         2.23372 
        3.86424         30.7335         2.21092 
        3.87992         30.5703         2.18847 
        3.89561         30.2688         2.16632 
        3.91134         29.8867         2.14444 
        3.92704         29.7246         2.12289 
        3.94273         29.3601         2.10165 
        3.95845         29.1393         2.08067 
        3.97418         28.8861         2.05997 
        3.98988          28.595         2.03958 
        4.00554         28.2805         2.01951 
        4.02125         28.0982         1.99967 
        4.03698         27.8341         1.98005 
        4.05268         27.6625         1.96075 
        4.06839         27.3451         1.94168 
         4.0841         27.1525         1.92288 
        4.09983         26.8101          1.9043 
        4.11555         26.5966         1.88597 
        4.13124         26.4007         1.86794 
        4.14693         26.1341         1.85012 
        4.16266         25.9016          1.8325 
        4.17839         25.6544         1.81511 
        4.19408         25.4128         1.79799 
        4.20977         25.2108         1.78108 
        4.22551         25.0263         1.76435 
        4.24123         24.7989         1.74786 
        4.25691         24.5729         1.73161 
        4.27259         24.4251         1.71557 
        4.28831         24.0944          1.6997 
        4.30404         23.9718         1.68402 
        4.31974         23.7412         1.66857 
        4.33543         23.5251         1.65332 
        4.35116         23.4309         1.63822 
        4.36688         23.1706         1.62332 
        4.38255          22.913         1.60866 
        4.39825         22.7513         1.59414 
        4.41398         22.4758         1.57978 
         4.4297         22.3155         1.56561 
        4.44541         22.1743         1.55162 
        4.46111         22.0019         1.53781 
        4.47683         21.8042         1.52415 
        4.49251         21.6166         1.51069 
        4.50819         21.4026          1.4974 
         4.5239         21.2731         1.48424 
        4.53962         21.0783         1.47123 
        4.55535         20.9461         1.45837 
        4.57106         20.7139         1.44568 
        4.58678         20.5777         1.43314 
         4.6025         20.4159         1.42074 
        4.61821          20.282         1.40849 
        4.63391         20.0245         1.39641 
         4.6496         19.8955         1.38446 
        4.66532         19.7466         1.37264 
        4.68103         19.5629         1.36097 
        4.69673         19.4014         1.34944 
        4.71241           19.25         1.33805 
        4.72811         19.0853         1.32678 
        4.74384         18.9516         1.31562 
        4.75955         18.7976         1.30461 
        4.77525         18.6197         1.29373 
        4.79096         18.5081         1.28296 
        4.80669         18.3266         1.27231 
         4.8224         18.1605         1.26179 
        4.83809         18.0377          1.2514 
        4.85379          17.835         1.24113 
         4.8695         17.7696         1.23095 
        4.88521          17.617          1.2209 
        4.90093         17.4686         1.21096 
        4.91663         17.3041         1.20114 
        4.93234         17.2045         1.19141 
        4.94807         17.0421         1.18179 
        4.96377         16.9286         1.17229 
        4.97943         16.8103         1.16292 
        4.99514         16.6783         1.15362 
        5.01086         16.5403         1.14442 
        5.02654         16.3981         1.13534 
        5.04227         16.2834         1.12633 
          5.058         16.1464         1.11742 
        5.07371         16.0282         1.10862 
        5.08942         15.9139         1.09992 
        5.10513         15.8106          1.0913 
        5.12084         15.6735         1.08278 
        5.13656         15.5141         1.07435 
        5.15225         15.4268         1.06602 
        5.16796         15.3278         1.05776 
        5.18369         15.2125         1.04959 
         5.1994         15.0953         1.04152 
        5.21509          14.975         1.03354 
        5.23079         14.8704         1.02563 
        5.24649         14.7623         1.01781 
        5.26217         14.6302         1.01008 
        5.27788         14.5223         1.00242 
        5.29359         14.4091        0.994838 
        5.30933         14.2928        0.987322 
        5.32504         14.1962        0.979896 
        5.34073         14.0881        0.972555 
        5.35646         14.0021        0.965274 
        5.37218         13.8879        0.958066 
        5.38789         13.7791        0.950944 
        5.40357         13.6953        0.943902 
        5.41929         13.5766        0.936916 
        5.43502         13.4623        0.929999 
         5.4507         13.3824        0.923169 
        5.46639         13.2757        0.916406 
        5.48212         13.1573        0.909695 
        5.49786         13.1227        0.903044 
        5.51353           12.99        0.896492 
        5.52921         12.9271        0.889998 
        5.54495         12.8178        0.883549 
        5.56066         12.7253        0.877172 
        5.57637         12.6239        0.870858 
        5.59207         12.5316        0.864612 
        5.60778         12.4434        0.858424 
        5.62346         12.3655        0.852306 
        5.63916         12.2405        0.846242 
        5.65487         12.1807        0.840233 
         5.6706         12.0697        0.834276 
        5.68633          11.981        0.828374 
        5.70203         11.9326        0.822541 
        5.71773         11.8231        0.816766 
        5.73344         11.7461        0.811042 
        5.74916         11.6817        0.805369 
        5.76486         11.5761        0.799757 
        5.78054         11.4994        0.794207 
        5.79626         11.3936        0.788695 
          5.812         11.3447        0.783229 
         5.8277         11.2532        0.777831 
        5.84339         11.1681        0.772484 
        5.85911         11.0838        0.767177 
        5.87484         11.0079         0.76192 
        5.89053         10.9388        0.756723 
        5.90623         10.8507        0.751573 
        5.92195         10.7801        0.746461 
        5.93767         10.7051        0.741399 
        5.95336         10.6452        0.736393 
        5.96905         10.5542        0.731435 
        5.98476         10.5096        0.726515 
        6.00048         10.3978        0.721639 
        6.01617         10.3582        0.716815 
        6.03185         10.2805         0.71204 
        6.04756         10.2015        0.707297 
        6.06331         10.1358        0.702588 
        6.07903         10.0659        0.697931 
        6.09473         9.99343         0.69332 
        6.11044         9.93918        0.688747 
        6.12616         9.87683        0.684216 
        6.14186         9.79275         0.67973 
        6.15755         9.72557        0.675285 
        6.17326         9.65637        0.670876 
        6.18898         9.61484        0.666504 
        6.20467         9.52866        0.662179 
        6.22036         9.47399        0.657893 
         6.2361         9.40544        0.653633 
         6.2518         9.34203        0.649417 
        6.26748         9.27877        0.645248 
        6.28319         9.23505        0.641104 
        6.29893         9.16825        0.636993 
        6.31463         9.08856        0.632925 
        6.33033         9.03301        0.628894 
        6.34604         8.97563        0.624895 
        6.36177         8.91981        0.620927 
        6.37747         8.87252           0.617 
