# k  (h/Mpc)    Pcb(k)  (Mpc/h)^3    Pcb_linear(k) (Mpc/h)^3   ShotnoiseSubtracted = true
      0.0200456         12230.2         12470.8 
      0.0350414         8778.38         9065.83 
      0.0492313         6520.39         6587.06 
      0.0637834         5583.17         5475.76 
      0.0800726         4416.46         4345.98 
       0.096163         3082.83         3153.38 
       0.111083         2454.55         2515.22 
       0.126058         2262.07            2229 
       0.142273         1954.72         1888.45 
       0.158546         1643.54         1491.48 
        0.17375         1317.34         1256.57 
       0.188953          1273.5          1137.8 
       0.204907         1196.24         1006.72 
       0.220756         1019.28         851.744 
        0.23588         898.645         740.944 
         0.2514         783.799          673.14 
       0.267535         766.473         609.076 
       0.283568         694.879         537.123 
       0.299022         648.991         478.549 
       0.314451         611.403         437.361 
       0.330372         563.607          401.23 
       0.346141         513.842         364.177 
       0.361624         494.096         330.987 
       0.377134         459.066         304.561 
       0.392932         437.103         281.804 
       0.408854         419.909         259.769 
       0.424564         397.885         239.433 
       0.440253         385.969         221.982 
       0.455999         363.332         206.808 
       0.471626         340.192         192.863 
        0.48727         329.794         179.818 
       0.502856         319.202         168.099 
       0.518488         315.774         157.643 
       0.534347         296.426         147.923 
       0.550082         279.834          138.96 
       0.565732         276.466          130.76 
       0.581496         261.677          123.25 
       0.597222         256.083         116.363 
       0.612804         247.452          110.03 
       0.628434         238.271         104.126 
       0.644267         230.807         98.6076 
       0.660051         227.548         93.5212 
       0.675724         222.969         88.8244 
       0.691403         216.581         84.4462 
       0.707174         207.798         80.3385 
       0.722871         205.791         76.5204 
        0.73838         201.505         72.9912 
       0.754018         196.044          69.658 
       0.769845         189.708         66.4967 
        0.78569         188.257         63.5289 
       0.801365         182.228         60.7718 
       0.817031         176.514         58.1809 
       0.832809         174.247         55.7253 
       0.848511         169.797         53.4231 
       0.864097         167.398         51.2674 
       0.879701         163.615         49.2292 
       0.895507         159.415         47.2783 
       0.911279         155.608         45.4376 
        0.92691         154.915         43.7106 
       0.942635         151.039         42.0643 
       0.958396         150.646         40.4996 
       0.974128         146.516         39.0178 
       0.989692         142.992          37.625 
        1.00528         140.588         36.2984 
        1.02113          139.77         35.0153 
        1.03692         134.683         33.7992 
        1.05264         133.055         32.6467 
        1.06832         130.428         31.5499 
        1.08405         128.656         30.5008 
        1.09979         128.066          29.499 
        1.11537         123.869         28.5523 
        1.13105         123.215         27.6416 
        1.14679         122.268         26.7673 
        1.16256         120.366         25.9293 
        1.17828         117.602           25.13 
        1.19395         115.993         24.3673 
         1.2097         114.064         23.6324 
        1.22537         113.384         22.9315 
          1.241         110.918         22.2612 
        1.25666         108.967         21.6162 
        1.27241           107.4         20.9937 
        1.28819          105.96         20.3949 
        1.30392         104.565         19.8212 
        1.31957         103.232         19.2721 
        1.33529         101.031          18.742 
        1.35108         99.9026         18.2297 
        1.36674         98.9693         17.7403 
         1.3824         96.9818         17.2694 
        1.39811         96.0777         16.8141 
        1.41389         94.6643         16.3734 
        1.42964         93.1394         15.9494 
        1.44531         91.1376         15.5425 
        1.46101         90.3321          15.149 
        1.47667         89.7305         14.7703 
        1.49229          88.036         14.4055 
        1.50793         87.3436         14.0528 
        1.52367         86.0642         13.7096 
        1.53953         84.6634         13.3756 
        1.55526         83.9079         13.0554 
        1.57092         83.2774          12.747 
        1.58662         81.4654         12.4479 
        1.60235          81.066         12.1578 
        1.61809         79.7139         11.8769 
        1.63369         78.8725         11.6073 
        1.64941         78.1274         11.3442 
        1.66519         76.2769         11.0883 
        1.68085         75.8329         10.8422 
        1.69652         74.2646         10.6035 
        1.71228         74.1377         10.3706 
        1.72806          72.996         10.1445 
        1.74368          72.152         9.92748 
        1.75933          71.045         9.71637 
        1.77505         70.5305         9.51042 
        1.79081          69.345         9.31009 
         1.8065          68.647          9.1164 
        1.82218         67.6251          8.9284 
        1.83797           66.99         8.74442 
        1.85367         66.2456         8.56665 
        1.86928         65.9475          8.3949 
        1.88497         64.6285         8.22693 
        1.90073         63.7041         8.06294 
        1.91647           63.41         7.90358 
        1.93218         62.4468         7.74887 
        1.94787         61.6808         7.59853 
        1.96363         60.8611          7.4516 
        1.97935         60.5674         7.30885 
        1.99499         59.4826         7.17066 
        2.01064         59.1967         7.03585 
         2.0264         57.8569         6.90366 
        2.04216         57.4608         6.77493 
        2.05781         56.7778         6.65031 
        2.07353         56.0136         6.52838 
        2.08928         55.3455         6.40924 
        2.10499         54.9713          6.2934 
        2.12065         54.3157         6.18077 
        2.13633         53.8533         6.07081 
        2.15211         53.4996         5.96282 
        2.16785         52.7008         5.85775 
        2.18349         52.2903         5.75588 
        2.19916          51.565         5.65622 
        2.21489         51.1386          5.5586 
        2.23063          50.534         5.46321 
         2.2463         50.0303          5.3705 
        2.26194         49.1419         5.28016 
        2.27765         48.7813         5.19145 
        2.29341         48.2136         5.10454 
        2.30914         47.5194         5.01981 
        2.32486         46.8054         4.93704 
        2.34061         46.5364         4.85601 
        2.35635         45.9716         4.77687 
        2.37203         45.3887         4.69977 
        2.38768         45.0098         4.62453 
        2.40339         44.5256         4.55067 
        2.41914         44.2069         4.47825 
        2.43483         43.6715         4.40766 
         2.4505         43.2741         4.33872 
        2.46622         42.8018         4.27101 
        2.48195         42.2821         4.20474 
        2.49759         41.7295         4.14024 
        2.51328         41.2343         4.07692 
        2.52906         40.9098         4.01452 
        2.54479         40.4008         3.95367 
        2.56049         39.8434         3.89419 
        2.57618         39.5873         3.83599 
        2.59189         39.0429          3.7789 
        2.60758          38.793         3.72305 
        2.62325         38.2909          3.6684 
        2.63898         37.8935         3.61466 
        2.65468         37.4003         3.56211 
        2.67044         36.9163         3.51038 
        2.68618         36.7053          3.4598 
        2.70184         36.3143         3.41041 
        2.71755          36.061         3.36187 
        2.73329         35.5204          3.3142 
        2.74897         35.1823         3.26761 
        2.76462         34.6813         3.22201 
        2.78034         34.5618          3.1771 
        2.79607         34.1223           3.133 
        2.81179          33.805         3.08979 
        2.82749         33.3435         3.04744 
        2.84321         33.0813         3.00583 
        2.85893         32.7171         2.96502 
        2.87462          32.308         2.92503 
        2.89033         31.9895         2.88575 
        2.90605         31.8024         2.84715 
        2.92176         31.4789         2.80928 
        2.93747         31.1777         2.77211 
        2.95318         30.7564         2.73561 
        2.96891         30.4163         2.69976 
        2.98456         30.1893          2.6647 
        3.00023         29.7948         2.63021 
        3.01596         29.4853         2.59623 
        3.03164         29.3567         2.56295 
        3.04738         29.0317         2.53015 
         3.0631         28.7296         2.49793 
        3.07883         28.4153         2.46628 
        3.09456         28.1522         2.43518 
        3.11026         27.8864         2.40466 
        3.12596         27.6522         2.37467 
        3.14163         27.3084         2.34527 
        3.15734         27.0924         2.31629 
        3.17308         26.7326         2.28773 
        3.18879         26.5648         2.25973 
        3.20447         26.2631         2.23223 
         3.2202         26.0024         2.20512 
         3.2359         25.7337          2.1785 
        3.25157          25.636         2.15238 
        3.26729         25.3518         2.12661 
        3.28304         25.0401         2.10121 
        3.29877         24.7335         2.07626 
        3.31446         24.5504         2.05177 
        3.33014         24.3277          2.0277 
        3.34585         24.1888         2.00398 
        3.36158         23.8177          1.9806 
        3.37727         23.5728         1.95767 
        3.39294         23.4575         1.93512 
        3.40867         23.1806         1.91284 
        3.42439         22.9363         1.89093 
        3.44008         22.7665          1.8694 
        3.45578         22.6132         1.84819 
        3.47153         22.3059         1.82727 
        3.48724         22.1186          1.8067 
        3.50292         21.9989          1.7865 
        3.51859          21.691         1.76662 
        3.53431         21.5238         1.74698 
        3.55007         21.2724         1.72759 
        3.56577         21.0683         1.70857 
        3.58146         20.9833         1.68984 
        3.59719         20.6865         1.67136 
        3.61292         20.5435         1.65315 
        3.62859         20.3049         1.63529 
        3.64429         20.1305         1.61765 
        3.66003         19.9799         1.60022 
        3.67578         19.7335         1.58305 
        3.69146         19.6383          1.5662 
        3.70712         19.4131         1.54963 
        3.72284         19.2809         1.53323 
        3.73853          19.056          1.5171 
        3.75422         18.8921          1.5012 
        3.76993         18.7253         1.48551 
        3.78564         18.5332         1.47005 
        3.80137         18.4029         1.45478 
        3.81707         18.2252         1.43977 
        3.83279         18.0604         1.42495 
        3.84853         17.8806         1.41032 
        3.86424         17.7333         1.39592 
        3.87992         17.5753         1.38174 
        3.89561         17.3947         1.36777 
        3.91134         17.2904         1.35395 
        3.92704          17.125         1.34034 
        3.94273         16.9699         1.32693 
        3.95845          16.772         1.31369 
        3.97418         16.6911         1.30061 
        3.98988         16.4985         1.28774 
        4.00554         16.3732         1.27507 
        4.02125         16.2378         1.26254 
        4.03698         16.0816         1.25016 
        4.05268         15.9576         1.23797 
        4.06839         15.7747         1.22593 
         4.0841         15.7099         1.21406 
        4.09983         15.4907         1.20233 
        4.11555         15.4172         1.19076 
        4.13124         15.2838         1.17937 
        4.14693         15.1334         1.16812 
        4.16266         14.9968         1.15699 
        4.17839         14.8813         1.14602 
        4.19408         14.7277         1.13521 
        4.20977         14.6348         1.12453 
        4.22551         14.4981         1.11397 
        4.24123         14.3994         1.10355 
        4.25691         14.3013          1.0933 
        4.27259         14.1375         1.08317 
        4.28831         13.9738         1.07315 
        4.30404         13.9214         1.06325 
        4.31974         13.7885         1.05349 
        4.33543         13.6823         1.04386 
        4.35116         13.5493         1.03433 
        4.36688         13.4577         1.02492 
        4.38255         13.3189         1.01567 
        4.39825         13.2381          1.0065 
        4.41398         13.1201        0.997436 
         4.4297         12.9831         0.98849 
        4.44541         12.9044        0.979654 
        4.46111         12.8104        0.970934 
        4.47683         12.6877        0.962313 
        4.49251         12.5837        0.953815 
        4.50819         12.4881        0.945421 
         4.5239         12.4003        0.937116 
        4.53962         12.2824          0.9289 
        4.55535         12.1828        0.920779 
        4.57106         12.0654        0.912767 
        4.58678         11.9659        0.904848 
         4.6025         11.8759        0.897021 
        4.61821         11.7828        0.889288 
        4.63391         11.7175        0.881657 
         4.6496         11.5882        0.874117 
        4.66532         11.4821        0.866655 
        4.68103         11.3785        0.859282 
        4.69673         11.3401        0.852003 
        4.71241         11.2203        0.844814 
        4.72811         11.1267        0.837697 
        4.74384         11.0441        0.830653 
        4.75955          10.953        0.823701 
        4.77525         10.8762        0.816831 
        4.79096         10.7839        0.810032 
        4.80669         10.7131        0.803307 
         4.8224         10.6361        0.796666 
        4.83809         10.5551        0.790106 
        4.85379         10.4528        0.783617 
         4.8695         10.4162        0.777195 
        4.88521         10.2883        0.770848 
        4.90093         10.2347        0.764571 
        4.91663         10.1285        0.758369 
        4.93234         10.0602        0.752229 
        4.94807         9.98316        0.746153 
        4.96377         9.91065        0.740156 
        4.97943         9.83877        0.734237 
        4.99514         9.76846        0.728368 
        5.01086         9.68719        0.722558 
        5.02654         9.62096        0.716826 
        5.04227         9.55153         0.71114 
          5.058          9.4508        0.705513 
        5.07371         9.40796        0.699957 
        5.08942         9.33438        0.694461 
        5.10513         9.25901        0.689023 
        5.12084         9.19259         0.68364 
        5.13656          9.1285        0.678316 
        5.15225         9.06327        0.673058 
        5.16796         8.98874        0.667846 
        5.18369         8.93377        0.662686 
         5.1994         8.83972        0.657589 
        5.21509         8.80153         0.65255 
        5.23079         8.72642        0.647558 
        5.24649         8.65247        0.642623 
        5.26217         8.59547        0.637742 
        5.27788         8.53031        0.632904 
        5.29359         8.47294        0.628116 
        5.30933         8.39143        0.623371 
        5.32504         8.34095        0.618683 
        5.34073         8.29365        0.614048 
        5.35646         8.21561        0.609451 
        5.37218         8.15874          0.6049 
        5.38789         8.11201        0.600403 
        5.40357         8.06484        0.595957 
        5.41929         7.99034        0.591546 
        5.43502         7.92425        0.587179 
         5.4507         7.87689        0.582867 
        5.46639         7.81878        0.578597 
        5.48212         7.76734         0.57436 
        5.49786         7.72168         0.57016 
        5.51353         7.65285        0.566023 
        5.52921         7.61054        0.561923 
        5.54495         7.56039        0.557852 
        5.56066         7.49315        0.553825 
        5.57637         7.43757        0.549839 
        5.59207         7.39837        0.545895 
        5.60778         7.33315        0.541988 
        5.62346         7.28371        0.538125 
        5.63916         7.23498        0.534296 
        5.65487         7.18689        0.530503 
         5.6706          7.1227        0.526741 
        5.68633         7.08293        0.523015 
        5.70203         7.03183        0.519333 
        5.71773         6.97655        0.515686 
        5.73344         6.93741        0.512073 
        5.74916         6.90099         0.50849 
        5.76486         6.86357        0.504947 
        5.78054          6.7948        0.501443 
        5.79626         6.74572        0.497963 
          5.812         6.69883        0.494512 
         5.8277         6.66126        0.491104 
        5.84339         6.61319        0.487728 
        5.85911         6.57238        0.484377 
        5.87484         6.53235        0.481058 
        5.89053          6.4866        0.477777 
        5.90623         6.43228        0.474525 
        5.92195         6.38827        0.471297 
        5.93767         6.35401        0.468102 
        5.95336         6.31202        0.464941 
        5.96905         6.26092         0.46181 
        5.98476         6.22748        0.458704 
        6.00048         6.19428        0.455626 
        6.01617         6.14561        0.452579 
        6.03185         6.09566        0.449565 
        6.04756         6.06662         0.44657 
        6.06331         6.02822        0.443597 
        6.07903         5.98769        0.440657 
        6.09473         5.93975        0.437746 
        6.11044         5.89192        0.434858 
        6.12616         5.86463        0.431998 
        6.14186         5.83802        0.429165 
        6.15755         5.79582        0.426359 
        6.17326         5.73938        0.423575 
        6.18898         5.70806        0.420815 
        6.20467         5.67726        0.418084 
        6.22036         5.64269        0.415378 
         6.2361         5.59533        0.412688 
         6.2518         5.56147        0.410026 
        6.26748         5.53175        0.407394 
        6.28319         5.49141        0.404778 
        6.29893         5.46008        0.402182 
        6.31463         5.43158        0.399614 
        6.33033         5.38954        0.397068 
        6.34604         5.35061        0.394543 
        6.36177         5.32208        0.392038 
        6.37747         5.29665        0.389559 
