# k  (h/Mpc)    Pcb(k)  (Mpc/h)^3    Pcb_linear(k) (Mpc/h)^3   ShotnoiseSubtracted = true
      0.0200456         19976.6         20442.1 
      0.0350414         13880.1         14494.2 
      0.0492313         10235.7         10425.2 
      0.0637834         8914.04         8750.76 
      0.0800726         7022.49         6925.59 
       0.096163         4811.92         4946.49 
       0.111083          3866.5         3955.96 
       0.126058          3590.4         3550.09 
       0.142273         3101.35         2993.05 
       0.158546         2676.53         2338.89 
        0.17375         2143.08          1981.6 
       0.188953         2099.62         1810.21 
       0.204907         1970.62         1596.93 
       0.220756         1699.74         1342.02 
        0.23588         1516.22         1171.29 
         0.2514         1319.81         1071.25 
       0.267535         1315.24         968.496 
       0.283568         1192.18         850.535 
       0.299022          1125.7         759.099 
       0.314451         1072.14         696.897 
       0.330372         985.173          639.52 
       0.346141         931.189         579.287 
       0.361624         895.977         526.872 
       0.377134         832.739         486.159 
       0.392932          799.91          450.27 
       0.408854         781.472         414.778 
       0.424564         725.115         382.441 
       0.440253         713.176         355.166 
       0.455999         680.999         331.246 
       0.471626          654.46         308.932 
        0.48727         627.607         288.126 
       0.502856         610.336         269.619 
       0.518488           603.5         253.096 
       0.534347         564.378         237.604 
       0.550082           546.8         223.305 
       0.565732         545.864          210.28 
       0.581496          513.77         198.362 
       0.597222         504.733         187.388 
       0.612804         493.125         177.279 
       0.628434         477.589         167.866 
       0.644267         464.992         159.072 
       0.660051         450.455         150.961 
       0.675724         446.098         143.466 
       0.691403         431.181         136.473 
       0.707174         416.824         129.908 
       0.722871         411.965         123.802 
        0.73838         405.192         118.155 
       0.754018         394.272         112.818 
       0.769845         385.263         107.755 
        0.78569         380.753         102.999 
       0.801365         369.962         98.5788 
       0.817031         358.347         94.4236 
       0.832809         355.976         90.4839 
       0.848511         347.229          86.789 
       0.864097         338.596         83.3279 
       0.879701         334.073         80.0541 
       0.895507         329.607         76.9192 
       0.911279         318.938         73.9603 
        0.92691         315.973          71.183 
       0.942635         308.256         68.5343 
       0.958396         301.723          66.016 
       0.974128         296.594         63.6298 
       0.989692         293.381         61.3862 
        1.00528         287.209         59.2483 
        1.02113         284.809         57.1795 
        1.03692         277.104         55.2179 
        1.05264         274.489         53.3582 
        1.06832         267.671         51.5876 
        1.08405         263.398         49.8934 
        1.09979         258.211         48.2748 
        1.11537         254.344         46.7447 
        1.13105         248.779         45.2723 
        1.14679         245.593         43.8581 
        1.16256         241.191         42.5021 
        1.17828         238.459         41.2083 
        1.19395          232.95         39.9732 
         1.2097         232.099         38.7828 
        1.22537         226.494          37.647 
          1.241          225.16         36.5605 
        1.25666         220.407         35.5145 
        1.27241         217.353         34.5049 
        1.28819         214.286         33.5331 
        1.30392         209.079         32.6018 
        1.31957         209.775         31.7103 
        1.33529         204.868         30.8492 
        1.35108         200.202         30.0168 
        1.36674         199.021         29.2213 
         1.3824         197.204         28.4557 
        1.39811         194.441          27.715 
        1.41389         190.774         26.9982 
        1.42964         188.621          26.308 
        1.44531         185.874         25.6455 
        1.46101         183.302         25.0046 
        1.47667         179.892         24.3877 
        1.49229         178.299         23.7934 
        1.50793         174.593         23.2183 
        1.52367         173.254         22.6587 
        1.53953         170.503         22.1138 
        1.55526         166.909         21.5914 
        1.57092         165.922         21.0881 
        1.58662         163.812         20.5998 
        1.60235         160.789         20.1261 
        1.61809         159.937         19.6671 
        1.63369         156.483         19.2267 
        1.64941         153.396         18.7966 
        1.66519          152.72         18.3782 
        1.68085         150.974         17.9757 
        1.69652         148.671         17.5851 
        1.71228          145.75          17.204 
        1.72806         144.136          16.834 
        1.74368         142.942         16.4786 
        1.75933         140.136         16.1329 
        1.77505         138.914         15.7955 
        1.79081         137.722         15.4672 
         1.8065         135.905         15.1497 
        1.82218         133.444         14.8414 
        1.83797         132.414         14.5397 
        1.85367         130.702         14.2481 
        1.86928          128.25         13.9663 
        1.88497         126.496         13.6906 
        1.90073         125.272         13.4213 
        1.91647         123.622         13.1596 
        1.93218         122.115         12.9055 
        1.94787         120.359         12.6585 
        1.96363           118.7          12.417 
        1.97935         116.928         12.1824 
        1.99499         115.338         11.9551 
        2.01064         113.984         11.7334 
         2.0264         112.517          11.516 
        2.04216         111.175         11.3041 
        2.05781         110.207          11.099 
        2.07353         109.148         10.8983 
        2.08928         106.697         10.7021 
        2.10499         105.609         10.5113 
        2.12065         104.177         10.3258 
        2.13633         103.528         10.1445 
        2.15211          101.45         9.96654 
        2.16785         100.031         9.79333 
        2.18349         99.1443         9.62534 
        2.19916         98.0733         9.46096 
        2.21489         96.7915          9.2999 
        2.23063         95.3395         9.14249 
         2.2463         94.2593         8.98946 
        2.26194         93.2353         8.84033 
        2.27765         92.0865         8.69383 
        2.29341         91.2289         8.55029 
        2.30914         89.9813          8.4103 
        2.32486         89.1181         8.27354 
        2.34061         87.8767         8.13961 
        2.35635         86.4277         8.00879 
        2.37203         85.4041          7.8813 
        2.38768         84.6314         7.75686 
        2.40339         83.6492         7.63468 
        2.41914         82.4385         7.51485 
        2.43483         81.6128         7.39804 
         2.4505         80.4902         7.28391 
        2.46622         79.3076         7.17181 
        2.48195         78.5327         7.06208 
        2.49759          77.563         6.95524 
        2.51328         77.1104         6.85034 
        2.52906         75.7126         6.74695 
        2.54479         74.9691         6.64609 
        2.56049         74.1402          6.5475 
        2.57618          73.421           6.451 
        2.59189         72.4737         6.35631 
        2.60758         71.7982         6.26368 
        2.62325         70.8038         6.17302 
        2.63898          69.911         6.08384 
        2.65468         69.1669         5.99662 
        2.67044         68.3307         5.91075 
        2.68618         67.6439         5.82676 
        2.70184         67.2282         5.74475 
        2.71755         66.2434         5.66412 
        2.73329          65.548         5.58492 
        2.74897         64.7988          5.5075 
        2.76462         64.0349         5.43173 
        2.78034         63.3822         5.35707 
        2.79607         62.3912         5.28375 
        2.81179          61.907         5.21188 
        2.82749          61.043         5.14144 
        2.84321         60.6013         5.07223 
        2.85893          59.839         5.00433 
        2.87462         59.0667         4.93778 
        2.89033         58.4699         4.87239 
        2.90605         57.7198         4.80813 
        2.92176         57.3578         4.74507 
        2.93747         56.8965         4.68318 
        2.95318         56.1275         4.62238 
        2.96891         55.5359         4.56264 
        2.98456          54.909         4.50423 
        3.00023         54.0948         4.44675 
        3.01596         53.6892         4.39011 
        3.03164         52.9888         4.33462 
        3.04738          52.445         4.27992 
         3.0631         51.8968          4.2262 
        3.07883         51.3422          4.1734 
        3.09456           50.87         4.12151 
        3.11026         50.1785         4.07059 
        3.12596         49.6895         4.02054 
        3.14163         49.2048         3.97144 
        3.15734         48.8072         3.92306 
        3.17308          48.204         3.87537 
        3.18879         47.8607         3.82861 
        3.20447         46.9752         3.78269 
         3.2202         46.8276         3.73738 
         3.2359         46.2867          3.6929 
        3.25157         45.7668         3.64925 
        3.26729         45.3492         3.60618 
        3.28304         44.8857         3.56372 
        3.29877         44.4785         3.52201 
        3.31446         43.7962         3.48105 
        3.33014         43.5257         3.44079 
        3.34585         43.3409          3.4011 
        3.36158         42.8133         3.36198 
        3.37727         42.3021          3.3236 
        3.39294         41.9136         3.28586 
        3.40867         41.4125         3.24858 
        3.42439         40.8968         3.21189 
        3.44008         40.5747         3.17584 
        3.45578         40.1281         3.14032 
        3.47153         39.7029         3.10527 
        3.48724         39.4372         3.07082 
        3.50292          39.079         3.03697 
        3.51859         38.6069         3.00366 
        3.53431         38.1847         2.97074 
        3.55007         37.7524         2.93823 
        3.56577         37.4601         2.90634 
        3.58146         37.0895         2.87494 
        3.59719         36.7221         2.84393 
        3.61292         36.3812          2.8134 
        3.62859         36.0869         2.78343 
        3.64429         35.7699         2.75383 
        3.66003         35.3621         2.72458 
        3.67578         34.9173         2.69577 
        3.69146         34.6841         2.66749 
        3.70712         34.3445         2.63966 
        3.72284         33.9776         2.61213 
        3.73853         33.6973         2.58504 
        3.75422         33.3472         2.55833 
        3.76993         33.1354         2.53197 
        3.78564         32.8051         2.50599 
        3.80137          32.404         2.48034 
        3.81707         32.1102         2.45511 
        3.83279         31.8964          2.4302 
        3.84853         31.5847          2.4056 
        3.86424         31.1395          2.3814 
        3.87992         30.9812         2.35756 
        3.89561         30.6894         2.33405 
        3.91134         30.3092         2.31081 
        3.92704         30.1133         2.28792 
        3.94273         29.7665         2.26536 
        3.95845         29.5924         2.24306 
        3.97418          29.256         2.22106 
        3.98988         29.0092         2.19939 
        4.00554         28.6683         2.17807 
        4.02125         28.4504         2.15697 
        4.03698         28.2518         2.13611 
        4.05268          28.026         2.11558 
        4.06839         27.7324         2.09531 
         4.0841         27.5167         2.07531 
        4.09983         27.1802         2.05554 
        4.11555         26.9617         2.03604 
        4.13124         26.7675         2.01685 
        4.14693          26.501         1.99789 
        4.16266          26.242         1.97913 
        4.17839         26.0034         1.96063 
        4.19408         25.7514          1.9424 
        4.20977         25.5565          1.9244 
        4.22551         25.3636         1.90658 
        4.24123         25.1372         1.88901 
        4.25691           24.88         1.87171 
        4.27259         24.7657         1.85462 
        4.28831          24.447         1.83771 
        4.30404          24.302         1.82099 
        4.31974         24.0525         1.80452 
        4.33543         23.8326         1.78827 
        4.35116          23.728         1.77217 
        4.36688         23.4822         1.75629 
        4.38255         23.2068         1.74065 
        4.39825         23.0411         1.72518 
        4.41398         22.7901         1.70986 
         4.4297         22.6235         1.69474 
        4.44541         22.4685         1.67981 
        4.46111          22.293         1.66507 
        4.47683         22.0899          1.6505 
        4.49251         21.9069         1.63614 
        4.50819         21.6967         1.62195 
         4.5239         21.5618          1.6079 
        4.53962          21.334         1.59401 
        4.55535         21.2262         1.58028 
        4.57106         21.0039         1.56672 
        4.58678         20.8471         1.55333 
         4.6025         20.6813         1.54009 
        4.61821          20.557           1.527 
        4.63391         20.2987         1.51408 
         4.6496         20.1536         1.50132 
        4.66532         19.9978         1.48869 
        4.68103         19.8133         1.47621 
        4.69673          19.647         1.46389 
        4.71241         19.5026         1.45171 
        4.72811           19.32         1.43966 
        4.74384         19.1906         1.42773 
        4.75955         19.0456         1.41595 
        4.77525         18.8614         1.40431 
        4.79096         18.7665         1.39279 
        4.80669         18.5642          1.3814 
         4.8224         18.4058         1.37014 
        4.83809         18.2595         1.35903 
        4.85379         18.0732         1.34802 
         4.8695         17.9964         1.33714 
        4.88521         17.8286         1.32638 
        4.90093         17.6872         1.31573 
        4.91663         17.5356         1.30521 
        4.93234         17.4179          1.2948 
        4.94807         17.2668         1.28449 
        4.96377         17.1358         1.27432 
        4.97943          17.023         1.26428 
        4.99514         16.8744         1.25432 
        5.01086         16.7569         1.24446 
        5.02654         16.6067         1.23473 
        5.04227          16.489         1.22507 
          5.058         16.3666         1.21552 
        5.07371         16.2333         1.20609 
        5.08942         16.1296         1.19675 
        5.10513         15.9973         1.18752 
        5.12084         15.8714         1.17838 
        5.13656         15.7143         1.16933 
        5.15225         15.6235          1.1604 
        5.16796         15.5162         1.15155 
        5.18369         15.3975         1.14278 
         5.1994          15.292         1.13411 
        5.21509         15.1582         1.12555 
        5.23079         15.0467         1.11707 
        5.24649         14.9482         1.10868 
        5.26217         14.8031         1.10038 
        5.27788         14.6945         1.09215 
        5.29359         14.5982         1.08401 
        5.30933         14.4503         1.07594 
        5.32504         14.3701         1.06796 
        5.34073         14.2673         1.06008 
        5.35646          14.172         1.05226 
        5.37218         14.0557         1.04452 
        5.38789          13.941         1.03686 
        5.40357         13.8755          1.0293 
        5.41929         13.7583         1.02179 
        5.43502         13.6196         1.01436 
         5.4507         13.5551         1.00702 
        5.46639         13.4342        0.999746 
        5.48212         13.3216        0.992532 
        5.49786         13.2587         0.98538 
        5.51353         13.1439        0.978334 
        5.52921         13.0934        0.971351 
        5.54495         12.9712        0.964415 
        5.56066         12.8843        0.957555 
        5.57637         12.7638        0.950763 
        5.59207         12.6775        0.944043 
        5.60778         12.5974        0.937386 
        5.62346         12.5005        0.930802 
        5.63916         12.3895        0.924276 
        5.65487         12.3245        0.917809 
         5.6706         12.2146        0.911396 
        5.68633         12.1315        0.905043 
        5.70203         12.0659        0.898763 
        5.71773          11.968        0.892545 
        5.73344         11.8858        0.886382 
        5.74916         11.8258        0.880271 
        5.76486         11.7024        0.874227 
        5.78054         11.6361        0.868249 
        5.79626           11.54        0.862311 
          5.812         11.4772        0.856422 
         5.8277          11.385        0.850606 
        5.84339         11.3092        0.844844 
        5.85911         11.2151        0.839124 
        5.87484         11.1369        0.833458 
        5.89053         11.0678        0.827857 
        5.90623         10.9769        0.822304 
        5.92195         10.9126        0.816793 
        5.93767         10.8351        0.811335 
        5.95336         10.7741        0.805937 
        5.96905         10.6889         0.80059 
        5.98476         10.6376        0.795284 
        6.00048         10.5259        0.790024 
        6.01617         10.4766        0.784819 
        6.03185         10.4098        0.779668 
        6.04756         10.3284        0.774551 
        6.06331         10.2656        0.769469 
        6.07903         10.1819        0.764443 
        6.09473         10.1174        0.759467 
        6.11044         10.0586        0.754531 
        6.12616         9.99588         0.74964 
        6.14186         9.91766        0.744797 
        6.15755         9.84904        0.739997 
        6.17326         9.77377        0.735236 
        6.18898         9.73261        0.730515 
        6.20467         9.65443        0.725844 
        6.22036         9.58112        0.721214 
         6.2361         9.52094        0.716613 
         6.2518         9.46073        0.712059 
        6.26748         9.40027        0.707555 
        6.28319         9.34265        0.703077 
        6.29893         9.27898        0.698634 
        6.31463         9.20961        0.694238 
        6.33033         9.14548        0.689881 
        6.34604         9.09683        0.685558 
        6.36177         9.02284        0.681269 
        6.37747         8.98456        0.677024 
