# k  (h/Mpc)    Pcb(k)  (Mpc/h)^3    Pcb_linear(k) (Mpc/h)^3   ShotnoiseSubtracted = true
      0.0200456         28490.5           29060 
      0.0350414         21331.8         20604.6 
      0.0492313         14412.9         14820.2 
      0.0637834         11701.3         12439.9 
      0.0800726         9144.11         9845.26 
       0.096163         7356.52         7031.81 
       0.111083         5992.89         5623.71 
       0.126058          4981.9         5046.73 
       0.142273         4382.29         4254.85 
       0.158546         3573.44         3324.92 
        0.17375         3238.86         2816.99 
       0.188953         3115.94         2573.36 
       0.204907         2679.67         2270.16 
       0.220756         2438.42         1907.79 
        0.23588          2179.1         1665.08 
         0.2514         1991.03         1522.87 
       0.267535         1909.49         1376.79 
       0.283568         1722.24          1209.1 
       0.299022         1637.02         1079.12 
       0.314451         1711.16         990.693 
       0.330372          1547.3         909.127 
       0.346141          1424.6         823.501 
       0.361624         1363.99          748.99 
       0.377134         1320.23         691.113 
       0.392932         1244.28         640.094 
       0.408854         1205.84         589.639 
       0.424564         1181.01         543.669 
       0.440253         1112.15         504.896 
       0.455999         1062.18         470.892 
       0.471626         1071.58         439.171 
        0.48727         1017.32         409.593 
       0.502856         997.331         383.284 
       0.518488         953.505         359.796 
       0.534347         927.933         337.773 
       0.550082         890.384         317.446 
       0.565732         869.597         298.929 
       0.581496          850.86         281.987 
       0.597222         841.531         266.387 
       0.612804         817.005         252.016 
       0.628434          787.19         238.635 
       0.644267           767.7         226.133 
       0.660051         757.984         214.603 
       0.675724         746.623         203.947 
       0.691403         716.414         194.007 
       0.707174         701.988         184.674 
       0.722871         701.141         175.994 
        0.73838         675.671         167.966 
       0.754018         668.224          160.38 
       0.769845         654.794         153.182 
        0.78569           640.4         146.421 
       0.801365         623.671         140.137 
       0.817031         614.048          134.23 
       0.832809         602.243          128.63 
       0.848511         589.529         123.377 
       0.864097         582.155         118.457 
       0.879701         584.649         113.803 
       0.895507         563.937         109.347 
       0.911279         559.204          105.14 
        0.92691         548.028         101.192 
       0.942635         538.517         97.4269 
       0.958396           529.6         93.8468 
       0.974128         518.263         90.4547 
       0.989692         509.527         87.2652 
        1.00528         499.745          84.226 
        1.02113         490.767         81.2851 
        1.03692         484.338         78.4966 
        1.05264         479.068         75.8528 
        1.06832         469.066         73.3358 
        1.08405         465.163         70.9273 
        1.09979         453.986         68.6264 
        1.11537         444.941         66.4512 
        1.13105         438.699         64.3581 
        1.14679         432.178         62.3477 
        1.16256         428.472           60.42 
        1.17828         421.839         58.5808 
        1.19395         413.889          56.825 
         1.2097         405.271         55.1328 
        1.22537           401.3         53.5182 
          1.241         393.209         51.9736 
        1.25666         387.737         50.4867 
        1.27241         386.544         49.0514 
        1.28819         376.477         47.6699 
        1.30392          372.65          46.346 
        1.31957         365.907         45.0787 
        1.33529         361.435         43.8545 
        1.35108         361.363         42.6712 
        1.36674         351.933         41.5404 
         1.3824         344.062         40.4519 
        1.39811          341.03         39.3991 
        1.41389         336.867           38.38 
        1.42964         330.527         37.3989 
        1.44531         325.752         36.4571 
        1.46101         317.162          35.546 
        1.47667         316.611          34.669 
        1.49229         313.384         33.8241 
        1.50793         305.681         33.0066 
        1.52367         302.001          32.211 
        1.53953         298.107         31.4366 
        1.55526         291.795         30.6939 
        1.57092         289.991         29.9784 
        1.58662         284.839         29.2842 
        1.60235         280.116         28.6108 
        1.61809         277.517         27.9584 
        1.63369         272.167         27.3322 
        1.64941         269.809         26.7208 
        1.66519         265.539         26.1261 
        1.68085          260.76         25.5538 
        1.69652         257.553         24.9986 
        1.71228         254.091         24.4568 
        1.72806          250.45         23.9308 
        1.74368         246.656         23.4256 
        1.75933         244.554         22.9341 
        1.77505         240.182         22.4545 
        1.79081         237.071         21.9878 
         1.8065         235.349         21.5365 
        1.82218         229.779         21.0983 
        1.83797         227.877         20.6693 
        1.85367         224.194         20.2548 
        1.86928         220.326         19.8541 
        1.88497         217.835         19.4622 
        1.90073         215.916         19.0795 
        1.91647         212.566         18.7075 
        1.93218          209.16         18.3462 
        1.94787         205.536          17.995 
        1.96363         204.418         17.6518 
        1.97935         199.883         17.3182 
        1.99499         199.161         16.9952 
        2.01064         194.262           16.68 
         2.0264         193.179         16.3708 
        2.04216         189.768         16.0697 
        2.05781         187.479         15.7781 
        2.07353         185.968         15.4928 
        2.08928         183.968         15.2139 
        2.10499         180.804         14.9426 
        2.12065         178.615         14.6789 
        2.13633         176.083         14.4213 
        2.15211         174.002         14.1682 
        2.16785         172.112          13.922 
        2.18349         168.865         13.6832 
        2.19916         169.097         13.4495 
        2.21489         165.013         13.2205 
        2.23063         163.032         12.9968 
         2.2463         161.368         12.7792 
        2.26194         159.586         12.5672 
        2.27765         157.579          12.359 
        2.29341         155.591         12.1549 
        2.30914         153.587         11.9559 
        2.32486         151.806         11.7615 
        2.34061         149.254         11.5711 
        2.35635         147.248         11.3851 
        2.37203         146.956         11.2039 
        2.38768         144.029          11.027 
        2.40339         142.331         10.8533 
        2.41914         140.685         10.6829 
        2.43483         139.073         10.5169 
         2.4505         137.681         10.3546 
        2.46622         135.702         10.1953 
        2.48195         133.651         10.0393 
        2.49759         132.157         9.88741 
        2.51328         130.446         9.73829 
        2.52906         129.144         9.59131 
        2.54479         127.785         9.44793 
        2.56049         125.913         9.30778 
        2.57618         124.966          9.1706 
        2.59189         123.337         9.03599 
        2.60758         122.691         8.90431 
        2.62325         120.397         8.77543 
        2.63898         118.386         8.64866 
        2.65468         117.457         8.52467 
        2.67044         116.258         8.40259 
        2.68618         114.766          8.2832 
        2.70184         113.786         8.16661 
        2.71755         111.856         8.05199 
        2.73329          110.94          7.9394 
        2.74897         109.083         7.82934 
        2.76462         108.216         7.72162 
        2.78034         107.205         7.61549 
        2.79607          106.09         7.51125 
        2.81179         104.921          7.4091 
        2.82749         103.579         7.30896 
        2.84321         102.242         7.21058 
        2.85893         101.237         7.11404 
        2.87462         99.6434         7.01944 
        2.89033         98.9644         6.92648 
        2.90605         97.7182         6.83513 
        2.92176         96.3735         6.74549 
        2.93747         95.6657          6.6575 
        2.95318         94.5535         6.57108 
        2.96891         93.7037         6.48615 
        2.98456         92.3872         6.40311 
        3.00023         91.6001          6.3214 
        3.01596         90.5201         6.24088 
        3.03164         89.7207         6.16199 
        3.04738         88.6843         6.08424 
         3.0631         87.8877         6.00787 
        3.07883         86.7691         5.93281 
        3.09456         85.8948         5.85905 
        3.11026         85.1227         5.78666 
        3.12596         84.0728          5.7155 
        3.14163          83.026         5.64572 
        3.15734         82.2026         5.57694 
        3.17308         81.2338         5.50914 
        3.18879         80.6223         5.44266 
        3.20447         79.5359         5.37738 
         3.2202         78.8545         5.31298 
         3.2359         78.2635         5.24975 
        3.25157         77.4471          5.1877 
        3.26729         76.6472         5.12647 
        3.28304         75.5995         5.06611 
        3.29877         75.0504         5.00681 
        3.31446         74.3652         4.94859 
        3.33014         73.5489         4.89135 
        3.34585          72.939         4.83493 
        3.36158         72.0811         4.77932 
        3.37727         71.2058         4.72476 
        3.39294         70.6327         4.67111 
        3.40867         69.8946          4.6181 
        3.42439         68.8444         4.56595 
        3.44008         68.2876         4.51471 
        3.45578          67.908         4.46422 
        3.47153         67.1074         4.41439 
        3.48724         66.4271         4.36541 
        3.50292         66.0056          4.3173 
        3.51859         65.3336         4.26993 
        3.53431         64.4161         4.22313 
        3.55007         63.9698         4.17692 
        3.56577         63.4077         4.13159 
        3.58146         62.5767         4.08695 
        3.59719         62.2474         4.04287 
        3.61292         61.6238         3.99946 
        3.62859         60.9788         3.95686 
        3.64429         60.3807         3.91479 
        3.66003         59.9338         3.87321 
        3.67578         59.2567         3.83225 
        3.69146         58.7375         3.79204 
        3.70712         58.0139         3.75248 
        3.72284         57.5219         3.71334 
        3.73853         57.0374         3.67483 
        3.75422         56.5558         3.63686 
        3.76993         56.0095         3.59939 
        3.78564         55.4244         3.56246 
        3.80137         55.0107           3.526 
        3.81707         54.3892         3.49012 
        3.83279         53.7422         3.45472 
        3.84853         53.4526         3.41975 
        3.86424         53.0866         3.38534 
        3.87992         52.4117         3.35145 
        3.89561         52.0405         3.31803 
        3.91134         51.5593         3.28499 
        3.92704         51.0036         3.25245 
        3.94273         50.3792         3.22038 
        3.95845         50.0467         3.18869 
        3.97418         49.6566         3.15741 
        3.98988         49.0287          3.1266 
        4.00554         48.7052         3.09629 
        4.02125         48.0893         3.06629 
        4.03698         47.8233         3.03665 
        4.05268         47.3462         3.00747 
        4.06839         47.0071         2.97865 
         4.0841         46.5799         2.95022 
        4.09983         46.2617         2.92212 
        4.11555         45.7194          2.8944 
        4.13124         45.3755         2.86711 
        4.14693         44.8559         2.84016 
        4.16266         44.7502         2.81349 
        4.17839         44.2271         2.78718 
        4.19408         43.8535         2.76127 
        4.20977         43.3894         2.73568 
        4.22551         43.0001         2.71035 
        4.24123         42.6062         2.68537 
        4.25691         42.2236         2.66078 
        4.27259         41.9168         2.63648 
        4.28831         41.6179         2.61244 
        4.30404         41.2223         2.58868 
        4.31974         40.7819         2.56527 
        4.33543         40.4359         2.54216 
        4.35116         40.1669         2.51928 
        4.36688         39.8217          2.4967 
        4.38255           39.53         2.47447 
        4.39825         39.1608         2.45247 
        4.41398         38.9053         2.43069 
         4.4297         38.4107         2.40921 
        4.44541         38.1224         2.38798 
        4.46111         37.9694         2.36703 
        4.47683         37.5496         2.34632 
        4.49251         37.2613          2.3259 
        4.50819         36.9666         2.30572 
         4.5239         36.6713         2.28576 
        4.53962         36.3712         2.26601 
        4.55535          35.996         2.24649 
        4.57106         35.6827         2.22722 
        4.58678         35.3415         2.20818 
         4.6025          35.036         2.18935 
        4.61821         34.7377         2.17075 
        4.63391         34.5279         2.15239 
         4.6496         34.2325         2.13425 
        4.66532         34.0441         2.11629 
        4.68103         33.7424         2.09855 
        4.69673         33.3623         2.08103 
        4.71241         33.2045         2.06372 
        4.72811         32.9536         2.04659 
        4.74384         32.6115         2.02963 
        4.75955         32.4128         2.01289 
        4.77525         32.1619         1.99634 
        4.79096         31.8891         1.97997 
        4.80669         31.5927         1.96377 
         4.8224         31.4218         1.94776 
        4.83809         31.0751         1.93196 
        4.85379          30.843         1.91632 
         4.8695         30.5835         1.90084 
        4.88521         30.2954         1.88555 
        4.90093         30.1463         1.87041 
        4.91663         29.9205         1.85546 
        4.93234         29.6293         1.84066 
        4.94807          29.415         1.82601 
        4.96377          29.248         1.81154 
        4.97943         28.9595         1.79727 
        4.99514         28.7164         1.78311 
        5.01086         28.4955         1.76909 
        5.02654         28.1978         1.75526 
        5.04227         28.0239         1.74154 
          5.058          27.906         1.72796 
        5.07371         27.6017         1.71455 
        5.08942         27.4757         1.70128 
        5.10513         27.2022         1.68815 
        5.12084         27.0834         1.67515 
        5.13656         26.8494          1.6623 
        5.15225         26.6298          1.6496 
        5.16796         26.3791         1.63701 
        5.18369         26.1965         1.62455 
         5.1994         25.9931         1.61223 
        5.21509         25.7762         1.60006 
        5.23079         25.6007           1.588 
        5.24649         25.3729         1.57607 
        5.26217         25.2177         1.56427 
        5.27788         24.9602         1.55258 
        5.29359         24.7379           1.541 
        5.30933         24.6535         1.52953 
        5.32504         24.4636         1.51819 
        5.34073          24.303         1.50699 
        5.35646         24.1578         1.49587 
        5.37218         23.8954         1.48486 
        5.38789         23.7396         1.47398 
        5.40357         23.5309         1.46323 
        5.41929         23.4018         1.45255 
        5.43502         23.2131         1.44199 
         5.4507         23.0652         1.43155 
        5.46639         22.8295         1.42122 
        5.48212         22.6771         1.41096 
        5.49786         22.4933         1.40079 
        5.51353         22.3513         1.39078 
        5.52921          22.188         1.38085 
        5.54495         22.0361         1.37099 
        5.56066         21.8844         1.36124 
        5.57637         21.7335         1.35158 
        5.59207         21.5942         1.34203 
        5.60778         21.4804         1.33257 
        5.62346         21.2576         1.32321 
        5.63916         21.0968         1.31393 
        5.65487         20.9137         1.30474 
         5.6706         20.7795         1.29562 
        5.68633         20.5931         1.28659 
        5.70203         20.5078         1.27766 
        5.71773         20.3766         1.26882 
        5.73344         20.2102         1.26006 
        5.74916         20.0681         1.25137 
        5.76486         19.9039         1.24278 
        5.78054         19.7823         1.23428 
        5.79626         19.6392         1.22584 
          5.812         19.5404         1.21747 
         5.8277         19.3938          1.2092 
        5.84339         19.2101         1.20101 
        5.85911         19.0947         1.19288 
        5.87484         18.9684         1.18483 
        5.89053         18.8115         1.17686 
        5.90623         18.7037         1.16897 
        5.92195          18.593         1.16113 
        5.93767         18.4191         1.15338 
        5.95336         18.3277          1.1457 
        5.96905          18.199          1.1381 
        5.98476           18.05         1.13056 
        6.00048         17.9173         1.12308 
        6.01617         17.7861         1.11568 
        6.03185         17.7058         1.10836 
        6.04756         17.5599         1.10108 
        6.06331         17.4508         1.09386 
        6.07903         17.3545         1.08671 
        6.09473         17.1687         1.07964 
        6.11044          17.072         1.07262 
        6.12616         16.9721         1.06567 
        6.14186         16.8525         1.05879 
        6.15755         16.7594         1.05196 
        6.17326         16.6471          1.0452 
        6.18898         16.5004         1.03848 
        6.20467         16.3857         1.03184 
        6.22036         16.3205         1.02526 
         6.2361         16.1788         1.01872 
         6.2518         16.0697         1.01225 
        6.26748         15.9659         1.00584 
        6.28319         15.8372        0.999478 
        6.29893         15.7275        0.993163 
        6.31463         15.6484        0.986913 
        6.33033         15.5177        0.980719 
        6.34604         15.4245        0.974574 
        6.36177         15.3246        0.968476 
        6.37747         15.2287        0.962442 
