# k  (h/Mpc)    Pcb(k)  (Mpc/h)^3    Pcb_linear(k) (Mpc/h)^3   ShotnoiseSubtracted = true
      0.0200456          6524.8         6618.31 
      0.0350414         4801.78         4692.63 
      0.0492313         3366.84         3375.24 
      0.0637834         2758.57         2833.14 
      0.0800726         2172.92         2242.22 
       0.096163         1651.39         1601.47 
       0.111083         1338.59         1280.78 
       0.126058         1139.05         1149.37 
       0.142273         968.946         969.027 
       0.158546         784.807         757.237 
        0.17375         681.222          641.56 
       0.188953         625.319         586.073 
       0.204907         531.222         517.021 
       0.220756         471.269         434.492 
        0.23588         416.279         379.216 
         0.2514         374.841         346.827 
       0.267535         357.339         313.559 
       0.283568         311.005         275.368 
       0.299022         292.183         245.765 
       0.314451         284.878         225.627 
       0.330372         247.733          207.05 
       0.346141         228.749         187.549 
       0.361624         215.308          170.58 
       0.377134         197.428         157.398 
       0.392932         192.231         145.779 
       0.408854         180.929         134.288 
       0.424564         172.663         123.819 
       0.440253         156.423         114.988 
       0.455999         146.318         107.244 
       0.471626         142.187         100.019 
        0.48727         137.097         93.2834 
       0.502856          125.48         87.2916 
       0.518488         123.023         81.9421 
       0.534347          115.41         76.9264 
       0.550082         112.417         72.2971 
       0.565732         109.685           68.08 
       0.581496         101.116         64.2215 
       0.597222         98.5157         60.6686 
       0.612804          95.162         57.3956 
       0.628434         92.7822         54.3482 
       0.644267         87.8862          51.501 
       0.660051         84.9968         48.8751 
       0.675724         82.9977         46.4482 
       0.691403         81.3138         44.1844 
       0.707174         78.4448         42.0588 
       0.722871         76.6419          40.082 
        0.73838         73.9925         38.2536 
       0.754018          69.843         36.5259 
       0.769845         69.2897         34.8865 
        0.78569         67.0446         33.3468 
       0.801365         65.1193         31.9158 
       0.817031         62.7969         30.5705 
       0.832809         61.7182          29.295 
       0.848511         60.1654         28.0987 
       0.864097          59.025         26.9782 
       0.879701         57.7863         25.9182 
       0.895507         55.6532         24.9033 
       0.911279         54.6979         23.9453 
        0.92691         53.2038         23.0461 
       0.942635         52.0936         22.1886 
       0.958396          51.805         21.3733 
       0.974128         50.4675         20.6007 
       0.989692         49.0143         19.8743 
        1.00528         48.1798         19.1822 
        1.02113         47.0859         18.5124 
        1.03692         46.7229         17.8773 
        1.05264         45.6125         17.2752 
        1.06832         44.5592          16.702 
        1.08405         43.6467         16.1534 
        1.09979         43.4374         15.6294 
        1.11537         42.1418          15.134 
        1.13105         41.1492         14.6573 
        1.14679         40.6272         14.1995 
        1.16256         40.0574         13.7604 
        1.17828         39.5217         13.3416 
        1.19395         38.5175         12.9417 
         1.2097         38.3569         12.5563 
        1.22537         37.4664         12.1886 
          1.241         36.8542         11.8368 
        1.25666         36.1834         11.4981 
        1.27241         35.9477         11.1713 
        1.28819         34.8426         10.8566 
        1.30392         34.7459         10.5551 
        1.31957         34.2741         10.2665 
        1.33529           33.61         9.98769 
        1.35108         33.0687         9.71821 
        1.36674          32.701         9.46067 
         1.3824         32.1509         9.21277 
        1.39811          31.489         8.97299 
        1.41389         31.1424         8.74089 
        1.42964          30.922         8.51746 
        1.44531         30.2333         8.30297 
        1.46101         30.0216         8.09547 
        1.47667         29.6427         7.89573 
        1.49229         29.0605         7.70331 
        1.50793         28.8131         7.51713 
        1.52367         28.3086         7.33594 
        1.53953         28.1665         7.15956 
        1.55526         27.6649         6.99041 
        1.57092         27.4037         6.82747 
        1.58662         26.9691         6.66937 
        1.60235         26.6076           6.516 
        1.61809         26.3518         6.36741 
        1.63369         26.0872          6.2248 
        1.64941         25.7195         6.08557 
        1.66519         25.3106         5.95012 
        1.68085         24.9102         5.81978 
        1.69652         24.7429         5.69334 
        1.71228         24.5502         5.56995 
        1.72806          24.115         5.45015 
        1.74368         23.8493          5.3351 
        1.75933         23.6375         5.22316 
        1.77505         23.4112         5.11392 
        1.79081         23.1216         5.00764 
         1.8065         22.8286         4.90485 
        1.82218         22.5758         4.80505 
        1.83797          22.443         4.70736 
        1.85367         22.1856         4.61295 
        1.86928          22.066          4.5217 
        1.88497         21.6748         4.43244 
        1.90073          21.437         4.34528 
        1.91647         21.1504         4.26055 
        1.93218         21.2074         4.17827 
        1.94787         20.8356          4.0983 
        1.96363         20.6396         4.02012 
        1.97935         20.3188         3.94415 
        1.99499          20.167         3.87059 
        2.01064         19.9076          3.7988 
         2.0264         19.7464         3.72839 
        2.04216         19.6439         3.65982 
        2.05781         19.3631         3.59341 
        2.07353         19.2084         3.52842 
        2.08928         18.8791          3.4649 
        2.10499         18.7216         3.40313 
        2.12065         18.5685         3.34305 
        2.13633         18.4494         3.28439 
        2.15211         18.1556         3.22676 
        2.16785         18.1302         3.17068 
        2.18349         17.8599         3.11629 
        2.19916         17.6911         3.06307 
        2.21489         17.4818         3.01092 
        2.23063         17.4134         2.95996 
         2.2463         17.1727         2.91042 
        2.26194         17.0289         2.86213 
        2.27765         16.7466          2.8147 
        2.29341         16.6623         2.76823 
        2.30914         16.4783         2.72291 
        2.32486         16.4165         2.67863 
        2.34061         16.2331         2.63527 
        2.35635         16.0254         2.59292 
        2.37203         15.9109         2.55164 
        2.38768         15.7336         2.51135 
        2.40339         15.6861          2.4718 
        2.41914         15.4774           2.433 
        2.43483         15.2868         2.39518 
         2.4505         15.1247         2.35823 
        2.46622          15.085         2.32194 
        2.48195         14.9091         2.28641 
        2.49759            14.7         2.25182 
        2.51328         14.6905         2.21786 
        2.52906         14.5162         2.18438 
        2.54479         14.3529         2.15173 
        2.56049         14.1994         2.11981 
        2.57618         14.1822         2.08857 
        2.59189         14.0193         2.05791 
        2.60758         13.8164         2.02792 
        2.62325         13.7416         1.99857 
        2.63898         13.6841          1.9697 
        2.65468         13.4475         1.94146 
        2.67044         13.3973         1.91366 
        2.68618         13.3045         1.88647 
        2.70184         13.1505         1.85991 
        2.71755         13.0333         1.83381 
        2.73329         12.9165         1.80817 
        2.74897         12.8119          1.7831 
        2.76462         12.7208         1.75857 
        2.78034         12.5808          1.7344 
        2.79607         12.4994         1.71066 
        2.81179         12.3799         1.68739 
        2.82749         12.2813         1.66459 
        2.84321         12.1784         1.64218 
        2.85893         12.0404         1.62019 
        2.87462         11.9979         1.59865 
        2.89033         11.8498         1.57748 
        2.90605          11.781         1.55668 
        2.92176         11.6736         1.53626 
        2.93747         11.5635         1.51622 
        2.95318         11.4701         1.49654 
        2.96891         11.3933          1.4772 
        2.98456           11.27         1.45828 
        3.00023         11.1969         1.43968 
        3.01596         11.1082         1.42134 
        3.03164         11.0325         1.40337 
        3.04738         10.9218         1.38566 
         3.0631         10.7782         1.36827 
        3.07883         10.7257         1.35117 
        3.09456         10.6512         1.33438 
        3.11026         10.5921         1.31789 
        3.12596         10.4899         1.30168 
        3.14163         10.4109         1.28579 
        3.15734         10.3081         1.27013 
        3.17308         10.2443         1.25469 
        3.18879         10.1508         1.23955 
        3.20447         10.0722         1.22468 
         3.2202         9.98146         1.21001 
         3.2359         9.87037         1.19561 
        3.25157         9.84338         1.18148 
        3.26729         9.73664         1.16753 
        3.28304          9.6377         1.15379 
        3.29877         9.60136         1.14028 
        3.31446         9.51712         1.12702 
        3.33014         9.43683         1.11399 
        3.34585         9.35843         1.10114 
        3.36158         9.29873         1.08847 
        3.37727         9.24766         1.07605 
        3.39294         9.15501         1.06383 
        3.40867          9.0998         1.05176 
        3.42439         8.99678         1.03988 
        3.44008         8.93956         1.02821 
        3.45578         8.86043         1.01671 
        3.47153         8.80481         1.00536 
        3.48724         8.71865        0.994206 
        3.50292         8.64292        0.983248 
        3.51859         8.59396         0.97246 
        3.53431         8.50773        0.961802 
        3.55007         8.42774        0.951278 
        3.56577         8.38051        0.940954 
        3.58146         8.32108        0.930788 
        3.59719         8.24131        0.920749 
        3.61292         8.21363        0.910863 
        3.62859          8.1526        0.901159 
        3.64429         8.06703        0.891578 
        3.66003         8.02806        0.882109 
        3.67578         7.93696         0.87278 
        3.69146         7.91563        0.863623 
        3.70712         7.83321        0.854614 
        3.72284         7.76573          0.8457 
        3.73853         7.72614         0.83693 
        3.75422         7.66213        0.828281 
        3.76993          7.5869        0.819747 
        3.78564         7.53096        0.811338 
        3.80137         7.49786        0.803033 
        3.81707          7.4204        0.794863 
        3.83279         7.34899          0.7868 
        3.84853         7.30643        0.778836 
        3.86424         7.27063        0.770998 
        3.87992         7.22043         0.76328 
        3.89561         7.14022        0.755668 
        3.91134         7.07497        0.748145 
        3.92704         7.03288        0.740733 
        3.94273         6.98187        0.733429 
        3.95845         6.94701        0.726211 
        3.97418          6.8821        0.719089 
        3.98988         6.83912        0.712072 
        4.00554         6.78487        0.705168 
        4.02125         6.74869        0.698337 
        4.03698         6.67725        0.691586 
        4.05268         6.62735        0.684939 
        4.06839         6.55767        0.678375 
         4.0841         6.53049          0.6719 
        4.09983         6.47681        0.665501 
        4.11555         6.41579        0.659188 
        4.13124         6.37713        0.652974 
        4.14693         6.32227        0.646835 
        4.16266         6.28816        0.640762 
        4.17839         6.24633         0.63477 
        4.19408         6.19527        0.628869 
        4.20977         6.14607         0.62304 
        4.22551         6.10837        0.617272 
        4.24123         6.05984        0.611583 
        4.25691          6.0144        0.605982 
        4.27259         5.94964        0.600449 
        4.28831         5.92611        0.594974 
        4.30404         5.87165        0.589563 
        4.31974         5.83355        0.584231 
        4.33543         5.78334        0.578968 
        4.35116         5.75053        0.573757 
        4.36688         5.70357        0.568613 
        4.38255          5.6676        0.563552 
        4.39825         5.62509        0.558541 
        4.41398         5.57912        0.553581 
         4.4297          5.5565        0.548688 
        4.44541         5.50141        0.543854 
        4.46111         5.46914        0.539083 
        4.47683         5.43633        0.534365 
        4.49251         5.39687        0.529714 
        4.50819         5.36425         0.52512 
         4.5239         5.31088        0.520573 
        4.53962         5.27815        0.516075 
        4.55535         5.24245        0.511628 
        4.57106         5.19788        0.507241 
        4.58678         5.16927        0.502904 
         4.6025         5.13342        0.498616 
        4.61821         5.10063         0.49438 
        4.63391         5.05405        0.490199 
         4.6496         5.01925        0.486067 
        4.66532          4.9856        0.481977 
        4.68103         4.95189        0.477937 
        4.69673         4.92292        0.473946 
        4.71241         4.88754        0.470005 
        4.72811         4.84462        0.466103 
        4.74384         4.82912         0.46224 
        4.75955         4.78272        0.458427 
        4.77525         4.74395        0.454659 
        4.79096         4.72763         0.45093 
        4.80669         4.69139         0.44724 
         4.8224         4.65525        0.443596 
        4.83809         4.62217        0.439997 
        4.85379         4.58083        0.436435 
         4.8695         4.56423         0.43291 
        4.88521         4.53323        0.429426 
        4.90093         4.49315         0.42598 
        4.91663         4.47261        0.422574 
        4.93234         4.43905        0.419203 
        4.94807         4.41187        0.415866 
        4.96377         4.38495        0.412572 
        4.97943         4.34871         0.40932 
        4.99514          4.3225        0.406096 
        5.01086         4.29799        0.402903 
        5.02654         4.26881        0.399754 
        5.04227          4.2417        0.396629 
          5.058          4.2014        0.393536 
        5.07371         4.17637        0.390482 
        5.08942         4.15569         0.38746 
        5.10513          4.1252         0.38447 
        5.12084          4.1034         0.38151 
        5.13656          4.0733        0.378582 
        5.15225         4.04447         0.37569 
        5.16796         4.02467        0.372823 
        5.18369         3.98904        0.369984 
         5.1994          3.9684         0.36718 
        5.21509         3.93837        0.364407 
        5.23079         3.91152         0.36166 
        5.24649         3.88933        0.358943 
        5.26217         3.85786        0.356257 
        5.27788         3.84499        0.353594 
        5.29359         3.82256        0.350958 
        5.30933         3.80209        0.348345 
        5.32504         3.76872        0.345763 
        5.34073         3.74846         0.34321 
        5.35646         3.72478        0.340678 
        5.37218         3.69847        0.338172 
        5.38789         3.68272        0.335694 
        5.40357         3.65415        0.333244 
        5.41929         3.62867        0.330814 
        5.43502         3.60597        0.328407 
         5.4507         3.58323         0.32603 
        5.46639         3.55636        0.323677 
        5.48212         3.53944        0.321341 
        5.49786         3.51537        0.319026 
        5.51353         3.48892        0.316745 
        5.52921         3.47678        0.314484 
        5.54495         3.45322        0.312238 
        5.56066         3.43621        0.310017 
        5.57637         3.40628        0.307818 
        5.59207          3.3863        0.305642 
        5.60778         3.37271        0.303487 
        5.62346         3.35333        0.301356 
        5.63916         3.32712        0.299243 
        5.65487          3.3064        0.297149 
         5.6706         3.28241        0.295073 
        5.68633         3.27209        0.293016 
        5.70203         3.24918        0.290983 
        5.71773         3.22696        0.288969 
        5.73344         3.20911        0.286974 
        5.74916         3.18808        0.284996 
        5.76486         3.17155        0.283039 
        5.78054         3.15013        0.281103 
        5.79626         3.13326        0.279181 
          5.812         3.10861        0.277274 
         5.8277         3.09251        0.275391 
        5.84339         3.08238        0.273526 
        5.85911         3.05963        0.271674 
        5.87484         3.03731         0.26984 
        5.89053         3.01893        0.268026 
        5.90623          3.0095        0.266228 
        5.92195         2.99055        0.264444 
        5.93767         2.97067        0.262677 
        5.95336         2.95241        0.260929 
        5.96905         2.93361        0.259198 
        5.98476           2.917         0.25748 
        6.00048         2.89955        0.255777 
        6.01617         2.88274        0.254092 
        6.03185         2.86978        0.252424 
        6.04756         2.84663        0.250768 
        6.06331         2.83413        0.249122 
        6.07903         2.81645        0.247495 
        6.09473          2.7994        0.245884 
        6.11044         2.78204        0.244286 
        6.12616         2.77301        0.242703 
        6.14186         2.75396        0.241135 
        6.15755         2.74247        0.239581 
        6.17326         2.72442        0.238039 
        6.18898         2.70372        0.236511 
        6.20467         2.69135        0.234998 
        6.22036         2.67745          0.2335 
         6.2361          2.6612         0.23201 
         6.2518         2.64759        0.230535 
        6.26748         2.63005        0.229077 
        6.28319         2.61783        0.227627 
        6.29893         2.60329        0.226189 
        6.31463         2.59035        0.224766 
        6.33033         2.58103        0.223355 
        6.34604         2.55884        0.221956 
        6.36177         2.55238        0.220567 
        6.37747         2.53392        0.219193 
