# k  (h/Mpc)    Pcb(k)  (Mpc/h)^3    Pcb_linear(k) (Mpc/h)^3   ShotnoiseSubtracted = true
      0.0200456         21476.2         21989.8 
      0.0350414         14898.8         15591.6 
      0.0492313         10991.7         11214.5 
      0.0637834         9586.98         9413.29 
      0.0800726         7549.84         7449.93 
       0.096163         5169.79         5320.99 
       0.111083         4161.12         4255.47 
       0.126058         3861.02         3818.88 
       0.142273         3336.34         3219.66 
       0.158546          2896.3         2515.97 
        0.17375         2319.94         2131.63 
       0.188953         2274.93         1947.27 
       0.204907         2134.95         1717.84 
       0.220756         1845.61         1443.63 
        0.23588         1649.92         1259.97 
         0.2514         1436.87         1152.36 
       0.267535         1435.12         1041.82 
       0.283568         1301.12          914.93 
       0.299022         1230.44         816.571 
       0.314451         1172.35          749.66 
       0.330372         1076.26         687.938 
       0.346141         1025.39         623.145 
       0.361624         986.496         566.762 
       0.377134         917.945         522.967 
       0.392932         880.811          484.36 
       0.408854         863.686         446.181 
       0.424564         799.109         411.396 
       0.440253         785.611         382.056 
       0.455999         754.364         356.325 
       0.471626         726.813         332.321 
        0.48727          696.43          309.94 
       0.502856         676.872         290.032 
       0.518488         669.797         272.258 
       0.534347         627.186         255.593 
       0.550082         610.028         240.212 
       0.565732         608.027           226.2 
       0.581496         573.517          213.38 
       0.597222          562.49         201.576 
       0.612804         550.876         190.701 
       0.628434           534.6         180.576 
       0.644267         520.614         171.116 
       0.660051         504.625         162.391 
       0.675724         499.603         154.327 
       0.691403         482.777         146.806 
       0.707174          466.96         139.743 
       0.722871         461.432         133.175 
        0.73838         453.192           127.1 
       0.754018         442.166          121.36 
       0.769845         433.169         115.913 
        0.78569         426.309         110.797 
       0.801365         415.086         106.042 
       0.817031         402.746         101.572 
       0.832809          399.67         97.3346 
       0.848511         390.657         93.3599 
       0.864097         379.392         89.6368 
       0.879701         374.425         86.1151 
       0.895507         370.901         82.7429 
       0.911279         359.332           79.56 
        0.92691         355.048         76.5724 
       0.942635         346.177         73.7231 
       0.958396         338.185         71.0141 
       0.974128         332.627         68.4473 
       0.989692         329.985         66.0338 
        1.00528         321.771          63.734 
        1.02113         319.742         61.5086 
        1.03692         310.509         59.3986 
        1.05264         308.403          57.398 
        1.06832         300.103         55.4934 
        1.08405         295.784         53.6709 
        1.09979         290.247         51.9298 
        1.11537         285.129         50.2838 
        1.13105         280.011         48.6999 
        1.14679          274.08         47.1787 
        1.16256         269.395           45.72 
        1.17828         267.663         44.3283 
        1.19395          260.83         42.9996 
         1.2097         258.535         41.7191 
        1.22537         252.655         40.4973 
          1.241          251.05         39.3286 
        1.25666         246.092         38.2034 
        1.27241          242.61         37.1173 
        1.28819         238.832         36.0719 
        1.30392         233.106         35.0701 
        1.31957         233.576         34.1112 
        1.33529         228.289         33.1848 
        1.35108         223.133         32.2894 
        1.36674         220.847         31.4337 
         1.3824         219.493         30.6101 
        1.39811         215.805         29.8134 
        1.41389         212.459         29.0422 
        1.42964         210.229         28.2998 
        1.44531         207.044         27.5872 
        1.46101         203.675         26.8978 
        1.47667         200.593         26.2341 
        1.49229         198.691         25.5948 
        1.50793         193.873         24.9762 
        1.52367         192.561         24.3742 
        1.53953         189.736         23.7881 
        1.55526         185.371         23.2261 
        1.57092          184.28         22.6847 
        1.58662         182.172         22.1594 
        1.60235         178.648         21.6499 
        1.61809         177.436         21.1562 
        1.63369         174.015         20.6823 
        1.64941         170.414         20.2197 
        1.66519         169.751         19.7697 
        1.68085         167.331         19.3366 
        1.69652          164.83         18.9165 
        1.71228         161.448         18.5066 
        1.72806         159.812         18.1085 
        1.74368         157.939         17.7262 
        1.75933          154.94         17.3543 
        1.77505          153.84         16.9914 
        1.79081         152.334         16.6382 
         1.8065         149.986         16.2967 
        1.82218         147.988         15.9651 
        1.83797         146.618         15.6405 
        1.85367         144.429         15.3268 
        1.86928         141.825         15.0237 
        1.88497         140.252         14.7271 
        1.90073         138.992         14.4375 
        1.91647         136.978          14.156 
        1.93218         135.513         13.8826 
        1.94787         133.213         13.6169 
        1.96363         131.323         13.3571 
        1.97935         130.077         13.1047 
        1.99499         127.831         12.8603 
        2.01064         126.551         12.6218 
         2.0264         125.002         12.3878 
        2.04216         123.203           12.16 
        2.05781         122.256         11.9393 
        2.07353         120.868         11.7234 
        2.08928         118.326         11.5124 
        2.10499         117.464         11.3071 
        2.12065         115.383         11.1075 
        2.13633         114.706         10.9126 
        2.15211         112.298         10.7211 
        2.16785         110.958         10.5348 
        2.18349         110.062         10.3541 
        2.19916         108.752         10.1773 
        2.21489         107.311          10.004 
        2.23063         105.509         9.83468 
         2.2463         104.519         9.67006 
        2.26194          102.82         9.50964 
        2.27765         101.936         9.35205 
        2.29341         100.856         9.19764 
        2.30914         99.7557         9.04706 
        2.32486         98.4346         8.89994 
        2.34061         97.2332         8.75588 
        2.35635         95.9527         8.61514 
        2.37203         94.6513           8.478 
        2.38768         93.6447         8.34414 
        2.40339         92.6527         8.21271 
        2.41914          91.396         8.08381 
        2.43483         90.6141         7.95815 
         2.4505         89.2556         7.83539 
        2.46622         88.2136          7.7148 
        2.48195         87.0511         7.59676 
        2.49759         85.8265         7.48183 
        2.51328         85.5452         7.36899 
        2.52906         83.9404         7.25777 
        2.54479         83.0441         7.14927 
        2.56049         82.0886         7.04322 
        2.57618         81.1419         6.93941 
        2.59189         80.2898         6.83756 
        2.60758         79.5036         6.73791 
        2.62325         78.4383         6.64039 
        2.63898         77.2303         6.54446 
        2.65468         76.5152         6.45064 
        2.67044         75.6675         6.35826 
        2.68618         74.8157         6.26791 
        2.70184         74.4585         6.17969 
        2.71755         73.1616         6.09296 
        2.73329         72.5399         6.00776 
        2.74897         71.6567         5.92448 
        2.76462         70.6349         5.84297 
        2.78034         70.1543         5.76266 
        2.79607          68.863         5.68378 
        2.81179         68.2588         5.60648 
        2.82749         67.4628         5.53071 
        2.84321         66.9638         5.45626 
        2.85893         66.1773         5.38321 
        2.87462         65.2431         5.31163 
        2.89033         64.4543         5.24129 
        2.90605         63.8205         5.17216 
        2.92176         63.1196         5.10433 
        2.93747         62.7066         5.03775 
        2.95318         61.8277         4.97235 
        2.96891         61.4221         4.90809 
        2.98456         60.7932         4.84525 
        3.00023         59.7751         4.78342 
        3.01596          59.397         4.72249 
        3.03164         58.4978         4.66279 
        3.04738         58.1014         4.60396 
         3.0631         57.3601         4.54617 
        3.07883         56.8482         4.48937 
        3.09456         56.1666         4.43355 
        3.11026         55.4676         4.37878 
        3.12596         54.8848         4.32494 
        3.14163         54.3933         4.27213 
        3.15734         53.9006         4.22008 
        3.17308         53.0986         4.16878 
        3.18879         52.8661         4.11848 
        3.20447         51.9742         4.06908 
         3.2202         51.6983         4.02034 
         3.2359         51.0005         3.97249 
        3.25157         50.4602         3.92554 
        3.26729         50.0434         3.87921 
        3.28304         49.5794         3.83354 
        3.29877         49.0715         3.78866 
        3.31446         48.2991         3.74461 
        3.33014         48.0132         3.70129 
        3.34585         47.6374          3.6586 
        3.36158          47.097         3.61652 
        3.37727         46.7267         3.57524 
        3.39294         46.2667         3.53464 
        3.40867         45.7055         3.49453 
        3.42439         45.1624         3.45507 
        3.44008         44.8295         3.41629 
        3.45578         44.2993         3.37808 
        3.47153         43.8866         3.34038 
        3.48724         43.4315         3.30332 
        3.50292         43.1392         3.26691 
        3.51859         42.6138         3.23107 
        3.53431         42.2727         3.19565 
        3.55007         41.6949         3.16069 
        3.56577          41.424         3.12638 
        3.58146         40.9277         3.09261 
        3.59719         40.6159         3.05925 
        3.61292         40.0679          3.0264 
        3.62859         39.8304         2.99416 
        3.64429         39.4454         2.96233 
        3.66003         39.0741         2.93087 
        3.67578         38.5835         2.89987 
        3.69146         38.3027         2.86945 
        3.70712         37.9314         2.83951 
        3.72284          37.444          2.8099 
        3.73853         37.1947         2.78076 
        3.75422         36.6936         2.75202 
        3.76993         36.5602         2.72367 
        3.78564         36.1832         2.69573 
        3.80137         35.8261         2.66813 
        3.81707         35.4797         2.64099 
        3.83279         35.2945          2.6142 
        3.84853         34.8508         2.58773 
        3.86424         34.4811         2.56169 
        3.87992         34.2832         2.53605 
        3.89561         33.8974         2.51076 
        3.91134          33.488         2.48576 
        3.92704         33.3116         2.46114 
        3.94273         32.9223         2.43687 
        3.95845         32.7513         2.41289 
        3.97418         32.3937         2.38922 
        3.98988          32.125         2.36591 
        4.00554         31.8051         2.34297 
        4.02125         31.4579         2.32027 
        4.03698         31.2192         2.29784 
        4.05268         30.9375         2.27576 
        4.06839         30.6122         2.25395 
         4.0841         30.3949         2.23243 
        4.09983         30.1253         2.21117 
        4.11555         29.8421          2.1902 
        4.13124         29.6568         2.16955 
        4.14693         29.2988         2.14915 
        4.16266         29.0604         2.12897 
        4.17839         28.7502         2.10907 
        4.19408         28.5386         2.08946 
        4.20977         28.2816         2.07009 
        4.22551         27.9769         2.05093 
        4.24123         27.8566         2.03203 
        4.25691         27.5923         2.01342 
        4.27259         27.3477         1.99503 
        4.28831         27.0681         1.97684 
        4.30404         26.9077         1.95886 
        4.31974          26.562         1.94115 
        4.33543         26.3982         1.92366 
        4.35116         26.2445         1.90635 
        4.36688         25.9456         1.88926 
        4.38255         25.7084         1.87244 
        4.39825         25.4549         1.85579 
        4.41398         25.2822         1.83931 
         4.4297         25.0672         1.82305 
        4.44541         24.8454         1.80699 
        4.46111         24.6426         1.79114 
        4.47683         24.4633         1.77546 
        4.49251         24.2146         1.76001 
        4.50819         24.0359         1.74475 
         4.5239         23.8254         1.72964 
        4.53962         23.6237          1.7147 
        4.55535         23.4577         1.69992 
        4.57106         23.2478         1.68534 
        4.58678         23.0652         1.67093 
         4.6025         22.8518         1.65669 
        4.61821         22.6919         1.64261 
        4.63391          22.499         1.62872 
         4.6496         22.2681         1.61499 
        4.66532         22.1427          1.6014 
        4.68103         21.9107         1.58798 
        4.69673         21.7657         1.57472 
        4.71241          21.614         1.56163 
        4.72811         21.3945         1.54866 
        4.74384         21.2542         1.53582 
        4.75955         21.1198         1.52316 
        4.77525         20.8822         1.51064 
        4.79096         20.7424         1.49824 
        4.80669         20.5583         1.48599 
         4.8224          20.421         1.47388 
        4.83809         20.2541         1.46192 
        4.85379          20.013         1.45009 
         4.8695         19.9322         1.43837 
        4.88521         19.7577          1.4268 
        4.90093         19.5414         1.41535 
        4.91663         19.4064         1.40403 
        4.93234         19.3111         1.39283 
        4.94807         19.0883         1.38174 
        4.96377         18.9821          1.3708 
        4.97943         18.8762         1.35999 
        4.99514          18.667         1.34928 
        5.01086          18.551         1.33867 
        5.02654         18.3468         1.32821 
        5.04227         18.2712         1.31783 
          5.058         18.0875         1.30755 
        5.07371         17.9488          1.2974 
        5.08942         17.8094         1.28736 
        5.10513         17.6993         1.27743 
        5.12084         17.5586         1.26759 
        5.13656         17.3638         1.25786 
        5.15225         17.3039         1.24825 
        5.16796         17.1744         1.23873 
        5.18369         17.0065          1.2293 
         5.1994         16.9471         1.21998 
        5.21509          16.722         1.21077 
        5.23079         16.6363         1.20164 
        5.24649         16.5095         1.19261 
        5.26217         16.3851         1.18369 
        5.27788         16.2422         1.17484 
        5.29359         16.1491         1.16608 
        5.30933         15.9921          1.1574 
        5.32504         15.8871         1.14882 
        5.34073         15.7581         1.14034 
        5.35646         15.6703         1.13193 
        5.37218         15.5215          1.1236 
        5.38789         15.4135         1.11537 
        5.40357         15.3093         1.10723 
        5.41929         15.2122         1.09915 
        5.43502          15.082         1.09115 
         5.4507         14.9821         1.08326 
        5.46639         14.8647         1.07544 
        5.48212         14.7411         1.06768 
        5.49786         14.6256         1.05998 
        5.51353         14.5379         1.05241 
        5.52921         14.4489         1.04489 
        5.54495          14.363         1.03743 
        5.56066         14.2263         1.03005 
        5.57637         14.1276         1.02275 
        5.59207         14.0022         1.01552 
        5.60778         13.9336         1.00836 
        5.62346         13.8244         1.00127 
        5.63916         13.7055        0.994254 
        5.65487         13.6186        0.987297 
         5.6706         13.5105        0.980399 
        5.68633         13.4182        0.973565 
        5.70203         13.3224         0.96681 
        5.71773         13.2694         0.96012 
        5.73344         13.1383        0.953491 
        5.74916         13.0614        0.946918 
        5.76486         12.9617        0.940416 
        5.78054         12.8591        0.933986 
        5.79626         12.7805        0.927597 
          5.812         12.6719        0.921263 
         5.8277         12.5805        0.915006 
        5.84339         12.5036        0.908808 
        5.85911          12.421        0.902655 
        5.87484         12.3159        0.896561 
        5.89053         12.2488        0.890535 
        5.90623         12.1485        0.884562 
        5.92195         12.0615        0.878633 
        5.93767         11.9804        0.872762 
        5.95336         11.8849        0.866955 
        5.96905          11.829        0.861203 
        5.98476         11.7181        0.855495 
        6.00048         11.6591        0.849838 
        6.01617         11.5739        0.844239 
        6.03185         11.4913        0.838698 
        6.04756         11.4295        0.833193 
        6.06331         11.3337        0.827726 
        6.07903         11.2555         0.82232 
        6.09473         11.1822        0.816967 
        6.11044         11.1129        0.811657 
        6.12616         11.0239        0.806396 
        6.14186         10.9781        0.801186 
        6.15755          10.885        0.796023 
        6.17326         10.8018        0.790902 
        6.18898         10.7444        0.785823 
        6.20467         10.6633        0.780799 
        6.22036         10.5749        0.775818 
         6.2361         10.5286        0.770868 
         6.2518         10.4671         0.76597 
        6.26748         10.4019        0.761124 
        6.28319         10.3085        0.756308 
        6.29893         10.2392        0.751529 
        6.31463         10.1653          0.7468 
        6.33033         10.1048        0.742113 
        6.34604         10.0655        0.737463 
        6.36177         9.96285        0.732848 
        6.37747         9.91219        0.728282 
