# k  (h/Mpc)    Pcb(k)  (Mpc/h)^3    Pcb_linear(k) (Mpc/h)^3   ShotnoiseSubtracted = true
      0.0200456         5271.57          5360.6 
      0.0350414          3736.5         3800.87 
      0.0492313         2731.31         2733.83 
      0.0637834         2329.53         2294.74 
      0.0800726         1841.93         1816.12 
       0.096163         1283.29         1297.14 
       0.111083         1020.02         1037.39 
       0.126058         940.975         930.954 
       0.142273         806.154         784.879 
       0.158546         648.086         613.336 
        0.17375         528.625         519.641 
       0.188953         502.205         474.699 
       0.204907         466.551         418.769 
       0.220756         388.766         351.924 
        0.23588          340.34         307.152 
         0.2514         302.335         280.918 
       0.267535         284.556         253.972 
       0.283568         256.279         223.039 
       0.299022         235.158         199.061 
       0.314451         214.154          182.75 
       0.330372         198.909         167.704 
       0.346141         179.066         151.908 
       0.361624         169.321         138.164 
       0.377134         159.318         127.487 
       0.392932         144.166         118.076 
       0.408854         138.502         108.769 
       0.424564         132.441         100.289 
       0.440253         123.636         93.1365 
       0.455999         116.333         86.8639 
       0.471626         107.791         81.0123 
        0.48727         104.318         75.5563 
       0.502856         99.2514         70.7032 
       0.518488         95.7881         66.3703 
       0.534347         91.9031         62.3078 
       0.550082         84.6705         58.5582 
       0.565732         80.7326         55.1424 
       0.581496         77.9903         52.0173 
       0.597222         75.4239         49.1395 
       0.612804         71.3078         46.4885 
       0.628434         69.5738         44.0202 
       0.644267         67.4153          41.714 
       0.660051          65.106         39.5871 
       0.675724         62.2723         37.6215 
       0.691403         60.4147         35.7878 
       0.707174         58.5225         34.0662 
       0.722871          56.662          32.465 
        0.73838         55.2182         30.9841 
       0.754018         52.5559         29.5847 
       0.769845         51.3902         28.2569 
        0.78569         49.9951         27.0098 
       0.801365         48.2097         25.8507 
       0.817031         47.0528          24.761 
       0.832809         46.2822         23.7279 
       0.848511         43.8335          22.759 
       0.864097         42.9681         21.8514 
       0.879701         42.2333         20.9929 
       0.895507          41.563         20.1708 
       0.911279         40.3161         19.3949 
        0.92691         39.3466         18.6666 
       0.942635         37.9144          17.972 
       0.958396         37.6252         17.3116 
       0.974128          36.527         16.6859 
       0.989692         36.0001         16.0975 
        1.00528         35.1909         15.5369 
        1.02113         34.0192         14.9944 
        1.03692         33.3478           14.48 
        1.05264          32.904         13.9923 
        1.06832         32.0333          13.528 
        1.08405         31.4874         13.0837 
        1.09979         30.8691         12.6593 
        1.11537         30.0105          12.258 
        1.13105         29.8894         11.8719 
        1.14679         29.4378         11.5011 
        1.16256          28.492         11.1455 
        1.17828         28.1427         10.8062 
        1.19395         27.5139         10.4823 
         1.2097         27.3005         10.1702 
        1.22537         26.7975         9.87232 
          1.241         26.2346          9.5874 
        1.25666         25.5663         9.31311 
        1.27241         25.2882         9.04834 
        1.28819         24.6469          8.7935 
        1.30392         24.4559         8.54929 
        1.31957         24.2463         8.31551 
        1.33529         23.9385         8.08969 
        1.35108         23.3726         7.87142 
        1.36674         22.9985         7.66282 
         1.3824         22.5334         7.46203 
        1.39811         22.3193         7.26782 
        1.41389         22.0879         7.07983 
        1.42964         21.6706         6.89885 
        1.44531         21.5609         6.72513 
        1.46101         20.9769         6.55706 
        1.47667         20.7415         6.39527 
        1.49229         20.5449         6.23942 
        1.50793         20.2527         6.08862 
        1.52367         20.0189         5.94186 
        1.53953          19.795           5.799 
        1.55526         19.4228           5.662 
        1.57092         19.1383         5.53002 
        1.58662         18.9361         5.40196 
        1.60235          18.686         5.27774 
        1.61809         18.4742         5.15738 
        1.63369         18.2461         5.04188 
        1.64941         17.8807          4.9291 
        1.66519         17.8167         4.81939 
        1.68085         17.5295         4.71383 
        1.69652         17.3081         4.61141 
        1.71228         17.1366         4.51147 
        1.72806         16.9483         4.41444 
        1.74368         16.7085         4.32125 
        1.75933         16.5292         4.23058 
        1.77505         16.3275          4.1421 
        1.79081         16.1003         4.05602 
         1.8065         16.0194         3.97276 
        1.82218         15.7297         3.89193 
        1.83797         15.5198          3.8128 
        1.85367         15.3722         3.73633 
        1.86928          15.278         3.66243 
        1.88497         15.0269         3.59013 
        1.90073         15.0025         3.51953 
        1.91647         14.7623          3.4509 
        1.93218          14.621         3.38426 
        1.94787         14.4853         3.31949 
        1.96363          14.359         3.25616 
        1.97935         14.1766         3.19463 
        1.99499         13.9714         3.13504 
        2.01064          13.851          3.0769 
         2.0264         13.6943         3.01987 
        2.04216         13.5544         2.96433 
        2.05781         13.3521         2.91054 
        2.07353         13.2614          2.8579 
        2.08928         13.1377         2.80645 
        2.10499         13.0109         2.75642 
        2.12065         12.8067         2.70776 
        2.13633         12.7986         2.66024 
        2.15211         12.5909         2.61356 
        2.16785         12.5671         2.56814 
        2.18349         12.4518         2.52409 
        2.19916         12.2687         2.48098 
        2.21489          12.181         2.43875 
        2.23063         12.0319         2.39747 
         2.2463         11.9024         2.35734 
        2.26194         11.8058         2.31823 
        2.27765         11.7478         2.27981 
        2.29341         11.5992         2.24217 
        2.30914         11.4196         2.20546 
        2.32486         11.4001          2.1696 
        2.34061         11.2752         2.13448 
        2.35635         11.1602         2.10017 
        2.37203         11.1042         2.06674 
        2.38768         10.9243         2.03411 
        2.40339         10.8117         2.00207 
        2.41914         10.7222         1.97065 
        2.43483          10.692         1.94001 
         2.4505         10.5787         1.91009 
        2.46622         10.4686         1.88069 
        2.48195         10.4131         1.85191 
        2.49759         10.2953          1.8239 
        2.51328         10.1774         1.79639 
        2.52906         10.1049         1.76928 
        2.54479         10.0008         1.74283 
        2.56049         9.96718         1.71697 
        2.57618         9.88293         1.69167 
        2.59189         9.73999         1.66684 
        2.60758         9.72639         1.64255 
        2.62325         9.64797         1.61877 
        2.63898         9.48146         1.59539 
        2.65468          9.3998         1.57252 
        2.67044         9.34867            1.55 
        2.68618         9.24613         1.52797 
        2.70184         9.19514         1.50647 
        2.71755         9.10257         1.48532 
        2.73329         9.00574         1.46455 
        2.74897         8.95848         1.44425 
        2.76462         8.92852         1.42438 
        2.78034         8.76776          1.4048 
        2.79607         8.73653         1.38558 
        2.81179         8.65735         1.36673 
        2.82749         8.62593         1.34826 
        2.84321         8.53782         1.33011 
        2.85893         8.47018          1.3123 
        2.87462         8.39682         1.29485 
        2.89033           8.301          1.2777 
        2.90605         8.24159         1.26085 
        2.92176         8.18577         1.24432 
        2.93747         8.11722         1.22809 
        2.95318         8.08698         1.21214 
        2.96891         7.99721         1.19648 
        2.98456          7.9169         1.18116 
        3.00023         7.86055         1.16609 
        3.01596         7.82087         1.15123 
        3.03164         7.77378         1.13668 
        3.04738         7.71937         1.12234 
         3.0631         7.61619         1.10825 
        3.07883         7.57317         1.09441 
        3.09456         7.52145          1.0808 
        3.11026         7.44799         1.06745 
        3.12596         7.41388         1.05432 
        3.14163         7.33439         1.04145 
        3.15734         7.28416         1.02876 
        3.17308         7.23281         1.01625 
        3.18879          7.1584         1.00399 
        3.20447         7.12123        0.991948 
         3.2202          7.0447        0.980067 
         3.2359         7.02098        0.968403 
        3.25157         6.96528        0.956957 
        3.26729         6.92332        0.945662 
        3.28304         6.84244        0.934528 
        3.29877         6.79148        0.923589 
        3.31446         6.75843        0.912849 
        3.33014         6.69634         0.90229 
        3.34585         6.67492        0.891883 
        3.36158         6.60546        0.881625 
        3.37727         6.57333        0.871561 
        3.39294         6.52861        0.861664 
        3.40867         6.44799        0.851886 
        3.42439         6.42518        0.842266 
        3.44008         6.36423        0.832813 
        3.45578         6.32222        0.823499 
        3.47153         6.28379        0.814307 
        3.48724         6.23814        0.805273 
        3.50292         6.20498        0.796397 
        3.51859         6.14479         0.78766 
        3.53431         6.09161        0.779027 
        3.55007         6.06961        0.770503 
        3.56577         6.02896        0.762141 
        3.58146         5.98603        0.753906 
        3.59719         5.93156        0.745775 
        3.61292         5.90678        0.737768 
        3.62859         5.85287        0.729908 
        3.64429          5.8179        0.722148 
        3.66003         5.75941        0.714478 
        3.67578         5.74023        0.706922 
        3.69146         5.66917        0.699505 
        3.70712          5.6655        0.692208 
        3.72284         5.59903        0.684988 
        3.73853          5.5717        0.677884 
        3.75422         5.52777        0.670879 
        3.76993         5.50547        0.663967 
        3.78564         5.44793        0.657156 
        3.80137           5.425         0.65043 
        3.81707         5.38154        0.643812 
        3.83279          5.3551        0.637281 
        3.84853         5.29828         0.63083 
        3.86424          5.2586        0.624482 
        3.87992         5.23202        0.618231 
        3.89561         5.19837        0.612066 
        3.91134         5.15463        0.605972 
        3.92704         5.11804        0.599968 
        3.94273         5.08766        0.594053 
        3.95845         5.05815        0.588206 
        3.97418         5.02769        0.582437 
        3.98988         4.98541        0.576754 
        4.00554         4.95576        0.571162 
        4.02125         4.92232        0.565629 
        4.03698         4.88253        0.560161 
        4.05268         4.85338        0.554777 
        4.06839         4.82911        0.549461 
         4.0841         4.78775        0.544216 
        4.09983         4.74897        0.539033 
        4.11555         4.70396        0.533919 
        4.13124         4.68015        0.528887 
        4.14693         4.64046        0.523914 
        4.16266         4.60703        0.518995 
        4.17839         4.58277        0.514142 
        4.19408         4.53731        0.509362 
        4.20977         4.51335        0.504641 
        4.22551         4.47725        0.499969 
        4.24123         4.45603        0.495361 
        4.25691         4.42892        0.490825 
        4.27259         4.40373        0.486343 
        4.28831         4.37119        0.481909 
        4.30404         4.33269        0.477526 
        4.31974         4.30438        0.473207 
        4.33543         4.26383        0.468944 
        4.35116         4.24208        0.464724 
        4.36688         4.20088        0.460557 
        4.38255         4.17902        0.456458 
        4.39825         4.16869        0.452399 
        4.41398         4.13931        0.448382 
         4.4297         4.10902        0.444418 
        4.44541         4.07993        0.440503 
        4.46111         4.06079        0.436638 
        4.47683          4.0107        0.432818 
        4.49251         4.00131         0.42905 
        4.50819         3.97384        0.425329 
         4.5239         3.94714        0.421647 
        4.53962         3.93547        0.418003 
        4.55535         3.90264        0.414402 
        4.57106         3.87937        0.410848 
        4.58678          3.8491        0.407335 
         4.6025         3.83253        0.403862 
        4.61821         3.80308        0.400431 
        4.63391         3.77876        0.397044 
         4.6496         3.75901        0.393698 
        4.66532          3.7283        0.390385 
        4.68103         3.69713        0.387112 
        4.69673         3.68292         0.38388 
        4.71241         3.65123        0.380688 
        4.72811          3.6366        0.377528 
        4.74384         3.62323        0.374399 
        4.75955         3.58803         0.37131 
        4.77525          3.5594        0.368259 
        4.79096         3.53809        0.365238 
        4.80669         3.51844        0.362249 
         4.8224         3.50204        0.359298 
        4.83809         3.47863        0.356382 
        4.85379         3.45788        0.353498 
         4.8695         3.43285        0.350642 
        4.88521         3.40791         0.34782 
        4.90093         3.39995        0.345029 
        4.91663         3.37496        0.342271 
        4.93234         3.35374         0.33954 
        4.94807         3.33838        0.336837 
        4.96377         3.30219        0.334169 
        4.97943         3.28577        0.331535 
        4.99514         3.26313        0.328924 
        5.01086         3.25158        0.326338 
        5.02654         3.22803        0.323787 
        5.04227         3.21011        0.321256 
          5.058         3.19702         0.31875 
        5.07371         3.17101        0.316277 
        5.08942         3.15853        0.313829 
        5.10513         3.13427        0.311407 
        5.12084         3.11391         0.30901 
        5.13656         3.10131        0.306638 
        5.15225         3.07812        0.304296 
        5.16796         3.06384        0.301974 
        5.18369         3.04689        0.299674 
         5.1994         3.02453        0.297403 
        5.21509         3.00725        0.295157 
        5.23079         2.98894        0.292932 
        5.24649         2.97745        0.290732 
        5.26217         2.95605        0.288556 
        5.27788         2.93436        0.286399 
        5.29359         2.91938        0.284264 
        5.30933         2.90386        0.282147 
        5.32504         2.88515        0.280056 
        5.34073         2.86514        0.277989 
        5.35646         2.86001        0.275938 
        5.37218         2.83388        0.273907 
        5.38789          2.8203        0.271901 
        5.40357         2.80526        0.269916 
        5.41929         2.78387        0.267948 
        5.43502          2.7745        0.265998 
         5.4507         2.75912        0.264073 
        5.46639         2.74022        0.262167 
        5.48212         2.72642        0.260275 
        5.49786         2.70742          0.2584 
        5.51353         2.69243        0.256552 
        5.52921         2.68527        0.254721 
        5.54495         2.66557        0.252902 
        5.56066         2.64963        0.251103 
        5.57637         2.63485        0.249322 
        5.59207         2.62296         0.24756 
        5.60778         2.60852        0.245814 
        5.62346         2.58963        0.244088 
        5.63916         2.57546        0.242376 
        5.65487          2.5645         0.24068 
         5.6706         2.54628        0.238999 
        5.68633          2.5351        0.237333 
        5.70203         2.52071        0.235686 
        5.71773         2.50141        0.234055 
        5.73344          2.4879        0.232439 
        5.74916         2.47652        0.230837 
        5.76486         2.46836        0.229252 
        5.78054         2.45312        0.227684 
        5.79626         2.44548        0.226127 
          5.812         2.42528        0.224583 
         5.8277          2.4168        0.223057 
        5.84339         2.39991        0.221546 
        5.85911         2.38917        0.220047 
        5.87484          2.3777        0.218561 
        5.89053         2.36065        0.217092 
        5.90623         2.35203        0.215636 
        5.92195          2.3396        0.214191 
        5.93767         2.32464        0.212759 
        5.95336         2.31109        0.211344 
        5.96905         2.29952        0.209942 
        5.98476         2.28812         0.20855 
        6.00048         2.27565        0.207171 
        6.01617         2.26496        0.205806 
        6.03185         2.25191        0.204455 
        6.04756           2.237        0.203113 
        6.06331         2.22541        0.201781 
        6.07903         2.21427        0.200463 
        6.09473         2.20838        0.199158 
        6.11044         2.18942        0.197863 
        6.12616         2.17976        0.196581 
        6.14186         2.17248        0.195311 
        6.15755         2.16295        0.194052 
        6.17326         2.15028        0.192804 
        6.18898         2.14201        0.191566 
        6.20467         2.12751        0.190341 
        6.22036         2.11611        0.189127 
         6.2361         2.10778         0.18792 
         6.2518         2.09849        0.186726 
        6.26748          2.0823        0.185545 
        6.28319         2.07372         0.18437 
        6.29893         2.06573        0.183205 
        6.31463         2.05545        0.182053 
        6.33033          2.0399         0.18091 
        6.34604         2.03379        0.179776 
        6.36177         2.02414        0.178652 
        6.37747          2.0153        0.177538 
