# k  (h/Mpc)    Pcb(k)  (Mpc/h)^3    Pcb_linear(k) (Mpc/h)^3   ShotnoiseSubtracted = true
      0.0200456         925.696         939.244 
      0.0350414         663.514         665.959 
      0.0492313          480.85         479.001 
      0.0637834         404.725         402.067 
      0.0800726         320.082         318.207 
       0.096163         226.981         227.274 
       0.111083         180.692         181.763 
       0.126058         163.551         163.115 
       0.142273         138.676          137.52 
       0.158546         109.108         107.464 
        0.17375         90.9796         91.0475 
       0.188953         83.9184         83.1731 
       0.204907          75.934         73.3735 
       0.220756         63.1028         61.6613 
        0.23588         55.0625         53.8167 
         0.2514          49.797         49.2203 
       0.267535          45.342         44.4991 
       0.283568         40.1384         39.0792 
       0.299022         36.1471          34.878 
       0.314451         32.5237           32.02 
       0.330372         30.1525         29.3837 
       0.346141         27.3501         26.6162 
       0.361624         25.1044          24.208 
       0.377134         23.4258         22.3373 
       0.392932         20.9421         20.6884 
       0.408854         19.9631         19.0576 
       0.424564         18.4269         17.5718 
       0.440253         17.0513         16.3187 
       0.455999         16.0503         15.2196 
       0.471626         15.0785         14.1944 
        0.48727         14.0673         13.2384 
       0.502856         13.1087         12.3881 
       0.518488          12.514         11.6289 
       0.534347         11.9204         10.9171 
       0.550082         10.9079         10.2601 
       0.565732         10.0892         9.66163 
       0.581496         9.84666         9.11406 
       0.597222         9.41185         8.60984 
       0.612804         8.77958         8.14535 
       0.628434         8.45365         7.71287 
       0.644267         8.05011         7.30881 
       0.660051         7.59337         6.93615 
       0.675724         7.22373         6.59175 
       0.691403         6.96249         6.27046 
       0.707174         6.60125         5.96882 
       0.722871         6.31334         5.68827 
        0.73838         6.06699          5.4288 
       0.754018         5.86658         5.18361 
       0.769845         5.55637         4.95095 
        0.78569          5.3636         4.73244 
       0.801365         5.12734         4.52936 
       0.817031          4.9505         4.33844 
       0.832809         4.77097         4.15742 
       0.848511         4.51346         3.98766 
       0.864097         4.34371         3.82863 
       0.879701         4.19629         3.67821 
       0.895507         4.02376         3.53417 
       0.911279         3.95366         3.39822 
        0.92691          3.7989         3.27062 
       0.942635         3.63707         3.14892 
       0.958396         3.50458         3.03321 
       0.974128         3.40268         2.92357 
       0.989692         3.32967         2.82048 
        1.00528         3.18298         2.72225 
        1.02113         3.06446          2.6272 
        1.03692         3.00852         2.53707 
        1.05264         2.89853         2.45162 
        1.06832         2.82722         2.37027 
        1.08405         2.69295         2.29243 
        1.09979         2.63642         2.21806 
        1.11537         2.56805         2.14776 
        1.13105          2.5017         2.08011 
        1.14679         2.43111         2.01513 
        1.16256         2.34802         1.95283 
        1.17828         2.29341         1.89338 
        1.19395         2.23111         1.83663 
         1.2097         2.13404         1.78194 
        1.22537          2.0929         1.72975 
          1.241         2.04715         1.67983 
        1.25666         2.02654         1.63177 
        1.27241         1.93164         1.58538 
        1.28819         1.88876         1.54073 
        1.30392         1.85478         1.49794 
        1.31957         1.80932         1.45698 
        1.33529         1.75318         1.41741 
        1.35108         1.71358         1.37917 
        1.36674         1.66072         1.34262 
         1.3824         1.62365         1.30744 
        1.39811         1.58519         1.27341 
        1.41389         1.55788         1.24047 
        1.42964          1.5218         1.20876 
        1.44531         1.48451         1.17832 
        1.46101         1.45663         1.14888 
        1.47667         1.40263         1.12053 
        1.49229         1.39253         1.09322 
        1.50793         1.35448          1.0668 
        1.52367         1.33167         1.04109 
        1.53953         1.28837         1.01606 
        1.55526         1.26448        0.992051 
        1.57092         1.23906        0.968927 
        1.58662         1.21823         0.94649 
        1.60235         1.18853        0.924725 
        1.61809         1.16097        0.903637 
        1.63369         1.15136        0.883398 
        1.64941         1.11741        0.863639 
        1.66519         1.09813        0.844417 
        1.68085         1.06562         0.82592 
        1.69652         1.04897        0.807975 
        1.71228         1.03514        0.790465 
        1.72806         1.00555        0.773464 
        1.74368        0.994364        0.757136 
        1.75933        0.969615        0.741249 
        1.77505        0.954699        0.725747 
        1.79081        0.936998        0.710664 
         1.8065        0.913178        0.696076 
        1.82218        0.903156        0.681913 
        1.83797        0.886174         0.66805 
        1.85367        0.878224        0.654651 
        1.86928        0.859121        0.641702 
        1.88497        0.838123        0.629035 
        1.90073        0.820778        0.616665 
        1.91647        0.815104         0.60464 
        1.93218        0.796333        0.592964 
        1.94787        0.781062        0.581615 
        1.96363        0.767188        0.570519 
        1.97935        0.753573        0.559738 
        1.99499        0.740864        0.549298 
        2.01064        0.728536         0.53911 
         2.0264        0.718389        0.529118 
        2.04216        0.706556        0.519386 
        2.05781        0.694037        0.509962 
        2.07353         0.68275        0.500739 
        2.08928        0.668442        0.491725 
        2.10499        0.660313        0.482958 
        2.12065         0.65416        0.474433 
        2.13633         0.64183        0.466107 
        2.15211        0.629096        0.457928 
        2.16785        0.617799         0.44997 
        2.18349        0.609985        0.442251 
        2.19916         0.60139        0.434699 
        2.21489         0.59012        0.427298 
        2.23063         0.58113        0.420066 
         2.2463        0.576894        0.413035 
        2.26194        0.559901        0.406183 
        2.27765        0.554335        0.399452 
        2.29341        0.548966        0.392856 
        2.30914        0.543542        0.386424 
        2.32486        0.532869        0.380141 
        2.34061        0.524323        0.373987 
        2.35635        0.514188        0.367976 
        2.37203        0.508951        0.362119 
        2.38768        0.502267        0.356401 
        2.40339        0.495995        0.350787 
        2.41914        0.488828        0.345282 
        2.43483        0.481298        0.339914 
         2.4505        0.473347        0.334671 
        2.46622        0.467241         0.32952 
        2.48195        0.464111        0.324478 
        2.49759        0.455929        0.319569 
        2.51328        0.447491        0.314749 
        2.52906        0.443337        0.309999 
        2.54479        0.436869        0.305365 
        2.56049        0.429156        0.300835 
        2.57618         0.42546        0.296401 
        2.59189        0.420315        0.292051 
        2.60758        0.415807        0.287795 
        2.62325        0.408803        0.283629 
        2.63898        0.404565        0.279532 
        2.65468        0.398154        0.275524 
        2.67044        0.393114        0.271579 
        2.68618        0.387964         0.26772 
        2.70184        0.383486        0.263952 
        2.71755        0.377427        0.260247 
        2.73329         0.37329        0.256608 
        2.74897         0.36959        0.253051 
        2.76462        0.364504        0.249569 
        2.78034        0.359991        0.246139 
        2.79607        0.355785         0.24277 
        2.81179        0.351108        0.239468 
        2.82749        0.347121        0.236232 
        2.84321        0.343575        0.233052 
        2.85893        0.338893        0.229932 
        2.87462        0.334595        0.226874 
        2.89033        0.330502         0.22387 
        2.90605        0.327625        0.220917 
        2.92176        0.322967         0.21802 
        2.93747        0.319422        0.215176 
        2.95318        0.315703        0.212383 
        2.96891        0.312514        0.209638 
        2.98456        0.308827        0.206954 
        3.00023        0.306074        0.204313 
        3.01596        0.301413         0.20171 
        3.03164         0.29906        0.199161 
        3.04738        0.293945        0.196648 
         3.0631        0.292316        0.194179 
        3.07883        0.287811        0.191753 
        3.09456        0.285002        0.189369 
        3.11026        0.282755         0.18703 
        3.12596         0.27844         0.18473 
        3.14163        0.276443        0.182474 
        3.15734        0.274155        0.180251 
        3.17308        0.270784         0.17806 
        3.18879        0.268455        0.175911 
        3.20447        0.264223        0.173801 
         3.2202         0.26281         0.17172 
         3.2359        0.259582        0.169676 
        3.25157        0.257331        0.167671 
        3.26729        0.254529        0.165692 
        3.28304        0.252685        0.163741 
        3.29877        0.249562        0.161824 
        3.31446        0.247296        0.159942 
        3.33014        0.244784        0.158092 
        3.34585         0.24392        0.156269 
        3.36158        0.240507        0.154472 
        3.37727        0.238559        0.152708 
        3.39294        0.236004        0.150974 
        3.40867        0.233455        0.149261 
        3.42439        0.232009        0.147575 
        3.44008        0.229468        0.145919 
        3.45578         0.22819        0.144287 
        3.47153        0.225586        0.142677 
        3.48724         0.22439        0.141094 
        3.50292        0.222178        0.139539 
        3.51859        0.219166        0.138008 
        3.53431        0.217454        0.136495 
        3.55007        0.216281        0.135002 
        3.56577        0.213664        0.133536 
        3.58146        0.211773        0.132094 
        3.59719        0.210167        0.130669 
        3.61292        0.209036        0.129266 
        3.62859        0.206247        0.127889 
        3.64429        0.204977        0.126529 
        3.66003         0.20338        0.125185 
        3.67578        0.201608        0.123861 
        3.69146        0.199931        0.122562 
        3.70712        0.198797        0.121283 
        3.72284        0.196778        0.120018 
        3.73853        0.195687        0.118774 
        3.75422        0.193817        0.117546 
        3.76993        0.192539        0.116335 
        3.78564        0.190516        0.115142 
        3.80137        0.189175        0.113963 
        3.81707         0.18795        0.112804 
        3.83279        0.186288        0.111659 
        3.84853        0.184562        0.110529 
        3.86424        0.183302        0.109417 
        3.87992        0.182232        0.108322 
        3.89561        0.180246        0.107241 
        3.91134        0.179555        0.106174 
        3.92704        0.177509        0.105122 
        3.94273        0.175822        0.104085 
        3.95845        0.174624        0.103061 
        3.97418        0.173769         0.10205 
        3.98988        0.171745        0.101054 
        4.00554        0.170472        0.100075 
        4.02125        0.169068       0.0991051 
        4.03698        0.167081        0.098147 
        4.05268        0.166023       0.0972038 
        4.06839        0.163637       0.0962723 
         4.0841        0.161666       0.0953534 
        4.09983        0.160039       0.0944452 
        4.11555        0.158384       0.0935492 
        4.13124        0.156085       0.0926674 
        4.14693        0.155392       0.0917962 
        4.16266        0.153408       0.0909343 
        4.17839        0.152013        0.090084 
        4.19408        0.150638       0.0892465 
        4.20977        0.149483       0.0884194 
        4.22551        0.148127       0.0876008 
        4.24123         0.14666       0.0867934 
        4.25691        0.145178       0.0859985 
        4.27259        0.144003       0.0852133 
        4.28831        0.142889       0.0844363 
        4.30404        0.141488       0.0836684 
        4.31974        0.141201       0.0829117 
        4.33543        0.139542       0.0821648 
        4.35116        0.138212       0.0814253 
        4.36688        0.137493       0.0806953 
        4.38255        0.136057        0.079977 
        4.39825        0.135875       0.0792659 
        4.41398        0.134581        0.078562 
         4.4297        0.133837       0.0778675 
        4.44541        0.133117       0.0771816 
        4.46111        0.132364       0.0765044 
        4.47683        0.131756       0.0758349 
        4.49251        0.130781       0.0751749 
        4.50819        0.130167       0.0745228 
         4.5239        0.129662       0.0738777 
        4.53962         0.12916       0.0732393 
        4.55535        0.128429       0.0726082 
        4.57106        0.127949       0.0719856 
        4.58678        0.127461         0.07137 
         4.6025        0.127158       0.0707616 
        4.61821        0.126789       0.0701604 
        4.63391        0.126283        0.069567 
         4.6496        0.126103       0.0689807 
        4.66532        0.125912       0.0684003 
        4.68103        0.125721       0.0678268 
        4.69673        0.125071       0.0672605 
        4.71241        0.125102       0.0667013 
        4.72811        0.124725       0.0661475 
        4.74384        0.124813       0.0655993 
        4.75955        0.125016       0.0650581 
        4.77525         0.12494       0.0645234 
        4.79096        0.124439       0.0639941 
        4.80669         0.12481       0.0634705 
         4.8224        0.124854       0.0629534 
        4.83809        0.124588       0.0624425 
        4.85379        0.124781       0.0619371 
         4.8695        0.124931       0.0614369 
        4.88521        0.124977       0.0609424 
        4.90093        0.125457       0.0604533 
        4.91663         0.12562         0.05997 
        4.93234        0.125615       0.0594916 
        4.94807        0.126257        0.059018 
        4.96377        0.126843       0.0585505 
        4.97943         0.12744       0.0580891 
        4.99514        0.127216       0.0576315 
        5.01086        0.128277       0.0571784 
        5.02654        0.128379       0.0567314 
        5.04227        0.128895       0.0562879 
          5.058        0.129716        0.055849 
        5.07371        0.130579       0.0554156 
        5.08942        0.130931       0.0549867 
        5.10513        0.131629       0.0545624 
        5.12084         0.13223       0.0541423 
        5.13656        0.132801       0.0537268 
        5.15225         0.13396       0.0533164 
        5.16796        0.134899       0.0529096 
        5.18369        0.135184       0.0525066 
         5.1994        0.136576       0.0521087 
        5.21509        0.137395       0.0517152 
        5.23079        0.138656       0.0513253 
        5.24649        0.139999       0.0509398 
        5.26217        0.140759       0.0505585 
        5.27788        0.141804       0.0501806 
        5.29359        0.142542       0.0498065 
        5.30933        0.144425       0.0494357 
        5.32504        0.145419       0.0490693 
        5.34073        0.146557        0.048707 
        5.35646        0.147229       0.0483477 
        5.37218        0.149076       0.0479919 
        5.38789         0.15016       0.0476403 
        5.40357        0.151674       0.0472927 
        5.41929        0.153559       0.0469477 
        5.43502        0.154401       0.0466062 
         5.4507        0.156473       0.0462689 
        5.46639        0.157386       0.0459349 
        5.48212        0.159528       0.0456034 
        5.49786        0.161413       0.0452748 
        5.51353        0.162955       0.0449511 
        5.52921        0.164316       0.0446302 
        5.54495        0.166358       0.0443116 
        5.56066        0.168195       0.0439964 
        5.57637        0.170423       0.0436843 
        5.59207        0.172318       0.0433755 
        5.60778        0.174234       0.0430697 
        5.62346        0.176545       0.0427672 
        5.63916         0.17843       0.0424673 
        5.65487         0.18011       0.0421702 
         5.6706         0.18242       0.0418755 
        5.68633        0.184658       0.0415836 
        5.70203         0.18703       0.0412951 
        5.71773        0.189528       0.0410094 
        5.73344        0.190606       0.0407262 
        5.74916        0.193864       0.0404454 
        5.76486        0.195856       0.0401677 
        5.78054        0.198225       0.0398931 
        5.79626        0.200814       0.0396202 
          5.812        0.203236       0.0393496 
         5.8277        0.206106       0.0390824 
        5.84339        0.208838       0.0388177 
        5.85911        0.211753       0.0385549 
        5.87484        0.213209       0.0382945 
        5.89053        0.217149       0.0380372 
        5.90623        0.219078        0.037782 
        5.92195        0.221831       0.0375288 
        5.93767        0.224457       0.0372781 
        5.95336        0.228229         0.03703 
        5.96905        0.231052       0.0367843 
        5.98476        0.232201       0.0365405 
        6.00048        0.237223       0.0362989 
        6.01617        0.239506       0.0360597 
        6.03185         0.24134       0.0358231 
        6.04756        0.245682       0.0355879 
        6.06331        0.247553       0.0353544 
        6.07903        0.250305       0.0351235 
        6.09473        0.254277       0.0348949 
        6.11044        0.257558       0.0346681 
        6.12616         0.26003       0.0344434 
        6.14186        0.264122       0.0342208 
        6.15755        0.266921       0.0340003 
        6.17326        0.270828       0.0337816 
        6.18898        0.273213       0.0335647 
        6.20467        0.277572         0.03335 
        6.22036        0.279383       0.0331373 
         6.2361        0.283692       0.0329259 
         6.2518        0.287089       0.0327166 
        6.26748        0.288034       0.0325097 
        6.28319        0.292566        0.032304 
        6.29893        0.296493       0.0320998 
        6.31463        0.300974       0.0318978 
        6.33033        0.302257       0.0316977 
        6.34604         0.30641        0.031499 
        6.36177        0.310515       0.0313019 
        6.37747        0.313806       0.0311069 
