# k  (h/Mpc)    Pcb(k)  (Mpc/h)^3    Pcb_linear(k) (Mpc/h)^3   ShotnoiseSubtracted = true
      0.0200456         9582.07         9778.02 
      0.0350414         7001.09         7197.58 
      0.0492313         5413.58         5469.63 
      0.0637834         4738.57         4684.07 
      0.0800726         3662.29         3606.52 
       0.096163         2581.82         2636.97 
       0.111083         2157.76         2241.15 
       0.126058         2000.33            1999 
       0.142273         1664.26         1609.18 
       0.158546         1400.81         1294.27 
        0.17375          1172.3         1159.83 
       0.188953          1124.7          1044.8 
       0.204907         1034.18         885.057 
       0.220756         883.643         760.131 
        0.23588         791.287         692.527 
         0.2514         695.088         628.819 
       0.267535         667.544         552.571 
       0.283568         608.261         491.567 
       0.299022         569.439          451.04 
       0.314451         533.503         413.514 
       0.330372         492.568         373.583 
       0.346141         447.591         340.252 
       0.361624         430.795         314.545 
       0.377134         402.715         290.918 
       0.392932         379.825         267.611 
       0.408854         365.169         247.024 
       0.424564          348.77         229.806 
       0.440253         335.484         214.106 
       0.455999         316.045         199.319 
       0.471626         293.833         186.106 
        0.48727          286.77         174.395 
       0.502856         276.979         163.698 
       0.518488         273.338         153.725 
       0.534347         257.982         144.477 
       0.550082         242.008         136.152 
       0.565732         238.128         128.526 
       0.581496         226.464         121.399 
       0.597222         220.715         114.828 
       0.612804         212.396         108.835 
       0.628434         206.035         103.263 
       0.644267         199.212         98.0171 
       0.660051         196.746         93.1518 
       0.675724         192.439         88.6491 
       0.691403         186.796          84.445 
       0.707174         178.862         80.4942 
       0.722871         177.315         76.8159 
        0.73838         173.607         73.4106 
       0.754018         167.745         70.1894 
       0.769845         163.633         67.1297 
        0.78569         160.865         64.2526 
       0.801365         156.687         61.5753 
       0.817031          151.38         59.0547 
       0.832809         149.016         56.6615 
       0.848511         145.383         54.4137 
       0.864097         142.398         52.3051 
       0.879701         139.761         50.3081 
       0.895507         136.171         48.3932 
       0.911279         134.186         46.5835 
        0.92691         132.207         44.8828 
       0.942635         129.142         43.2588 
       0.958396         128.725         41.7129 
       0.974128         124.956         40.2465 
       0.989692         121.732         38.8662 
        1.00528         119.648         37.5496 
        1.02113         118.579         36.2743 
        1.03692         114.191         35.0639 
        1.05264         113.854         33.9151 
        1.06832         111.185         32.8205 
        1.08405         109.671          31.772 
        1.09979         108.982         30.7694 
        1.11537         105.383         29.8206 
        1.13105         105.276         28.9069 
        1.14679         103.938         28.0285 
        1.16256         102.286         27.1855 
        1.17828         99.4863         26.3804 
        1.19395          98.678         25.6112 
         1.2097         96.1143         24.8692 
        1.22537         96.2683         24.1606 
          1.241         93.9012         23.4821 
        1.25666         92.1081         22.8285 
        1.27241         91.0919          22.197 
        1.28819         89.5918         21.5886 
        1.30392         88.4143         21.0052 
        1.31957         87.0604         20.4462 
        1.33529         85.7191         19.9059 
        1.35108         85.0032         19.3831 
        1.36674         83.9374         18.8832 
         1.3824         82.3476         18.4016 
        1.39811         81.4925         17.9355 
        1.41389         80.1962         17.4839 
        1.42964         79.3206         17.0489 
        1.44531         77.7449          16.631 
        1.46101         76.5988         16.2264 
        1.47667         76.3931         15.8367 
        1.49229         74.8885         15.4609 
        1.50793         74.2225         15.0972 
        1.52367         73.2042         14.7429 
        1.53953         72.2672         14.3978 
        1.55526         71.4864         14.0666 
        1.57092          71.138         13.7474 
        1.58662         69.7101         13.4375 
        1.60235         69.0961         13.1366 
        1.61809         68.0883         12.8449 
        1.63369         66.8592         12.5648 
        1.64941         66.2587         12.2912 
        1.66519         65.1939         12.0248 
        1.68085         64.5664         11.7684 
        1.69652         63.5946         11.5194 
        1.71228         63.1044         11.2763 
        1.72806         62.5738         11.0401 
        1.74368         61.6664         10.8132 
        1.75933         61.0544         10.5922 
        1.77505         60.3221         10.3765 
        1.79081         59.4038         10.1665 
         1.8065         58.9762         9.96329 
        1.82218         58.0382         9.76588 
        1.83797         57.4725         9.57253 
        1.85367         56.6578         9.38555 
        1.86928         56.2127         9.20475 
        1.88497         55.4673         9.02779 
        1.90073         54.8786         8.85489 
        1.91647         54.4395         8.68672 
        1.93218         53.5948         8.52334 
        1.94787         53.1186         8.36445 
        1.96363         52.3599         8.20904 
        1.97935         51.9412         8.05794 
        1.99499         51.1529         7.91155 
        2.01064         51.0011         7.76863 
         2.0264         49.8535         7.62838 
        2.04216           49.46         7.49171 
        2.05781         48.8158         7.35929 
        2.07353         48.3448         7.22964 
        2.08928         47.7915         7.10287 
        2.10499         47.3647         6.97952 
        2.12065          46.873          6.8595 
        2.13633         46.6668         6.74223 
        2.15211         45.9799         6.62698 
        2.16785         45.0915         6.51478 
        2.18349         44.8016         6.40592 
        2.19916          44.441         6.29934 
        2.21489         43.8425         6.19486 
        2.23063         43.2944         6.09272 
         2.2463         42.7925         5.99336 
        2.26194         42.2209         5.89649 
        2.27765         41.7837         5.80129 
        2.29341         41.3625         5.70797 
        2.30914          40.915         5.61692 
        2.32486         40.4354         5.52793 
        2.34061         40.0723         5.44075 
        2.35635         39.6557         5.35554 
        2.37203         39.2177         5.27247 
        2.38768         38.8036         5.19136 
        2.40339         38.5348         5.11169 
        2.41914         38.1653         5.03352 
        2.43483         37.4449         4.95728 
         2.4505         37.1946         4.88276 
        2.46622         36.9107         4.80954 
        2.48195         36.5653         4.73783 
        2.49759         36.0462         4.66798 
        2.51328         35.5591         4.59938 
        2.52906         35.4331         4.53174 
        2.54479         34.8772         4.46572 
        2.56049         34.5495         4.40117 
        2.57618         34.1241         4.33796 
        2.59189         33.9272         4.27591 
        2.60758          33.588         4.21519 
        2.62325         33.1415         4.15573 
        2.63898         32.9063         4.09722 
        2.65468         32.4258         4.03998 
        2.67044         32.1994          3.9836 
        2.68618         31.8644         3.92844 
        2.70184         31.4717         3.87455 
        2.71755         31.3298         3.82155 
        2.73329         30.9334         3.76948 
        2.74897         30.5789         3.71855 
        2.76462         30.2338         3.66869 
        2.78034         30.0009         3.61955 
        2.79607         29.6485         3.57126 
        2.81179          29.488         3.52392 
        2.82749         29.1871         3.47751 
        2.84321         28.7357         3.43188 
        2.85893          28.475          3.3871 
        2.87462         28.2014          3.3432 
        2.89033         27.9838         3.30005 
        2.90605         27.7427         3.25763 
        2.92176         27.5689         3.21599 
        2.93747         27.1573          3.1751 
        2.95318         26.7851         3.13493 
        2.96891          26.699         3.09544 
        2.98456         26.2769         3.05681 
        3.00023         26.1248         3.01879 
        3.01596         25.8019         2.98131 
        3.03164         25.5537         2.94457 
        3.04738         25.4289         2.90836 
         3.0631         25.1046         2.87277 
        3.07883         24.8821         2.83779 
        3.09456         24.5793          2.8034 
        3.11026         24.3458         2.76964 
        3.12596         24.1518         2.73644 
        3.14163         23.9433         2.70387 
        3.15734         23.6865         2.67176 
        3.17308         23.5131          2.6401 
        3.18879         23.2381         2.60905 
        3.20447         23.0445         2.57854 
         3.2202         22.8056         2.54844 
         3.2359         22.5299         2.51887 
        3.25157         22.5222         2.48985 
        3.26729         22.2465          2.4612 
        3.28304          22.005         2.43295 
        3.29877         21.6775         2.40519 
        3.31446         21.6234         2.37792 
        3.33014         21.3545         2.35111 
        3.34585         21.1287         2.32467 
        3.36158         21.0065         2.29861 
        3.37727         20.7361         2.27303 
        3.39294          20.597         2.24787 
        3.40867         20.4224           2.223 
        3.42439         20.1819         2.19852 
        3.44008         19.9722         2.17447 
        3.45578         19.7887         2.15076 
        3.47153         19.6191         2.12736 
        3.48724          19.438         2.10435 
        3.50292         19.2739         2.08173 
        3.51859         19.1084         2.05947 
        3.53431          18.936         2.03746 
        3.55007         18.7536         2.01573 
        3.56577         18.5688          1.9944 
        3.58146         18.4158         1.97339 
        3.59719         18.2269         1.95264 
        3.61292         18.0367          1.9322 
        3.62859         17.9145         1.91213 
        3.64429         17.7528         1.89231 
        3.66003         17.6086         1.87271 
        3.67578         17.4322         1.85341 
        3.69146         17.2809         1.83445 
        3.70712         17.0875         1.81579 
        3.72284         17.0622         1.79732 
        3.73853         16.8658         1.77915 
        3.75422          16.617         1.76122 
        3.76993         16.5071         1.74353 
        3.78564         16.3621         1.72609 
        3.80137         16.2101         1.70886 
        3.81707         16.0619         1.69191 
        3.83279         15.8959         1.67518 
        3.84853          15.779         1.65864 
        3.86424         15.6793         1.64237 
        3.87992         15.4966         1.62634 
        3.89561           15.37         1.61053 
        3.91134         15.2289         1.59489 
        3.92704          15.093         1.57948 
        3.94273          14.996          1.5643 
        3.95845         14.8245         1.54929 
        3.97418         14.7345         1.53447 
        3.98988         14.5803         1.51987 
        4.00554         14.4784          1.5055 
        4.02125         14.3096         1.49128 
        4.03698         14.2601         1.47722 
        4.05268         14.0814         1.46338 
        4.06839         13.9454          1.4497 
         4.0841         13.8585         1.43621 
        4.09983         13.7283         1.42287 
        4.11555          13.582         1.40971 
        4.13124         13.5019         1.39675 
        4.14693         13.3838         1.38395 
        4.16266         13.2758         1.37128 
        4.17839          13.153         1.35877 
        4.19408         13.0362         1.34645 
        4.20977         12.9553         1.33428 
        4.22551         12.8288         1.32224 
        4.24123         12.7266         1.31035 
        4.25691         12.5715         1.29865 
        4.27259         12.5013         1.28709 
        4.28831         12.4036         1.27564 
        4.30404         12.2823         1.26433 
        4.31974          12.166         1.25318 
        4.33543         12.0747         1.24217 
        4.35116         11.9893         1.23127 
        4.36688         11.8583          1.2205 
        4.38255         11.7925         1.20991 
        4.39825         11.7059         1.19942 
        4.41398         11.6406         1.18903 
         4.4297         11.5064         1.17878 
        4.44541         11.3636         1.16865 
        4.46111         11.3146         1.15865 
        4.47683         11.2206         1.14877 
        4.49251         11.1241         1.13901 
        4.50819         11.0466         1.12938 
         4.5239         10.9777         1.11984 
        4.53962         10.8604         1.11041 
        4.55535         10.7722         1.10108 
        4.57106         10.6784         1.09187 
        4.58678         10.5829         1.08276 
         4.6025         10.5261         1.07376 
        4.61821         10.4221         1.06486 
        4.63391         10.3213         1.05608 
         4.6496         10.2772          1.0474 
        4.66532         10.1849          1.0388 
        4.68103         10.1046         1.03031 
        4.69673         10.0256         1.02192 
        4.71241         9.90195         1.01363 
        4.72811         9.83474         1.00542 
        4.74384         9.77704        0.997297 
        4.75955         9.70349        0.989273 
        4.77525         9.60916        0.981343 
        4.79096         9.57509        0.973491 
        4.80669         9.47526        0.965722 
         4.8224         9.42277        0.958048 
        4.83809         9.34032        0.950466 
        4.85379         9.24432        0.942962 
         4.8695         9.19869        0.935534 
        4.88521         9.11585         0.92819 
        4.90093         9.03561        0.920925 
        4.91663         8.97652        0.913744 
        4.93234         8.91524        0.906633 
        4.94807         8.83501        0.899594 
        4.96377         8.76368        0.892644 
        4.97943         8.70852        0.885782 
        4.99514         8.63724        0.878976 
        5.01086         8.57026        0.872237 
        5.02654         8.51181        0.865586 
        5.04227         8.45678        0.858985 
          5.058         8.36121        0.852452 
        5.07371         8.32902        0.845999 
        5.08942          8.2632        0.839613 
        5.10513         8.19654        0.833293 
        5.12084         8.14122        0.827036 
        5.13656         8.08752        0.820845 
        5.15225         8.01124        0.814728 
        5.16796         7.95764        0.808664 
        5.18369          7.9065        0.802658 
         5.1994         7.81868        0.796724 
        5.21509         7.77004        0.790855 
        5.23079         7.72267         0.78504 
        5.24649         7.65764        0.779288 
        5.26217         7.60752        0.773598 
        5.27788          7.5448        0.767958 
        5.29359         7.49136        0.762373 
        5.30933         7.45033        0.756837 
        5.32504         7.39725        0.751365 
        5.34073         7.32843        0.745954 
        5.35646          7.2824        0.740586 
        5.37218         7.22916         0.73527 
        5.38789         7.18141        0.730016 
        5.40357         7.13822        0.724819 
        5.41929         7.08182        0.719662 
        5.43502         7.02408        0.714555 
         5.4507          6.9799         0.70951 
        5.46639         6.92636        0.704514 
        5.48212         6.88069        0.699555 
        5.49786         6.85083        0.694638 
        5.51353         6.77807        0.689793 
        5.52921          6.7446         0.68499 
        5.54495         6.68265        0.680219 
        5.56066         6.63515        0.675499 
        5.57637         6.58588        0.670825 
        5.59207         6.55701          0.6662 
        5.60778         6.47972        0.661617 
        5.62346         6.44961        0.657084 
        5.63916         6.40756        0.652589 
        5.65487         6.37197        0.648135 
         5.6706         6.32232        0.643718 
        5.68633         6.27559         0.63934 
        5.70203         6.23922        0.635013 
        5.71773         6.20154        0.630726 
        5.73344         6.14602        0.626478 
        5.74916         6.11335        0.622265 
        5.76486         6.07802        0.618097 
        5.78054         6.03411        0.613974 
        5.79626          5.9856        0.609877 
          5.812         5.94294        0.605814 
         5.8277         5.89729        0.601801 
        5.84339         5.86536        0.597824 
        5.85911         5.82334        0.593875 
        5.87484         5.79433        0.589964 
        5.89053          5.7383        0.586095 
        5.90623         5.70361         0.58226 
        5.92195         5.67184        0.578453 
        5.93767         5.62529        0.574683 
        5.95336         5.58084        0.570953 
        5.96905         5.56421        0.567257 
        5.98476         5.53179        0.563589 
        6.00048         5.48431        0.559953 
        6.01617         5.44908        0.556354 
        6.03185         5.42091        0.552792 
        6.04756         5.38266        0.549252 
        6.06331         5.33984        0.545736 
        6.07903         5.31182        0.542259 
        6.09473         5.27709        0.538815 
        6.11044         5.23817        0.535399 
        6.12616         5.20696        0.532013 
        6.14186         5.16687         0.52866 
        6.15755         5.13824        0.525336 
        6.17326         5.10053        0.522039 
        6.18898         5.06601        0.518769 
        6.20467         5.03407        0.515533 
        6.22036         5.00247        0.512325 
         6.2361         4.97121        0.509136 
         6.2518         4.94676        0.505979 
        6.26748         4.91145        0.502857 
        6.28319         4.87711        0.499752 
        6.29893         4.85487        0.496671 
        6.31463         4.82532        0.493622 
        6.33033         4.78348        0.490599 
        6.34604         4.75765          0.4876 
        6.36177         4.73365        0.484624 
        6.37747         4.70698        0.481678 
