# k  (h/Mpc)    Pcb(k)  (Mpc/h)^3    Pcb_linear(k) (Mpc/h)^3   ShotnoiseSubtracted = true
      0.0200456         28778.6         29392.9 
      0.0350414         22329.5         21636.1 
      0.0492313         15859.5         16441.8 
      0.0637834         13080.1         14080.4 
      0.0800726         10022.4         10841.3 
       0.096163         8189.44         7926.78 
       0.111083         6957.12         6736.94 
       0.126058         5769.32         6009.02 
       0.142273         4980.67         4837.24 
       0.158546         4122.39          3890.6 
        0.17375          3817.5         3486.48 
       0.188953         3676.34         3140.69 
       0.204907         3153.94          2660.5 
       0.220756         2884.11         2284.97 
        0.23588            2601         2081.75 
         0.2514         2384.56         1890.24 
       0.267535         2281.89         1661.04 
       0.283568         2072.28         1477.66 
       0.299022         1979.89         1355.84 
       0.314451         2060.69         1243.03 
       0.330372         1886.18            1123 
       0.346141         1747.54          1022.8 
       0.361624         1669.49         945.529 
       0.377134         1621.72         874.505 
       0.392932          1530.3         804.445 
       0.408854          1485.6         742.558 
       0.424564         1458.08         690.801 
       0.440253         1385.13         643.608 
       0.455999          1324.7         599.156 
       0.471626         1324.39         559.439 
        0.48727         1269.74         524.235 
       0.502856         1249.28         492.079 
       0.518488         1192.06           462.1 
       0.534347         1158.22         434.301 
       0.550082         1122.17         409.276 
       0.565732         1093.09         386.352 
       0.581496         1066.68         364.927 
       0.597222         1061.45         345.177 
       0.612804         1028.51          327.16 
       0.628434         994.298         310.411 
       0.644267         972.774         294.642 
       0.660051           955.9         280.016 
       0.675724         945.549         266.481 
       0.691403          904.75         253.844 
       0.707174         888.092         241.967 
       0.722871         884.958          230.91 
        0.73838         852.579         220.674 
       0.754018         848.421         210.991 
       0.769845         826.573         201.793 
        0.78569         806.857         193.145 
       0.801365         789.954         185.097 
       0.817031         776.557          177.52 
       0.832809         759.195         170.326 
       0.848511         737.752         163.569 
       0.864097          733.01          157.23 
       0.879701         732.216         151.227 
       0.895507         711.501         145.471 
       0.911279         704.053         140.031 
        0.92691         689.586         134.919 
       0.942635         674.474         130.037 
       0.958396         669.898          125.39 
       0.974128         651.875         120.982 
       0.989692         641.697         116.833 
        1.00528         628.758         112.875 
        1.02113         616.457         109.041 
        1.03692         605.312         105.403 
        1.05264         599.822          101.95 
        1.06832         589.414          98.659 
        1.08405         579.636         95.5072 
        1.09979         568.853         92.4933 
        1.11537         554.971         89.6415 
        1.13105         548.633         86.8947 
        1.14679         539.914         84.2543 
        1.16256         533.104         81.7201 
        1.17828         525.109         79.3001 
        1.19395         515.042         76.9877 
         1.2097         503.102         74.7572 
        1.22537          498.43         72.6272 
          1.241         487.944         70.5878 
        1.25666         478.522         68.6228 
        1.27241         477.892         66.7245 
        1.28819         466.975         64.8959 
        1.30392         460.894         63.1421 
        1.31957         451.238         61.4618 
        1.33529         447.208         59.8374 
        1.35108         446.347         58.2662 
        1.36674         436.199         56.7634 
         1.3824         426.244         55.3157 
        1.39811         423.085         53.9144 
        1.41389         418.078          52.557 
        1.42964         408.508         51.2493 
        1.44531         405.008         49.9931 
        1.46101         393.339         48.7769 
        1.47667         391.834         47.6053 
        1.49229         388.078         46.4759 
        1.50793         377.614         45.3824 
        1.52367         373.638         44.3175 
        1.53953         367.407         43.2801 
        1.55526         359.757         42.2846 
        1.57092         355.608          41.325 
        1.58662         352.179         40.3933 
        1.60235         345.953          39.489 
        1.61809         340.039         38.6122 
        1.63369         336.272         37.7702 
        1.64941         330.998         36.9476 
        1.66519         327.958         36.1469 
        1.68085         319.659         35.3759 
        1.69652         316.448         34.6275 
        1.71228          311.81         33.8968 
        1.72806         307.913         33.1868 
        1.74368         304.895         32.5046 
        1.75933         300.948         31.8405 
        1.77505         296.166         31.1921 
        1.79081         292.232         30.5608 
         1.8065         289.066         29.9499 
        1.82218         282.601         29.3564 
        1.83797         280.207         28.7752 
        1.85367         275.398         28.2131 
        1.86928         271.928         27.6697 
        1.88497         268.232         27.1377 
        1.90073          265.26          26.618 
        1.91647         261.177         26.1125 
        1.93218         257.774         25.6213 
        1.94787         253.991         25.1437 
        1.96363         252.009         24.6765 
        1.97935          245.34         24.2223 
        1.99499         244.649         23.7823 
        2.01064         239.197         23.3527 
         2.0264          236.26         22.9311 
        2.04216         234.086         22.5202 
        2.05781         229.696         22.1222 
        2.07353         228.316         21.7325 
        2.08928         224.297         21.3514 
        2.10499         223.092         20.9806 
        2.12065         219.554         20.6198 
        2.13633         216.111         20.2673 
        2.15211         212.994         19.9209 
        2.16785         210.848         19.5836 
        2.18349         207.205         19.2563 
        2.19916         206.347          18.936 
        2.21489         202.894         18.6219 
        2.23063          200.63         18.3148 
         2.2463         197.438         18.0162 
        2.26194         194.797          17.725 
        2.27765         193.607         17.4388 
        2.29341         191.242         17.1583 
        2.30914         188.394         16.8846 
        2.32486         187.018         16.6171 
        2.34061         183.561          16.355 
        2.35635         181.204         16.0989 
        2.37203         180.191         15.8492 
        2.38768         177.364         15.6054 
        2.40339         174.466         15.3658 
        2.41914         173.326         15.1309 
        2.43483         171.191         14.9017 
         2.4505         168.997         14.6777 
        2.46622         166.927         14.4576 
        2.48195         164.518          14.242 
        2.49759         163.149         14.0321 
        2.51328         160.406         13.8258 
        2.52906         158.743         13.6225 
        2.54479         156.858         13.4241 
        2.56049         155.084           13.23 
        2.57618         153.368           13.04 
        2.59189         152.025         12.8535 
        2.60758         150.935         12.6709 
        2.62325         148.315         12.4922 
        2.63898         146.483         12.3163 
        2.65468         145.309         12.1443 
        2.67044         143.924         11.9748 
        2.68618          141.71          11.809 
        2.70184         140.395          11.647 
        2.71755         138.573         11.4877 
        2.73329         137.064         11.3311 
        2.74897         135.125          11.178 
        2.76462         133.858         11.0282 
        2.78034         132.536         10.8804 
        2.79607         131.187         10.7353 
        2.81179         129.251          10.593 
        2.82749         128.161         10.4535 
        2.84321         126.812         10.3163 
        2.85893           125.7         10.1817 
        2.87462         123.796         10.0497 
        2.89033         122.896         9.92002 
        2.90605         121.018         9.79251 
        2.92176         120.087         9.66733 
        2.93747          118.56         9.54443 
        2.95318         117.728         9.42366 
        2.96891         116.331         9.30495 
        2.98456         115.003         9.18883 
        3.00023         113.722         9.07455 
        3.01596         112.629         8.96187 
        3.03164         111.296         8.85145 
        3.04738         110.204         8.74259 
         3.0631         109.175         8.63562 
        3.07883         107.917         8.53045 
        3.09456         106.825         8.42707 
        3.11026         105.433         8.32558 
        3.12596         104.382          8.2258 
        3.14163         102.812         8.12789 
        3.15734         102.024         8.03137 
        3.17308         101.129          7.9362 
        3.18879          99.907         7.84285 
        3.20447         99.0199         7.75115 
         3.2202         97.9944         7.66065 
         3.2359         97.3739         7.57177 
        3.25157         96.3555         7.48453 
        3.26729         95.0216         7.39842 
        3.28304         94.3665          7.3135 
        3.29877         93.1656         7.23005 
        3.31446          92.354         7.14809 
        3.33014         91.5695         7.06749 
        3.34585          90.574         6.98802 
        3.36158         89.3437         6.90967 
        3.37727         88.5629         6.83277 
        3.39294         87.8626         6.75713 
        3.40867         86.8565         6.68238 
        3.42439          85.852         6.60881 
        3.44008          84.883          6.5365 
        3.45578         84.2494         6.46523 
        3.47153         83.3015         6.39488 
        3.48724         82.4798         6.32571 
        3.50292         81.8674         6.25774 
        3.51859         81.2408         6.19081 
        3.53431          80.276         6.12465 
        3.55007         79.4113         6.05932 
        3.56577         78.6223         5.99521 
        3.58146         77.9801         5.93206 
        3.59719         77.2884         5.86968 
        3.61292         76.7126         5.80823 
        3.62859         75.6742          5.7479 
        3.64429         75.2471         5.68833 
        3.66003         74.4656         5.62942 
        3.67578          73.657         5.57138 
        3.69146         73.0689         5.51438 
        3.70712         72.4391          5.4583 
        3.72284          71.669         5.40279 
        3.73853         70.9721         5.34816 
        3.75422         70.4207         5.29427 
        3.76993         69.7359         5.24109 
        3.78564         68.8261         5.18867 
        3.80137         68.5336         5.13688 
        3.81707         67.8728         5.08592 
        3.83279         67.0535         5.03562 
        3.84853         66.8565         4.98592 
        3.86424         66.0184           4.937 
        3.87992         65.2842         4.88881 
        3.89561         64.8452         4.84127 
        3.91134         64.2791         4.79428 
        3.92704         63.9066         4.74796 
        3.94273         62.8387         4.70231 
        3.95845         62.4489         4.65719 
        3.97418         61.9838         4.61265 
        3.98988         61.5255         4.56876 
        4.00554         60.7693         4.52557 
        4.02125         60.3436         4.48282 
        4.03698         59.7695         4.44056 
        4.05268         59.3356         4.39895 
        4.06839         58.7046         4.35784 
         4.0841         58.3176         4.31728 
        4.09983          57.709         4.27718 
        4.11555         57.2633         4.23762 
        4.13124         56.7784         4.19867 
        4.14693         55.9849         4.16017 
        4.16266         55.7498         4.12208 
        4.17839         55.2632          4.0845 
        4.19408         54.7118         4.04747 
        4.20977         54.3009         4.01089 
        4.22551         53.7879         3.97468 
        4.24123          53.341         3.93895 
        4.25691         52.9596         3.90377 
        4.27259         52.4322         3.86901 
        4.28831         52.0629         3.83461 
        4.30404         51.6792          3.8006 
        4.31974         51.1411         3.76708 
        4.33543         50.6684         3.73399 
        4.35116         50.3224         3.70122 
        4.36688         49.8398         3.66886 
        4.38255         49.4704         3.63701 
        4.39825         49.0284         3.60547 
        4.41398         48.6042         3.57425 
         4.4297         48.2371         3.54344 
        4.44541         47.7956           3.513 
        4.46111         47.2836         3.48294 
        4.47683         47.0079         3.45321 
        4.49251         46.6593          3.4239 
        4.50819         46.2884         3.39494 
         4.5239         45.8022         3.36627 
        4.53962         45.4764         3.33791 
        4.55535         45.1366         3.30986 
        4.57106         44.8927         3.28217 
        4.58678         44.4127          3.2548 
         4.6025         44.0023         3.22774 
        4.61821         43.6742           3.201 
        4.63391         43.3033         3.17459 
         4.6496         43.0636          3.1485 
        4.66532          42.627         3.12266 
        4.68103         42.2666         3.09713 
        4.69673         41.9763         3.07191 
        4.71241          41.642           3.047 
        4.72811         41.3026         3.02232 
        4.74384         40.9349         2.99789 
        4.75955         40.7115         2.97378 
        4.77525          40.248         2.94994 
        4.79096         39.9332         2.92633 
        4.80669         39.6736         2.90298 
         4.8224         39.4103         2.87991 
        4.83809         39.0439         2.85712 
        4.85379         38.7857         2.83456 
         4.8695         38.4421         2.81224 
        4.88521         38.1057         2.79016 
        4.90093          37.819         2.76832 
        4.91663         37.4842         2.74673 
        4.93234         37.2139         2.72536 
        4.94807         36.9132          2.7042 
        4.96377         36.6433         2.68331 
        4.97943         36.2663         2.66268 
        4.99514         36.0498         2.64222 
        5.01086         35.9025         2.62196 
        5.02654         35.5199         2.60197 
        5.04227         35.2232         2.58213 
          5.058         34.9487         2.56249 
        5.07371         34.6951         2.54309 
        5.08942         34.4099          2.5239 
        5.10513         34.1511          2.5049 
        5.12084          33.889         2.48609 
        5.13656         33.7081         2.46748 
        5.15225         33.4579         2.44909 
        5.16796          33.144         2.43086 
        5.18369         32.9052         2.41281 
         5.1994         32.6426         2.39497 
        5.21509         32.4211         2.37733 
        5.23079         32.1371         2.35985 
        5.24649         31.9006         2.34256 
        5.26217         31.7364         2.32545 
        5.27788          31.412          2.3085 
        5.29359         31.1756         2.29171 
        5.30933         30.9634         2.27507 
        5.32504         30.6985         2.25862 
        5.34073         30.5155         2.24235 
        5.35646         30.3535         2.22622 
        5.37218         30.0467         2.21024 
        5.38789         29.8347         2.19444 
        5.40357         29.6249         2.17882 
        5.41929         29.4203         2.16332 
        5.43502         29.1966         2.14797 
         5.4507         28.9652          2.1328 
        5.46639         28.7728         2.11778 
        5.48212         28.5675         2.10288 
        5.49786         28.3834          2.0881 
        5.51353         28.1137         2.07353 
        5.52921         27.9609         2.05909 
        5.54495         27.7514         2.04475 
        5.56066         27.5698         2.03056 
        5.57637          27.313         2.01651 
        5.59207         27.1503         2.00261 
        5.60778         26.9472         1.98883 
        5.62346         26.7808         1.97521 
        5.63916          26.564          1.9617 
        5.65487         26.3464         1.94831 
         5.6706         26.2374         1.93503 
        5.68633         26.0177         1.92187 
        5.70203         25.8326         1.90886 
        5.71773         25.5963         1.89598 
        5.73344         25.4538         1.88321 
        5.74916         25.2401         1.87054 
        5.76486         25.1107         1.85801 
        5.78054         24.9013         1.84562 
        5.79626         24.7475          1.8333 
          5.812         24.5746         1.82109 
         5.8277         24.3707         1.80903 
        5.84339         24.2033         1.79707 
        5.85911         24.0186          1.7852 
        5.87484         23.9074         1.77344 
        5.89053         23.7464         1.76182 
        5.90623         23.5105         1.75029 
        5.92195         23.3891         1.73884 
        5.93767         23.1646         1.72751 
        5.95336         23.0304          1.7163 
        5.96905         22.8762         1.70519 
        5.98476         22.6949         1.69416 
        6.00048         22.5755         1.68323 
        6.01617         22.4413         1.67241 
        6.03185         22.2543          1.6617 
        6.04756         22.0971         1.65106 
        6.06331         21.9391          1.6405 
        6.07903         21.7954         1.63004 
        6.09473         21.6276         1.61969 
        6.11044         21.5094         1.60942 
        6.12616         21.3603         1.59924 
        6.14186         21.2201         1.58916 
        6.15755         21.0579         1.57917 
        6.17326         20.9497         1.56926 
        6.18898         20.7943         1.55943 
        6.20467          20.639          1.5497 
        6.22036         20.4776         1.54006 
         6.2361         20.3682         1.53047 
         6.2518         20.2022         1.52098 
        6.26748         20.0661          1.5116 
        6.28319         19.9495         1.50226 
        6.29893         19.8475           1.493 
        6.31463          19.739         1.48384 
        6.33033         19.5853         1.47475 
        6.34604         19.4218         1.46574 
        6.36177          19.303         1.45679 
        6.37747         19.1772         1.44793 
