# k  (h/Mpc)    Pcb(k)  (Mpc/h)^3    Pcb_linear(k) (Mpc/h)^3   ShotnoiseSubtracted = true
      0.0200456         7442.91         7586.89 
      0.0350414         5456.77         5584.69 
      0.0492313         4213.66         4243.96 
      0.0637834         3676.21         3634.43 
      0.0800726         2842.28         2798.34 
       0.096163          2011.3         2046.06 
       0.111083         1681.46         1738.94 
       0.126058         1554.79         1551.05 
       0.142273         1289.64         1248.58 
       0.158546         1073.74         1004.24 
        0.17375         905.285         899.929 
       0.188953           862.1         810.673 
       0.204907         788.529         686.727 
       0.220756         670.223         589.795 
        0.23588         600.752         537.341 
         0.2514         529.924         487.909 
       0.267535          501.74         428.747 
       0.283568         456.986         381.413 
       0.299022         426.518         349.968 
       0.314451         395.315         320.851 
       0.330372          365.34         289.868 
       0.346141         330.431         264.006 
       0.361624         316.993          244.06 
       0.377134          297.78         225.727 
       0.392932         276.216         207.643 
       0.408854         265.482         191.669 
       0.424564         254.799         178.309 
       0.440253         241.989         166.128 
       0.455999         228.198         154.654 
       0.471626         211.224         144.402 
        0.48727         206.203         135.315 
       0.502856         198.281         127.015 
       0.518488         194.246         119.277 
       0.534347         184.681         112.102 
       0.550082         172.051         105.642 
       0.565732         167.487         99.7251 
       0.581496         160.117         94.1948 
       0.597222         155.452         89.0968 
       0.612804         148.673         84.4463 
       0.628434         145.402         80.1231 
       0.644267         140.507         76.0527 
       0.660051         137.953         72.2776 
       0.675724         134.047          68.784 
       0.691403          130.07          65.522 
       0.707174         124.954         62.4564 
       0.722871         123.187         59.6024 
        0.73838         120.857         56.9602 
       0.754018         115.503         54.4609 
       0.769845         113.372         52.0868 
        0.78569         110.682         49.8544 
       0.801365          107.63          47.777 
       0.817031         103.955         45.8213 
       0.832809         102.714         43.9644 
       0.848511         99.2799         42.2202 
       0.864097          96.589         40.5842 
       0.879701         95.6377         39.0347 
       0.895507         93.3876         37.5489 
       0.911279         92.1677         36.1447 
        0.92691         89.8225         34.8251 
       0.942635         87.3935         33.5651 
       0.958396         86.9877         32.3656 
       0.974128         84.7576         31.2278 
       0.989692         82.7004         30.1568 
        1.00528         81.2789         29.1352 
        1.02113         79.7064         28.1457 
        1.03692         77.4919         27.2065 
        1.05264         77.1154         26.3152 
        1.06832         75.2675         25.4658 
        1.08405         74.3153         24.6523 
        1.09979          73.504         23.8743 
        1.11537          70.868         23.1382 
        1.13105         71.2428         22.4292 
        1.14679         69.8207         21.7477 
        1.16256         68.6349         21.0935 
        1.17828         66.8333         20.4689 
        1.19395         66.3872          19.872 
         1.2097          64.737         19.2963 
        1.22537         64.7441         18.7465 
          1.241         63.0949         18.2201 
        1.25666         61.9274         17.7129 
        1.27241          61.454         17.2229 
        1.28819         60.1004         16.7509 
        1.30392         59.1553         16.2982 
        1.31957         58.7187         15.8645 
        1.33529         57.9069         15.4452 
        1.35108         57.4108         15.0396 
        1.36674         56.5084         14.6517 
         1.3824         55.1539         14.2781 
        1.39811         54.8947         13.9164 
        1.41389         53.9608          13.566 
        1.42964         53.1753         13.2284 
        1.44531         52.5892         12.9042 
        1.46101           51.41         12.5903 
        1.47667          51.405         12.2879 
        1.49229         50.7888         11.9963 
        1.50793         49.8515         11.7141 
        1.52367         49.1939         11.4392 
        1.53953         48.8568         11.1714 
        1.55526         48.0558         10.9145 
        1.57092          47.664         10.6668 
        1.58662         47.0122         10.4263 
        1.60235          46.466         10.1929 
        1.61809          45.675         9.96656 
        1.63369         45.0186         9.74922 
        1.64941         44.4189          9.5369 
        1.66519         43.8829         9.33022 
        1.68085         43.5572         9.13121 
        1.69652           42.96         8.93803 
        1.71228         42.7599         8.74942 
        1.72806         42.0754         8.56617 
        1.74368         41.5209         8.39008 
        1.75933         41.0485         8.21866 
        1.77505         40.6939         8.05128 
        1.79081         40.0644         7.88833 
         1.8065         39.6318         7.73064 
        1.82218         39.2576         7.57747 
        1.83797         38.7398         7.42744 
        1.85367         38.1546         7.28236 
        1.86928         37.9493         7.14208 
        1.88497         37.4025         7.00478 
        1.90073         37.1755         6.87062 
        1.91647         36.6936         6.74014 
        1.93218         36.2685         6.61337 
        1.94787         35.8931         6.49009 
        1.96363         35.5872          6.3695 
        1.97935         35.1669         6.25226 
        1.99499         34.6951         6.13867 
        2.01064          34.412         6.02778 
         2.0264          33.892         5.91896 
        2.04216         33.4583         5.81291 
        2.05781         33.1918         5.71017 
        2.07353          32.857         5.60957 
        2.08928         32.7634         5.51121 
        2.10499         32.3512          5.4155 
        2.12065         31.8423         5.32237 
        2.13633         31.6602         5.23138 
        2.15211         31.0592         5.14196 
        2.16785         30.7818          5.0549 
        2.18349         30.6745         4.97043 
        2.19916         30.3428         4.88774 
        2.21489          29.847         4.80667 
        2.23063         29.6916         4.72742 
         2.2463         29.4563         4.65032 
        2.26194         29.0871         4.57516 
        2.27765          28.788          4.5013 
        2.29341         28.4469         4.42889 
        2.30914         28.3309         4.35824 
        2.32486         27.8965         4.28919 
        2.34061          27.693         4.22154 
        2.35635         27.3454         4.15543 
        2.37203          27.103         4.09098 
        2.38768         26.8444         4.02805 
        2.40339         26.7343         3.96622 
        2.41914         26.4023         3.90557 
        2.43483         26.0236         3.84641 
         2.4505         25.7893          3.7886 
        2.46622           25.55         3.73178 
        2.48195         25.3276         3.67614 
        2.49759         25.0257         3.62195 
        2.51328         24.8132         3.56872 
        2.52906         24.6292         3.51623 
        2.54479         24.2916         3.46501 
        2.56049         24.0082         3.41492 
        2.57618         23.7823         3.36588 
        2.59189          23.644         3.31773 
        2.60758         23.4571         3.27062 
        2.62325         23.1471         3.22448 
        2.63898         23.0561         3.17909 
        2.65468         22.7476         3.13467 
        2.67044         22.5165         3.09093 
        2.68618         22.3107         3.04812 
        2.70184         22.1278         3.00631 
        2.71755         21.9147         2.96519 
        2.73329         21.6996         2.92478 
        2.74897         21.3879         2.88527 
        2.76462         21.4367         2.84658 
        2.78034         21.1238         2.80845 
        2.79607         20.9193         2.77099 
        2.81179         20.7646         2.73426 
        2.82749         20.5542         2.69824 
        2.84321         20.3983         2.66284 
        2.85893         20.1816         2.62809 
        2.87462         19.9485         2.59403 
        2.89033         19.8338         2.56055 
        2.90605         19.6963         2.52764 
        2.92176          19.368         2.49533 
        2.93747         19.3104          2.4636 
        2.95318         19.0766         2.43243 
        2.96891          18.915         2.40179 
        2.98456         18.7253         2.37182 
        3.00023         18.6083         2.34232 
        3.01596         18.4245         2.31323 
        3.03164         18.2804         2.28473 
        3.04738          18.048         2.25663 
         3.0631         17.8908         2.22902 
        3.07883         17.7651         2.20188 
        3.09456         17.6221         2.17519 
        3.11026         17.4632           2.149 
        3.12596         17.2379         2.12324 
        3.14163         17.1955         2.09797 
        3.15734         16.9294         2.07305 
        3.17308         16.8156         2.04849 
        3.18879         16.6699         2.02439 
        3.20447         16.5086         2.00072 
         3.2202         16.3553         1.97736 
         3.2359         16.2527         1.95442 
        3.25157         16.1397          1.9319 
        3.26729         15.9611         1.90968 
        3.28304         15.8376         1.88776 
        3.29877         15.6599         1.86622 
        3.31446          15.487         1.84506 
        3.33014         15.3566         1.82426 
        3.34585         15.2097         1.80374 
        3.36158         15.1115         1.78352 
        3.37727         14.9518         1.76367 
        3.39294         14.8401         1.74415 
        3.40867         14.7039         1.72485 
        3.42439         14.5697         1.70586 
        3.44008         14.4922          1.6872 
        3.45578          14.357          1.6688 
        3.47153         14.2374         1.65064 
        3.48724         14.1227         1.63279 
        3.50292          13.938         1.61524 
        3.51859         13.8634         1.59797 
        3.53431         13.7652         1.58089 
        3.55007         13.6516         1.56403 
        3.56577         13.5331         1.54748 
        3.58146         13.4354         1.53118 
        3.59719         13.2601         1.51508 
        3.61292         13.1842         1.49922 
        3.62859          13.035         1.48365 
        3.64429         12.9185         1.46827 
        3.66003         12.8268         1.45306 
        3.67578         12.7513         1.43808 
        3.69146         12.6327         1.42337 
        3.70712         12.4872         1.40889 
        3.72284         12.4074         1.39457 
        3.73853         12.2788         1.38046 
        3.75422         12.2261         1.36656 
        3.76993         12.1112         1.35283 
        3.78564         11.9725          1.3393 
        3.80137         11.8856         1.32593 
        3.81707          11.761         1.31278 
        3.83279          11.699         1.29979 
        3.84853           11.59         1.28696 
        3.86424         11.4786         1.27434 
        3.87992         11.4072          1.2619 
        3.89561         11.3194         1.24963 
        3.91134         11.2498          1.2375 
        3.92704         11.1121         1.22554 
        3.94273         11.0217         1.21376 
        3.95845         10.9539         1.20211 
        3.97418         10.8634         1.19062 
        3.98988         10.7653         1.17929 
        4.00554         10.6945         1.16814 
        4.02125         10.5669          1.1571 
        4.03698         10.5045          1.1462 
        4.05268          10.425         1.13545 
        4.06839         10.3123         1.12484 
         4.0841         10.2764         1.11437 
        4.09983         10.1597         1.10402 
        4.11555         10.0689         1.09381 
        4.13124         10.0111         1.08376 
        4.14693         9.90869         1.07382 
        4.16266         9.84688         1.06399 
        4.17839         9.75453         1.05429 
        4.19408         9.69735         1.04473 
        4.20977         9.61052         1.03529 
        4.22551         9.54879         1.02594 
        4.24123         9.47793         1.01672 
        4.25691         9.38355         1.00764 
        4.27259         9.31065        0.998668 
        4.28831         9.23855        0.989789 
        4.30404         9.16021         0.98101 
        4.31974         9.09798        0.972358 
        4.33543         8.99819        0.963816 
        4.35116         8.93495        0.955357 
        4.36688         8.87843        0.947004 
        4.38255         8.81119        0.938783 
        4.39825         8.72098        0.930643 
        4.41398         8.68142        0.922584 
         4.4297          8.6083         0.91463 
        4.44541          8.5394        0.906773 
        4.46111         8.45882        0.899014 
        4.47683         8.39222        0.891342 
        4.49251         8.33449        0.883776 
        4.50819         8.28786          0.8763 
         4.5239         8.23412        0.868901 
        4.53962         8.15701        0.861579 
        4.55535         8.08005        0.854339 
        4.57106         8.01851        0.847193 
        4.58678         7.94746        0.840128 
         4.6025         7.89719        0.833144 
        4.61821         7.84546         0.82624 
        4.63391         7.79493        0.819424 
         4.6496         7.70899        0.812689 
        4.66532         7.67276         0.80602 
        4.68103          7.5869         0.79943 
        4.69673          7.5427         0.79292 
        4.71241         7.51673        0.786489 
        4.72811         7.41959        0.780121 
        4.74384           7.373        0.773815 
        4.75955         7.31925         0.76759 
        4.77525         7.26762        0.761436 
        4.79096         7.21246        0.755344 
        4.80669         7.17144        0.749316 
         4.8224         7.12213        0.743362 
        4.83809         7.03676        0.737479 
        4.85379         6.98174        0.731656 
         4.8695         6.94328        0.725893 
        4.88521         6.89303        0.720194 
        4.90093         6.84486        0.714557 
        4.91663         6.79647        0.708986 
        4.93234         6.72929        0.703468 
        4.94807            6.69        0.698007 
        4.96377          6.6438        0.692614 
        4.97943         6.59569         0.68729 
        4.99514         6.54754        0.682009 
        5.01086         6.49814        0.676779 
        5.02654         6.43828        0.671619 
        5.04227         6.40027        0.666498 
          5.058         6.37234        0.661428 
        5.07371         6.31874        0.656422 
        5.08942         6.26258        0.651467 
        5.10513         6.20529        0.646563 
        5.12084          6.1818        0.641708 
        5.13656         6.13329        0.636904 
        5.15225         6.09178        0.632158 
        5.16796          6.0361        0.627453 
        5.18369         6.00593        0.622792 
         5.1994         5.96225        0.618188 
        5.21509         5.91803        0.613635 
        5.23079         5.87722        0.609122 
        5.24649         5.83444        0.604659 
        5.26217         5.79771        0.600245 
        5.27788         5.74844        0.595868 
        5.29359         5.72256        0.591535 
        5.30933         5.67515        0.587239 
        5.32504         5.63323        0.582994 
        5.34073         5.59348        0.578795 
        5.35646         5.55616         0.57463 
        5.37218         5.52089        0.570505 
        5.38789         5.48388        0.566428 
        5.40357         5.44057        0.562396 
        5.41929         5.40875        0.558395 
        5.43502         5.37487        0.554432 
         5.4507         5.33405        0.550518 
        5.46639         5.28539        0.546641 
        5.48212         5.24528        0.542793 
        5.49786         5.22768        0.538978 
        5.51353         5.17642        0.535219 
        5.52921         5.15521        0.531492 
        5.54495          5.1158         0.52779 
        5.56066         5.08431        0.524128 
        5.57637         5.04505        0.520502 
        5.59207         5.00241        0.516913 
        5.60778         4.98091        0.513357 
        5.62346         4.94455         0.50984 
        5.63916         4.91875        0.506352 
        5.65487         4.87036        0.502896 
         5.6706         4.84714        0.499469 
        5.68633         4.81848        0.496072 
        5.70203         4.78449        0.492714 
        5.71773         4.75602        0.489389 
        5.73344         4.72231        0.486092 
        5.74916         4.69391        0.482823 
        5.76486          4.6539        0.479589 
        5.78054         4.61737         0.47639 
        5.79626         4.59647        0.473212 
          5.812         4.56532        0.470059 
         5.8277         4.53916        0.466945 
        5.84339         4.51671        0.463859 
        5.85911         4.48146        0.460795 
        5.87484          4.4485         0.45776 
        5.89053          4.4255        0.454759 
        5.90623         4.40147        0.451783 
        5.92195         4.35932        0.448829 
        5.93767         4.34245        0.445904 
        5.95336         4.30903        0.443009 
        5.96905         4.27778        0.440142 
        5.98476         4.25171        0.437296 
        6.00048         4.22342        0.434475 
        6.01617         4.20357        0.431682 
        6.03185         4.17282        0.428918 
        6.04756         4.15673        0.426172 
        6.06331         4.12139        0.423444 
        6.07903         4.09651        0.420746 
        6.09473         4.07287        0.418074 
        6.11044         4.04159        0.415423 
        6.12616         4.03449        0.412796 
        6.14186         3.99289        0.410194 
        6.15755         3.97454        0.407615 
        6.17326         3.95702        0.405057 
        6.18898         3.92345        0.402519 
        6.20467         3.89832        0.400008 
        6.22036         3.88083        0.397519 
         6.2361         3.84746        0.395045 
         6.2518          3.8302        0.392596 
        6.26748         3.80759        0.390173 
        6.28319         3.78205        0.387764 
        6.29893         3.75824        0.385373 
        6.31463         3.73482        0.383008 
        6.33033         3.71188        0.380662 
        6.34604         3.68694        0.378335 
        6.36177         3.66916        0.376026 
        6.37747         3.64291         0.37374 
