# k  (h/Mpc)    Pcb(k)  (Mpc/h)^3    Pcb_linear(k) (Mpc/h)^3   ShotnoiseSubtracted = true
      0.0200456         2369.58          2403.4 
      0.0350414         1797.54         1769.14 
      0.0492313         1344.84         1344.41 
      0.0637834         1129.91         1151.32 
      0.0800726         872.055         886.468 
       0.096163         661.789         648.156 
       0.111083         564.125         550.865 
       0.126058         485.807         491.345 
       0.142273          394.64          395.53 
       0.158546         323.604         318.126 
        0.17375         291.898         285.082 
       0.188953         262.257         256.807 
       0.204907         217.095         217.543 
       0.220756         193.104         186.837 
        0.23588         174.956          170.22 
         0.2514         158.526         154.561 
       0.267535         144.228          135.82 
       0.283568         127.315         120.825 
       0.299022         118.656         110.864 
       0.314451         112.436          101.64 
       0.330372         99.5514         91.8253 
       0.346141          91.449         83.6324 
       0.361624          84.976         77.3139 
       0.377134         77.9495         71.5064 
       0.392932         75.3667         65.7777 
       0.408854         69.0899         60.7174 
       0.424564         66.2537         56.4853 
       0.440253         60.6706         52.6264 
       0.455999         55.6048         48.9917 
       0.471626         52.7665         45.7441 
        0.48727         51.4052         42.8655 
       0.502856         48.0322         40.2362 
       0.518488         45.1479         37.7849 
       0.534347         42.6012         35.5119 
       0.550082          41.045         33.4656 
       0.565732         39.5739         31.5912 
       0.581496         37.2281         29.8393 
       0.597222         35.2768         28.2244 
       0.612804         33.7722         26.7511 
       0.628434         33.1327         25.3816 
       0.644267          31.402         24.0922 
       0.660051         29.9167         22.8963 
       0.675724         28.5871         21.7896 
       0.691403         28.0444         20.7562 
       0.707174         26.9811         19.7851 
       0.722871         26.1109          18.881 
        0.73838          24.762          18.044 
       0.754018         23.5946         17.2523 
       0.769845         22.9952         16.5002 
        0.78569         22.3022          15.793 
       0.801365         21.5076         15.1349 
       0.817031         20.7881         14.5154 
       0.832809          20.179         13.9272 
       0.848511         19.5818         13.3747 
       0.864097         18.9674         12.8564 
       0.879701         18.6604         12.3655 
       0.895507         17.9851         11.8949 
       0.911279         17.2744           11.45 
        0.92691         16.9486          11.032 
       0.942635         16.5524         10.6328 
       0.958396         15.9908         10.2529 
       0.974128         15.6252         9.89243 
       0.989692         14.9667         9.55316 
        1.00528         14.8768         9.22955 
        1.02113         14.3943         8.91608 
        1.03692          14.071         8.61856 
        1.05264         13.7565          8.3362 
        1.06832         13.4693         8.06714 
        1.08405         13.1234         7.80942 
        1.09979         12.8184         7.56298 
        1.11537         12.5163         7.32979 
        1.13105         12.2954          7.1052 
        1.14679         12.0295         6.88929 
        1.16256         11.7564         6.68207 
        1.17828         11.5386         6.48419 
        1.19395         11.3149         6.29512 
         1.2097         10.9645         6.11274 
        1.22537         10.7871         5.93857 
          1.241         10.5271         5.77182 
        1.25666         10.4967         5.61114 
        1.27241         10.2656         5.45592 
        1.28819         9.86808         5.30639 
        1.30392         9.81057         5.16299 
        1.31957         9.60517          5.0256 
        1.33529         9.47786         4.89278 
        1.35108         9.27603          4.7643 
        1.36674         9.06688         4.64142 
         1.3824         8.97376         4.52304 
        1.39811         8.80849         4.40847 
        1.41389         8.60684         4.29747 
        1.42964         8.51508         4.19054 
        1.44531         8.35084         4.08782 
        1.46101         8.25373         3.98838 
        1.47667         8.08737         3.89258 
        1.49229         7.90867         3.80024 
        1.50793          7.8106         3.71082 
        1.52367         7.67872         3.62375 
        1.53953         7.53758         3.53892 
        1.55526         7.49491         3.45752 
        1.57092         7.34561         3.37906 
        1.58662         7.24041         3.30288 
        1.60235         7.13476         3.22893 
        1.61809         7.04542         3.15724 
        1.63369         6.91013         3.08839 
        1.64941         6.81458         3.02113 
        1.66519         6.72683         2.95565 
        1.68085         6.61888         2.89261 
        1.69652         6.55569         2.83142 
        1.71228         6.47873         2.77167 
        1.72806          6.3573         2.71362 
        1.74368         6.30651         2.65783 
        1.75933         6.21013         2.60353 
        1.77505         6.09258         2.55051 
        1.79081         6.06255         2.49889 
         1.8065         5.99011         2.44894 
        1.82218         5.89064         2.40041 
        1.83797         5.79392         2.35289 
        1.85367         5.72166         2.30693 
        1.86928         5.69688         2.26249 
        1.88497         5.57568         2.21899 
        1.90073         5.52502         2.17649 
        1.91647         5.44967         2.13516 
        1.93218         5.39004           2.095 
        1.94787         5.32495         2.05595 
        1.96363          5.2705         2.01775 
        1.97935         5.21634         1.98061 
        1.99499         5.15405         1.94463 
        2.01064         5.10293          1.9095 
         2.0264         5.02946         1.87502 
        2.04216            4.98         1.84143 
        2.05781         4.91487         1.80888 
        2.07353         4.88488         1.77702 
        2.08928          4.7907         1.74586 
        2.10499         4.75519         1.71554 
        2.12065         4.75741         1.68604 
        2.13633         4.67654         1.65721 
        2.15211         4.60499         1.62889 
        2.16785         4.55868         1.60131 
        2.18349         4.52853         1.57455 
        2.19916         4.48265         1.54835 
        2.21489         4.43031         1.52267 
        2.23063         4.37619         1.49756 
         2.2463         4.33209         1.47314 
        2.26194         4.28453         1.44933 
        2.27765         4.21328         1.42593 
        2.29341         4.18361           1.403 
        2.30914         4.14373         1.38062 
        2.32486         4.12323         1.35874 
        2.34061         4.08103         1.33731 
        2.35635         4.04296         1.31637 
        2.37203         4.01918         1.29595 
        2.38768         3.98485         1.27602 
        2.40339         3.92028         1.25643 
        2.41914         3.88198         1.23722 
        2.43483         3.84434         1.21848 
         2.4505         3.82217         1.20016 
        2.46622         3.78264         1.18216 
        2.48195         3.75729         1.16454 
        2.49759         3.71261         1.14737 
        2.51328         3.68287         1.13051 
        2.52906         3.65004         1.11388 
        2.54479         3.61496         1.09766 
        2.56049         3.58397         1.08179 
        2.57618         3.55415         1.06625 
        2.59189          3.5499           1.051 
        2.60758         3.50511         1.03608 
        2.62325         3.45303         1.02146 
        2.63898         3.42415         1.00708 
        2.65468          3.3977        0.993011 
        2.67044         3.39531        0.979152 
        2.68618          3.3573        0.965594 
        2.70184         3.32571        0.952349 
        2.71755         3.29072        0.939322 
        2.73329         3.25975        0.926522 
        2.74897         3.23827        0.914004 
        2.76462         3.20462        0.901749 
        2.78034          3.1967        0.889669 
        2.79607         3.15707        0.877801 
        2.81179          3.1335        0.866166 
        2.82749          3.1063        0.854757 
        2.84321         3.08716        0.843542 
        2.85893         3.05328        0.832535 
        2.87462         3.04499        0.821745 
        2.89033         3.01916        0.811139 
        2.90605         2.99962        0.800713 
        2.92176         2.96724        0.790477 
        2.93747          2.9432        0.780427 
        2.95318         2.92311        0.770552 
        2.96891         2.91344        0.760846 
        2.98456          2.8907        0.751351 
        3.00023         2.86771        0.742006 
        3.01596         2.83508        0.732793 
        3.03164         2.81489        0.723764 
        3.04738         2.80163        0.714863 
         3.0631         2.78036        0.706116 
        3.07883         2.76131        0.697517 
        3.09456         2.73285        0.689064 
        3.11026         2.72115        0.680765 
        3.12596         2.69882        0.672606 
        3.14163         2.68681          0.6646 
        3.15734         2.66202        0.656708 
        3.17308         2.65114        0.648926 
        3.18879         2.62978        0.641293 
        3.20447         2.59964        0.633795 
         3.2202         2.60302        0.626395 
         3.2359         2.57478        0.619128 
        3.25157         2.55349        0.611994 
        3.26729         2.53624        0.604953 
        3.28304         2.51852        0.598009 
        3.29877         2.50069        0.591185 
        3.31446          2.4882        0.584484 
        3.33014         2.46529        0.577893 
        3.34585         2.45589        0.571395 
        3.36158         2.43404        0.564988 
        3.37727         2.42865        0.558701 
        3.39294         2.40541        0.552516 
        3.40867         2.39745        0.546404 
        3.42439         2.37782        0.540388 
        3.44008         2.36134        0.534476 
        3.45578          2.3438        0.528648 
        3.47153         2.33287        0.522896 
        3.48724         2.31757         0.51724 
        3.50292         2.29666        0.511682 
        3.51859         2.29492        0.506209 
        3.53431         2.26854          0.5008 
        3.55007         2.26432        0.495458 
        3.56577         2.24571        0.490215 
        3.58146         2.23769        0.485051 
        3.59719         2.21907        0.479951 
        3.61292         2.20707        0.474927 
        3.62859         2.19016        0.469994 
        3.64429         2.17834        0.465122 
        3.66003         2.16563        0.460306 
        3.67578         2.15218         0.45556 
        3.69146           2.135        0.450899 
        3.70712         2.12183        0.446313 
        3.72284         2.11138        0.441774 
        3.73853         2.10489        0.437308 
        3.75422         2.08555        0.432901 
        3.76993         2.07403        0.428553 
        3.78564         2.06052        0.424266 
        3.80137         2.04854        0.420032 
        3.81707         2.03573        0.415865 
        3.83279         2.03239        0.411752 
        3.84853         2.01549        0.407688 
        3.86424         1.99861        0.403688 
        3.87992         1.99135        0.399748 
        3.89561         1.97376         0.39586 
        3.91134           1.969        0.392018 
        3.92704         1.95557        0.388231 
        3.94273         1.94517        0.384498 
        3.95845         1.93009        0.380808 
        3.97418         1.92497        0.377166 
        3.98988         1.91535        0.373578 
        4.00554         1.89978        0.370046 
        4.02125         1.89114         0.36655 
        4.03698         1.87581        0.363095 
        4.05268         1.86626        0.359692 
        4.06839         1.85242        0.356331 
         4.0841         1.83773        0.353015 
        4.09983         1.82631        0.349736 
        4.11555         1.81882        0.346501 
        4.13124         1.80104        0.343316 
        4.14693         1.79334        0.340169 
        4.16266         1.78454        0.337054 
        4.17839         1.77308         0.33398 
        4.19408         1.76435        0.330953 
        4.20977         1.75263        0.327962 
        4.22551         1.74555        0.325001 
        4.24123         1.72939         0.32208 
        4.25691         1.71829        0.319203 
        4.27259         1.70701        0.316361 
        4.28831         1.70464        0.313548 
        4.30404         1.68974        0.310767 
        4.31974         1.67862        0.308026 
        4.33543         1.67241         0.30532 
        4.35116         1.66314        0.302641 
        4.36688         1.65141        0.299995 
        4.38255         1.64254         0.29739 
        4.39825         1.63551        0.294812 
        4.41398         1.62527        0.292259 
         4.4297         1.61366        0.289739 
        4.44541         1.60653         0.28725 
        4.46111         1.59321        0.284792 
        4.47683         1.58961        0.282362 
        4.49251         1.58184        0.279965 
        4.50819         1.57318        0.277597 
         4.5239         1.56512        0.275253 
        4.53962         1.55452        0.272934 
        4.55535         1.54899         0.27064 
        4.57106         1.53819        0.268376 
        4.58678         1.53589        0.266138 
         4.6025         1.52433        0.263926 
        4.61821         1.52126        0.261739 
        4.63391         1.51135         0.25958 
         4.6496          1.5005        0.257446 
        4.66532          1.4962        0.255333 
        4.68103         1.48819        0.253246 
        4.69673         1.48454        0.251183 
        4.71241          1.4738        0.249146 
        4.72811          1.4705        0.247129 
        4.74384         1.46188        0.245131 
        4.75955         1.45826        0.243159 
        4.77525         1.44572         0.24121 
        4.79096         1.43883         0.23928 
        4.80669          1.4377        0.237371 
         4.8224         1.42844        0.235484 
        4.83809           1.422        0.233621 
        4.85379          1.4158        0.231776 
         4.8695         1.40838         0.22995 
        4.88521         1.40479        0.228145 
        4.90093         1.39825        0.226359 
        4.91663          1.3919        0.224595 
        4.93234         1.38741        0.222847 
        4.94807         1.37807        0.221117 
        4.96377         1.37418        0.219408 
        4.97943         1.37074        0.217722 
        4.99514         1.36606        0.216049 
        5.01086         1.35585        0.214392 
        5.02654         1.35056        0.212757 
        5.04227         1.34681        0.211135 
          5.058         1.34233        0.209529 
        5.07371         1.33517        0.207943 
        5.08942         1.33093        0.206373 
        5.10513         1.33031         0.20482 
        5.12084         1.32015        0.203282 
        5.13656         1.31324         0.20176 
        5.15225         1.30749        0.200257 
        5.16796         1.30485        0.198766 
        5.18369         1.29973         0.19729 
         5.1994         1.29845        0.195831 
        5.21509         1.28922        0.194389 
        5.23079         1.28647         0.19296 
        5.24649         1.27925        0.191546 
        5.26217         1.27706        0.190147 
        5.27788         1.26906        0.188761 
        5.29359         1.26675        0.187388 
        5.30933         1.26256        0.186027 
        5.32504         1.25634        0.184682 
        5.34073         1.25251        0.183352 
        5.35646         1.24795        0.182033 
        5.37218         1.24379        0.180726 
        5.38789         1.24139        0.179435 
        5.40357         1.23623        0.178158 
        5.41929         1.23314         0.17689 
        5.43502         1.22796        0.175635 
         5.4507         1.22099        0.174395 
        5.46639         1.21771        0.173167 
        5.48212         1.21297        0.171948 
        5.49786         1.21062        0.170739 
        5.51353         1.20679        0.169548 
        5.52921         1.20013        0.168368 
        5.54495         1.19757        0.167195 
        5.56066         1.19453        0.166035 
        5.57637         1.19224        0.164886 
        5.59207         1.18703        0.163749 
        5.60778         1.18397        0.162623 
        5.62346         1.17941        0.161508 
        5.63916         1.17683        0.160404 
        5.65487         1.17035        0.159309 
         5.6706         1.16831        0.158223 
        5.68633          1.1621        0.157147 
        5.70203         1.16319        0.156083 
        5.71773         1.15704         0.15503 
        5.73344         1.15233        0.153986 
        5.74916         1.15008         0.15295 
        5.76486         1.14425        0.151926 
        5.78054         1.14171        0.150912 
        5.79626         1.13938        0.149905 
          5.812         1.13619        0.148907 
         5.8277          1.1309         0.14792 
        5.84339         1.13161        0.146943 
        5.85911         1.12639        0.145972 
        5.87484         1.12437        0.145011 
        5.89053          1.1173         0.14406 
        5.90623         1.11704        0.143117 
        5.92195         1.11214        0.142181 
        5.93767         1.10816        0.141255 
        5.95336         1.10362        0.140338 
        5.96905         1.10078        0.139429 
        5.98476         1.09943        0.138528 
        6.00048         1.09678        0.137634 
        6.01617         1.09367         0.13675 
        6.03185         1.08976        0.135874 
        6.04756         1.08912        0.135004 
        6.06331          1.0833         0.13414 
        6.07903         1.08292        0.133285 
        6.09473         1.07961        0.132439 
        6.11044         1.07451        0.131599 
        6.12616         1.07205        0.130767 
        6.14186         1.06773        0.129942 
        6.15755         1.06615        0.129126 
        6.17326         1.06305        0.128315 
        6.18898         1.06102        0.127511 
        6.20467         1.05836        0.126716 
        6.22036           1.053        0.125927 
         6.2361         1.05097        0.125143 
         6.2518         1.04877        0.124368 
        6.26748         1.04678          0.1236 
        6.28319         1.04309        0.122837 
        6.29893         1.04024         0.12208 
        6.31463         1.03709         0.12133 
        6.33033         1.03651        0.120587 
        6.34604         1.03336         0.11985 
        6.36177          1.0297        0.119119 
        6.37747         1.02607        0.118394 
