# k  (h/Mpc)    Pcb(k)  (Mpc/h)^3    Pcb_linear(k) (Mpc/h)^3   ShotnoiseSubtracted = true
      0.0200456         18117.1         18562.7 
      0.0350414         13089.8           13664 
      0.0492313         10152.4         10383.6 
      0.0637834          8974.7          8892.3 
      0.0800726         6926.18         6846.67 
       0.096163         4837.08         5006.06 
       0.111083         4053.18         4254.63 
       0.126058         3763.28         3794.92 
       0.142273         3158.24         3054.89 
       0.158546         2764.58         2457.06 
        0.17375         2275.89         2201.84 
       0.188953         2218.17         1983.46 
       0.204907         2060.56         1680.21 
       0.220756         1791.54         1443.04 
        0.23588         1608.35          1314.7 
         0.2514         1404.93         1193.76 
       0.267535         1396.91         1049.01 
       0.283568         1270.67         933.198 
       0.299022         1201.57         856.261 
       0.314451         1146.03         785.021 
       0.330372         1055.53         709.216 
       0.346141         999.559         645.938 
       0.361624         961.685         597.137 
       0.377134          894.77         552.282 
       0.392932         863.155         508.037 
       0.408854         841.895         468.953 
       0.424564         784.794         436.267 
       0.440253         771.417         406.462 
       0.455999         737.928         378.389 
       0.471626         706.998         353.306 
        0.48727         681.377         331.074 
       0.502856         662.767         310.766 
       0.518488         655.411         291.833 
       0.534347         613.502         274.277 
       0.550082          594.77         258.473 
       0.565732         594.932         243.996 
       0.581496          560.68         230.465 
       0.597222         551.674         217.992 
       0.612804         538.331         206.613 
       0.628434         521.479         196.036 
       0.644267         508.133         186.077 
       0.660051         491.602         176.841 
       0.675724         488.333         168.293 
       0.691403         472.288         160.312 
       0.707174         456.864         152.811 
       0.722871         452.195         145.828 
        0.73838         444.652         139.364 
       0.754018         432.213         133.249 
       0.769845         421.897          127.44 
        0.78569         417.432         121.978 
       0.801365          405.49         116.895 
       0.817031         394.008          112.11 
       0.832809         390.822         107.567 
       0.848511         381.215           103.3 
       0.864097         371.929         99.2968 
       0.879701         366.822         95.5055 
       0.895507         361.931         91.8703 
       0.911279         350.241         88.4348 
        0.92691         346.722         85.2061 
       0.942635         338.917         82.1231 
       0.958396         331.291         79.1884 
       0.974128         325.625         76.4046 
       0.989692         321.365         73.7842 
        1.00528         315.528         71.2847 
        1.02113         312.949         68.8636 
        1.03692         304.292         66.5658 
        1.05264         301.165          64.385 
        1.06832          293.77         62.3068 
        1.08405         289.161         60.3163 
        1.09979         284.328          58.413 
        1.11537         279.033         56.6119 
        1.13105         273.112         54.8772 
        1.14679          270.68         53.2097 
        1.16256         264.876         51.6092 
        1.17828         261.509         50.0809 
        1.19395         256.426         48.6206 
         1.2097         254.967          47.212 
        1.22537         248.188         45.8668 
          1.241         247.219         44.5788 
        1.25666         241.165         43.3379 
        1.27241         238.393          42.139 
        1.28819         234.512         40.9841 
        1.30392         229.505         39.8766 
        1.31957         229.637         38.8154 
        1.33529         224.634         37.7896 
        1.35108         219.528         36.7972 
        1.36674         218.087         35.8482 
         1.3824         215.474         34.9339 
        1.39811         213.289          34.049 
        1.41389         209.289         33.1917 
        1.42964          206.32         32.3658 
        1.44531         203.258         31.5725 
        1.46101         201.168         30.8044 
        1.47667         196.635         30.0645 
        1.49229         194.789         29.3513 
        1.50793         191.332         28.6607 
        1.52367         189.314         27.9881 
        1.53953         186.165          27.333 
        1.55526         182.362         26.7043 
        1.57092         181.419         26.0983 
        1.58662         178.688         25.5099 
        1.60235         175.793         24.9387 
        1.61809         174.266          24.385 
        1.63369         170.847         23.8533 
        1.64941          167.41         23.3338 
        1.66519         166.832         22.8281 
        1.68085         165.109         22.3412 
        1.69652         161.575         21.8686 
        1.71228         159.003         21.4071 
        1.72806         157.028         20.9587 
        1.74368         155.426         20.5279 
        1.75933         152.889         20.1085 
        1.77505         151.171         19.6989 
        1.79081         150.019         19.3003 
         1.8065         147.835         18.9144 
        1.82218         145.144         18.5397 
        1.83797         144.159         18.1726 
        1.85367         141.986         17.8176 
        1.86928          139.91         17.4744 
        1.88497         137.631         17.1385 
        1.90073         136.537         16.8102 
        1.91647         134.637          16.491 
        1.93218         132.732         16.1808 
        1.94787         131.277         15.8792 
        1.96363         128.872         15.5842 
        1.97935          127.21         15.2973 
        1.99499         125.467         15.0194 
        2.01064         124.152         14.7481 
         2.0264          122.38         14.4818 
        2.04216         120.985         14.2224 
        2.05781         119.738          13.971 
        2.07353         118.501         13.7249 
        2.08928         115.916         13.4842 
        2.10499         114.387           13.25 
        2.12065         113.337         13.0222 
        2.13633         112.509         12.7995 
        2.15211         110.099         12.5808 
        2.16785         108.507         12.3678 
        2.18349         107.583         12.1611 
        2.19916          106.36         11.9588 
        2.21489         105.129         11.7604 
        2.23063         103.408         11.5665 
         2.2463         102.155         11.3779 
        2.26194          101.32          11.194 
        2.27765         100.018         11.0133 
        2.29341         98.9062         10.8361 
        2.30914         97.5224         10.6632 
        2.32486         96.7093         10.4943 
        2.34061         95.2412         10.3288 
        2.35635         93.9191          10.167 
        2.37203         92.6639         10.0093 
        2.38768          91.714         9.85536 
        2.40339         90.9345          9.7041 
        2.41914         89.5526          9.5557 
        2.43483         88.4259         9.41096 
         2.4505         87.4595          9.2695 
        2.46622         86.0636         9.13049 
        2.48195         85.2946         8.99436 
        2.49759          84.235         8.86176 
        2.51328         83.4541         8.73153 
        2.52906         81.9447         8.60311 
        2.54479         81.3111         8.47779 
        2.56049         80.4439         8.35524 
        2.57618         79.5287         8.23524 
        2.59189          78.554         8.11744 
        2.60758         77.8668         8.00217 
        2.62325         76.7798         7.88929 
        2.63898         75.9431         7.77823 
        2.65468         74.9743         7.66956 
        2.67044          73.979         7.56252 
        2.68618         73.2176          7.4578 
        2.70184         72.7615          7.3555 
        2.71755         72.0203         7.25489 
        2.73329          70.912         7.15602 
        2.74897         70.2987         7.05935 
        2.76462         69.2959         6.96469 
        2.78034         68.5924         6.87139 
        2.79607         67.4817         6.77973 
        2.81179         67.0003         6.68986 
        2.82749         66.1574         6.60175 
        2.84321         65.5306         6.51513 
        2.85893         64.7731         6.43012 
        2.87462         63.8871         6.34678 
        2.89033         63.1725         6.26486 
        2.90605         62.3859         6.18433 
        2.92176         62.1086         6.10528 
        2.93747          61.492         6.02766 
        2.95318         60.7012         5.95139 
        2.96891         60.0834         5.87642 
        2.98456         59.3474         5.80309 
        3.00023         58.6592         5.73091 
        3.01596         58.2256         5.65975 
        3.03164         57.2853         5.59002 
        3.04738         56.7256         5.52127 
         3.0631         56.2326         5.45371 
        3.07883         55.5744          5.3873 
        3.09456         55.0978         5.32201 
        3.11026          54.223         5.25792 
        3.12596         53.7895         5.19489 
        3.14163         53.1486         5.13306 
        3.15734          52.765         5.07211 
        3.17308         52.1333           5.012 
        3.18879           51.66         4.95305 
        3.20447         50.7552         4.89514 
         3.2202         50.6467         4.83799 
         3.2359         49.9763         4.78186 
        3.25157         49.5106         4.72676 
        3.26729         49.1054         4.67237 
        3.28304         48.4365         4.61875 
        3.29877           48.04         4.56604 
        3.31446           47.49         4.51428 
        3.33014          47.118         4.46338 
        3.34585         46.7122         4.41319 
        3.36158         46.1953         4.36371 
        3.37727         45.7209         4.31515 
        3.39294         45.2013         4.26738 
        3.40867         44.7767         4.22017 
        3.42439         44.3034         4.17371 
        3.44008         43.8396         4.12804 
        3.45578         43.3076         4.08303 
        3.47153         42.8995          4.0386 
        3.48724         42.6436         3.99492 
        3.50292         42.2751         3.95199 
        3.51859          41.757         3.90972 
        3.53431         41.2371         3.86795 
        3.55007         40.8602         3.82669 
        3.56577         40.6017         3.78619 
        3.58146         40.1012         3.74631 
        3.59719         39.6305         3.70692 
        3.61292         39.2901         3.66811 
        3.62859         39.1057         3.63001 
        3.64429         38.6944         3.59239 
        3.66003         38.1911         3.55519 
        3.67578         37.7829         3.51853 
        3.69146         37.4166         3.48254 
        3.70712         37.2102         3.44712 
        3.72284         36.7206         3.41206 
        3.73853         36.4115         3.37756 
        3.75422         36.0332         3.34353 
        3.76993         35.8137         3.30994 
        3.78564          35.561         3.27684 
        3.80137         35.0668         3.24413 
        3.81707         34.6565         3.21195 
        3.83279         34.5176         3.18018 
        3.84853          34.122         3.14879 
        3.86424         33.6564          3.1179 
        3.87992         33.4684         3.08747 
        3.89561         33.1502         3.05744 
        3.91134         32.8579         3.02776 
        3.92704         32.5996         2.99851 
        3.94273         32.2172         2.96969 
        3.95845         31.9635         2.94119 
        3.97418         31.7505         2.91306 
        3.98988         31.3515         2.88534 
        4.00554         31.0549         2.85807 
        4.02125         30.8385         2.83107 
        4.03698         30.5572         2.80438 
        4.05268         30.3653          2.7781 
        4.06839         29.9747         2.75214 
         4.0841         29.7525         2.72652 
        4.09983         29.4857          2.7012 
        4.11555         29.2149         2.67621 
        4.13124         28.8854         2.65161 
        4.14693         28.6102          2.6273 
        4.16266         28.4345         2.60325 
        4.17839         28.2103         2.57951 
        4.19408         27.9336         2.55613 
        4.20977          27.691         2.53302 
        4.22551         27.5001         2.51016 
        4.24123         27.2024          2.4876 
        4.25691         26.9413         2.46538 
        4.27259         26.7242         2.44343 
        4.28831          26.464          2.4217 
        4.30404         26.2385         2.40022 
        4.31974         26.0445         2.37905 
        4.33543         25.7887         2.35815 
        4.35116         25.6194         2.33746 
        4.36688         25.3822         2.31702 
        4.38255         25.1004         2.29691 
        4.39825          24.921         2.27699 
        4.41398         24.6875         2.25727 
         4.4297         24.4902         2.23781 
        4.44541         24.2748         2.21859 
        4.46111         24.1218          2.1996 
        4.47683         23.8985         2.18083 
        4.49251         23.7011         2.16232 
        4.50819          23.479         2.14403 
         4.5239         23.3097         2.12593 
        4.53962         23.0554         2.10801 
        4.55535         22.9017          2.0903 
        4.57106         22.6931         2.07281 
        4.58678         22.5615         2.05553 
         4.6025         22.3755         2.03844 
        4.61821         22.2052         2.02155 
        4.63391         21.9422         2.00487 
         4.6496         21.8154         1.98839 
        4.66532         21.6018         1.97208 
        4.68103         21.3999         1.95595 
        4.69673         21.2729         1.94002 
        4.71241         21.1106         1.92429 
        4.72811         20.9074         1.90871 
        4.74384         20.7551         1.89328 
        4.75955         20.5854         1.87805 
        4.77525         20.4256           1.863 
        4.79096         20.2694         1.84809 
        4.80669         20.1334         1.83334 
         4.8224         19.8763         1.81877 
        4.83809         19.7185         1.80438 
        4.85379         19.5789         1.79013 
         4.8695          19.431         1.77603 
        4.88521         19.2744         1.76209 
        4.90093         19.1576          1.7483 
        4.91663         18.9782         1.73466 
        4.93234         18.7969         1.72116 
        4.94807         18.6606          1.7078 
        4.96377         18.5317         1.69461 
        4.97943         18.4035         1.68158 
        4.99514         18.2187         1.66866 
        5.01086         18.1117         1.65587 
        5.02654         17.9736         1.64324 
        5.04227         17.8354         1.63071 
          5.058         17.6554         1.61831 
        5.07371         17.5878         1.60606 
        5.08942         17.4518         1.59393 
        5.10513         17.2892         1.58194 
        5.12084         17.1065         1.57006 
        5.13656         16.9903          1.5583 
        5.15225         16.8836         1.54669 
        5.16796         16.7778         1.53518 
        5.18369         16.6212         1.52378 
         5.1994         16.5043         1.51251 
        5.21509         16.3609         1.50137 
        5.23079         16.2539         1.49033 
        5.24649         16.1436         1.47941 
        5.26217         16.0131         1.46861 
        5.27788         15.8637          1.4579 
        5.29359         15.7536          1.4473 
        5.30933         15.6433         1.43679 
        5.32504         15.5361          1.4264 
        5.34073         15.4354         1.41613 
        5.35646         15.3201         1.40594 
        5.37218         15.1752         1.39585 
        5.38789         15.0649         1.38587 
        5.40357         14.9873         1.37601 
        5.41929          14.832         1.36622 
        5.43502         14.7507         1.35652 
         5.4507         14.6594         1.34694 
        5.46639         14.5223         1.33746 
        5.48212         14.4142         1.32804 
        5.49786          14.345         1.31871 
        5.51353         14.2017         1.30951 
        5.52921         14.1049         1.30039 
        5.54495         14.0529         1.29134 
        5.56066         13.9212         1.28238 
        5.57637         13.8162          1.2735 
        5.59207         13.7103         1.26472 
        5.60778         13.6218         1.25602 
        5.62346         13.5394         1.24742 
        5.63916         13.4135         1.23888 
        5.65487         13.3305         1.23043 
         5.6706         13.2214         1.22204 
        5.68633         13.1112         1.21373 
        5.70203         13.0515         1.20552 
        5.71773         12.9396         1.19738 
        5.73344         12.8644         1.18931 
        5.74916         12.7535         1.18132 
        5.76486         12.6773          1.1734 
        5.78054         12.5963         1.16558 
        5.79626          12.469          1.1578 
          5.812         12.4014         1.15009 
         5.8277          12.319         1.14247 
        5.84339         12.2444         1.13492 
        5.85911         12.1601         1.12742 
        5.87484         12.0452            1.12 
        5.89053         11.9714         1.11265 
        5.90623         11.8877         1.10537 
        5.92195         11.7927         1.09814 
        5.93767         11.7196         1.09099 
        5.95336         11.6594          1.0839 
        5.96905         11.5734         1.07689 
        5.98476         11.4955         1.06993 
        6.00048         11.4003         1.06302 
        6.01617         11.3274         1.05619 
        6.03185         11.2317         1.04943 
        6.04756          11.166         1.04271 
        6.06331         11.1021         1.03603 
        6.07903         11.0265         1.02943 
        6.09473         10.9509         1.02289 
        6.11044         10.8857         1.01641 
        6.12616         10.8181         1.00998 
        6.14186         10.7179         1.00362 
        6.15755         10.6619        0.997306 
        6.17326         10.5705        0.991046 
        6.18898         10.5324        0.984838 
        6.20467         10.4301        0.978694 
        6.22036         10.3731        0.972604 
         6.2361         10.3103         0.96655 
         6.2518         10.2513        0.960558 
        6.26748         10.1579         0.95463 
        6.28319         10.1075        0.948736 
        6.29893         10.0456        0.942887 
        6.31463         9.94368        0.937099 
        6.33033         9.89852        0.931361 
        6.34604         9.84854        0.925667 
        6.36177         9.76916        0.920017 
        6.37747         9.71285        0.914424 
