# k  (h/Mpc)    Pcb(k)  (Mpc/h)^3    Pcb_linear(k) (Mpc/h)^3   ShotnoiseSubtracted = true
      0.0200456         10374.9         10542.3 
      0.0350414         7955.54         7760.16 
      0.0492313         5832.25         5897.15 
      0.0637834         4848.58         5050.18 
      0.0800726         3731.02         3888.41 
       0.096163         2928.83         2843.08 
       0.111083         2506.45         2416.32 
       0.126058         2104.59         2155.24 
       0.142273          1749.7         1734.96 
       0.158546         1454.04         1395.43 
        0.17375         1318.15         1250.49 
       0.188953         1214.85         1126.46 
       0.204907         1018.17         954.235 
       0.220756         918.525         819.544 
        0.23588         831.216         746.657 
         0.2514         746.724         677.969 
       0.267535         717.625         595.761 
       0.283568         629.074         529.989 
       0.299022         602.794         486.294 
       0.314451         607.013         445.835 
       0.330372         522.463         402.784 
       0.346141         485.827         366.846 
       0.361624         464.753         339.131 
       0.377134         433.895         313.656 
       0.392932         422.333         288.528 
       0.408854         401.562         266.331 
       0.424564         387.846         247.768 
       0.440253         351.122         230.841 
       0.455999         336.325         214.898 
       0.471626         336.235         200.653 
        0.48727         320.045         188.026 
       0.502856         293.761         176.493 
       0.518488         294.816          165.74 
       0.534347         274.196          155.77 
       0.550082         267.631         146.794 
       0.565732         265.601         138.572 
       0.581496         250.547         130.887 
       0.597222         244.364         123.804 
       0.612804         237.784         117.342 
       0.628434         229.228         111.334 
       0.644267         219.293         105.678 
       0.660051         214.995         100.433 
       0.675724         213.224         95.5781 
       0.691403         207.037         91.0454 
       0.707174         200.271         86.7857 
       0.722871         197.167         82.8199 
        0.73838         195.444         79.1485 
       0.754018         184.175         75.6756 
       0.769845         183.887         72.3767 
        0.78569         179.267         69.2747 
       0.801365         174.482         66.3881 
       0.817031          169.71         63.6706 
       0.832809         167.114         61.0902 
       0.848511         163.252         58.6667 
       0.864097         160.011         56.3934 
       0.879701         158.401         54.2402 
       0.895507         153.973         52.1757 
       0.911279         150.184         50.2246 
        0.92691         147.516         48.3909 
       0.942635         145.093           46.64 
       0.958396         142.786         44.9733 
       0.974128          139.62         43.3923 
       0.989692         136.523         41.9041 
        1.00528         134.814         40.4846 
        1.02113         131.402         39.1096 
        1.03692         130.637         37.8045 
        1.05264         128.858          36.566 
        1.06832         125.242         35.3858 
        1.08405          123.89         34.2553 
        1.09979          123.05         33.1743 
        1.11537         119.894         32.1515 
        1.13105         118.619         31.1663 
        1.14679         116.304         30.2193 
        1.16256         114.311         29.3103 
        1.17828         112.878         28.4423 
        1.19395         109.891          27.613 
         1.2097         109.658          26.813 
        1.22537         107.058          26.049 
          1.241         106.669         25.3176 
        1.25666         103.231         24.6128 
        1.27241         102.218         23.9319 
        1.28819         101.438          23.276 
        1.30392         99.3537          22.647 
        1.31957         98.2409         22.0444 
        1.33529         96.9812         21.4617 
        1.35108         96.2578         20.8982 
        1.36674         94.5466         20.3592 
         1.3824         93.8164         19.8399 
        1.39811         91.3653         19.3373 
        1.41389         90.4683         18.8505 
        1.42964         89.0526         18.3814 
        1.44531         88.2406         17.9309 
        1.46101         87.1814         17.4947 
        1.47667         86.0612         17.0745 
        1.49229         85.1182         16.6694 
        1.50793         83.7381         16.2772 
        1.52367         83.1852         15.8952 
        1.53953         81.6256         15.5232 
        1.55526         80.3447         15.1661 
        1.57092         80.2451         14.8219 
        1.58662         78.9185         14.4878 
        1.60235         77.6986         14.1634 
        1.61809          76.739         13.8489 
        1.63369         75.5889         13.5469 
        1.64941         75.4866         13.2519 
        1.66519         73.6725         12.9647 
        1.68085          73.186         12.6882 
        1.69652         71.5497         12.4198 
        1.71228         71.2704         12.1577 
        1.72806         70.5311          11.903 
        1.74368         69.4104         11.6584 
        1.75933         68.8785         11.4202 
        1.77505         68.1523         11.1876 
        1.79081         67.0135         10.9612 
         1.8065         66.7167          10.742 
        1.82218         64.8057         10.5292 
        1.83797         64.6426         10.3207 
        1.85367         63.8732         10.1191 
        1.86928         63.3445         9.92421 
        1.88497         62.2695         9.73342 
        1.90073         61.4699           9.547 
        1.91647         60.9547         9.36569 
        1.93218         60.5802         9.18954 
        1.94787          59.633         9.01824 
        1.96363         58.7003         8.85067 
        1.97935         58.1574         8.68777 
        1.99499         57.5579         8.52993 
        2.01064         56.9255         8.37584 
         2.0264         56.3856         8.22463 
        2.04216         55.4587         8.07728 
        2.05781         54.8084         7.93451 
        2.07353         54.0431         7.79473 
        2.08928         53.6917         7.65804 
        2.10499         53.1836         7.52505 
        2.12065         52.6296         7.39565 
        2.13633          52.113         7.26922 
        2.15211         51.3118         7.14496 
        2.16785         50.5639         7.02399 
        2.18349         49.9411         6.90662 
        2.19916         49.4319         6.79171 
        2.21489         49.1324         6.67907 
        2.23063         48.3069         6.56893 
         2.2463         47.9785         6.46181 
        2.26194         47.4536         6.35737 
        2.27765         46.8017         6.25473 
        2.29341         46.1454         6.15412 
        2.30914         45.7826         6.05595 
        2.32486         45.1017         5.96001 
        2.34061         44.8125           5.866 
        2.35635         44.1763         5.77414 
        2.37203         43.8017         5.68458 
        2.38768         43.3987         5.59713 
        2.40339         42.9797         5.51123 
        2.41914         42.4889         5.42695 
        2.43483         41.7599         5.34475 
         2.4505          41.538         5.26441 
        2.46622         41.1042         5.18546 
        2.48195         40.6813         5.10815 
        2.49759         40.1331         5.03284 
        2.51328          39.708         4.95888 
        2.52906         39.3371         4.88595 
        2.54479          38.974         4.81477 
        2.56049         38.5832         4.74517 
        2.57618         38.1412         4.67702 
        2.59189         37.5864         4.61012 
        2.60758         37.2529         4.54465 
        2.62325         37.0648         4.48055 
        2.63898         36.6339         4.41747 
        2.65468         36.1637         4.35575 
        2.67044         35.7948         4.29497 
        2.68618         35.5601         4.23549 
        2.70184         35.0132         4.17739 
        2.71755         34.7544         4.12025 
        2.73329         34.2365          4.0641 
        2.74897         33.9028          4.0092 
        2.76462         33.5556         3.95544 
        2.78034         33.3429         3.90246 
        2.79607         32.9011          3.8504 
        2.81179         32.6559         3.79936 
        2.82749         32.2585         3.74931 
        2.84321         31.9596         3.70012 
        2.85893         31.6887         3.65184 
        2.87462         31.3418         3.60451 
        2.89033           31.01         3.55799 
        2.90605         30.7828         3.51225 
        2.92176         30.5105         3.46736 
        2.93747         30.0916         3.42328 
        2.95318         29.8451         3.37996 
        2.96891           29.62         3.33738 
        2.98456         29.2071         3.29573 
        3.00023         28.8947         3.25474 
        3.01596         28.6371         3.21433 
        3.03164          28.345         3.17473 
        3.04738         28.1109         3.13568 
         3.0631         27.8621         3.09732 
        3.07883         27.4773          3.0596 
        3.09456         27.2312         3.02252 
        3.11026         26.8876         2.98612 
        3.12596         26.6031         2.95033 
        3.14163         26.3931         2.91521 
        3.15734         26.1693         2.88059 
        3.17308         25.9204         2.84646 
        3.18879         25.6467         2.81297 
        3.20447         25.3557         2.78009 
         3.2202         25.0942         2.74763 
         3.2359         24.9176         2.71575 
        3.25157          24.686         2.68446 
        3.26729         24.4676         2.65357 
        3.28304         24.1542         2.62312 
        3.29877         23.9467         2.59318 
        3.31446         23.6979         2.56379 
        3.33014         23.4421         2.53488 
        3.34585         23.3194         2.50637 
        3.36158         23.0155         2.47827 
        3.37727         22.8483         2.45069 
        3.39294         22.6061         2.42356 
        3.40867         22.4046         2.39675 
        3.42439         22.1957         2.37036 
        3.44008         21.9647         2.34443 
        3.45578         21.8136         2.31887 
        3.47153         21.5059         2.29364 
        3.48724         21.4264         2.26883 
        3.50292         21.1488         2.24445 
        3.51859         20.9736         2.22044 
        3.53431         20.8305         2.19671 
        3.55007         20.5848         2.17328 
        3.56577         20.4006         2.15028 
        3.58146         20.2039         2.12763 
        3.59719         20.0403         2.10526 
        3.61292         19.8513         2.08322 
        3.62859         19.6001         2.06159 
        3.64429         19.4356         2.04022 
        3.66003          19.336         2.01909 
        3.67578         19.1654         1.99827 
        3.69146         18.8817         1.97783 
        3.70712         18.7553         1.95771 
        3.72284         18.6064          1.9378 
        3.73853         18.4467         1.91821 
        3.75422         18.2398         1.89888 
        3.76993         18.1334         1.87981 
        3.78564         17.9821         1.86101 
        3.80137          17.786         1.84243 
        3.81707          17.597         1.82415 
        3.83279          17.418         1.80611 
        3.84853         17.2884         1.78829 
        3.86424         17.1063         1.77074 
        3.87992         16.9964         1.75346 
        3.89561         16.8108         1.73641 
        3.91134         16.6933         1.71955 
        3.92704          16.559         1.70294 
        3.94273         16.4048         1.68657 
        3.95845         16.1854         1.67038 
        3.97418         16.0681         1.65441 
        3.98988         15.9419         1.63867 
        4.00554         15.8696         1.62317 
        4.02125         15.6359         1.60784 
        4.03698         15.5379         1.59268 
        4.05268         15.4227         1.57776 
        4.06839         15.2556         1.56302 
         4.0841         15.1447         1.54847 
        4.09983         14.9434         1.53409 
        4.11555         14.8835          1.5199 
        4.13124           14.76         1.50592 
        4.14693         14.5979         1.49212 
        4.16266         14.5083         1.47846 
        4.17839         14.3483         1.46498 
        4.19408         14.2021          1.4517 
        4.20977         14.1336         1.43857 
        4.22551         13.9782         1.42559 
        4.24123         13.8648         1.41277 
        4.25691         13.7616         1.40016 
        4.27259         13.6131         1.38769 
        4.28831         13.5465         1.37535 
        4.30404          13.457         1.36315 
        4.31974         13.2873         1.35113 
        4.33543         13.1687         1.33926 
        4.35116         13.0901         1.32751 
        4.36688          12.963          1.3159 
        4.38255         12.8629         1.30448 
        4.39825          12.749         1.29317 
        4.41398         12.6279         1.28197 
         4.4297         12.5276         1.27092 
        4.44541         12.4269            1.26 
        4.46111         12.3379         1.24922 
        4.47683         12.2122         1.23856 
        4.49251         12.1142         1.22804 
        4.50819          12.021         1.21765 
         4.5239         11.9365         1.20737 
        4.53962          11.843          1.1972 
        4.55535         11.7301         1.18714 
        4.57106         11.6792         1.17721 
        4.58678         11.5494         1.16739 
         4.6025         11.4515         1.15769 
        4.61821         11.3646         1.14809 
        4.63391          11.269         1.13862 
         4.6496         11.1964         1.12926 
        4.66532         11.1099            1.12 
        4.68103         10.9989         1.11084 
        4.69673         10.9122         1.10179 
        4.71241          10.828         1.09286 
        4.72811          10.751         1.08401 
        4.74384         10.6555         1.07525 
        4.75955          10.577          1.0666 
        4.77525         10.4776         1.05805 
        4.79096         10.4221         1.04958 
        4.80669         10.3214         1.04121 
         4.8224         10.2393         1.03293 
        4.83809         10.1665         1.02476 
        4.85379         10.0766         1.01667 
         4.8695         9.99498         1.00866 
        4.88521          9.9039         1.00074 
        4.90093         9.84878        0.992906 
        4.91663         9.76137        0.985164 
        4.93234         9.69137        0.977497 
        4.94807         9.61786        0.969908 
        4.96377         9.55432        0.962415 
        4.97943         9.46318        0.955017 
        4.99514         9.38407        0.947678 
        5.01086          9.3552        0.940412 
        5.02654          9.2649        0.933242 
        5.04227         9.16986        0.926125 
          5.058         9.09533        0.919081 
        5.07371         9.05387        0.912124 
        5.08942          8.9731        0.905239 
        5.10513         8.89524        0.898425 
        5.12084         8.85834        0.891679 
        5.13656         8.78269        0.885004 
        5.15225         8.69459        0.878409 
        5.16796         8.64293        0.871871 
        5.18369         8.56485        0.865395 
         5.1994         8.52089        0.858997 
        5.21509         8.45696         0.85267 
        5.23079         8.37697          0.8464 
        5.24649         8.32144        0.840199 
        5.26217         8.25914        0.834064 
        5.27788          8.2042        0.827983 
        5.29359         8.14271        0.821962 
        5.30933         8.08509        0.815993 
        5.32504         8.02679        0.810093 
        5.34073         7.96016        0.804259 
        5.35646         7.89926        0.798471 
        5.37218         7.84583         0.79274 
        5.38789         7.77752        0.787075 
        5.40357         7.73959        0.781472 
        5.41929         7.68154        0.775912 
        5.43502         7.62463        0.770406 
         5.4507         7.57635        0.764967 
        5.46639         7.52136         0.75958 
        5.48212         7.45833        0.754233 
        5.49786         7.40929        0.748932 
        5.51353         7.36513        0.743708 
        5.52921         7.30393         0.73853 
        5.54495         7.23546        0.733386 
        5.56066         7.20391        0.728297 
        5.57637         7.16058        0.723258 
        5.59207          7.1087        0.718271 
        5.60778         7.04853         0.71333 
        5.62346         6.99709        0.708443 
        5.63916         6.94698        0.703597 
        5.65487         6.89875        0.698795 
         5.6706         6.86603        0.694032 
        5.68633         6.80616        0.689312 
        5.70203         6.75929        0.684646 
        5.71773         6.72627        0.680025 
        5.73344         6.66781        0.675445 
        5.74916         6.62449        0.670903 
        5.76486         6.57866        0.666409 
        5.78054         6.52963        0.661963 
        5.79626         6.49407        0.657546 
          5.812         6.43719        0.653166 
         5.8277         6.40378        0.648839 
        5.84339         6.35737        0.644551 
        5.85911         6.30704        0.640294 
        5.87484         6.27214        0.636076 
        5.89053         6.21635        0.631906 
        5.90623         6.18245        0.627771 
        5.92195          6.1478        0.623666 
        5.93767         6.10432        0.619601 
        5.95336         6.05479        0.615579 
        5.96905         6.02546        0.611595 
        5.98476         5.97423        0.607641 
        6.00048          5.9443         0.60372 
        6.01617         5.90229         0.59984 
        6.03185         5.86883        0.595999 
        6.04756         5.82538        0.592183 
        6.06331         5.79259        0.588392 
        6.07903          5.7384        0.584643 
        6.09473         5.71106         0.58093 
        6.11044         5.67219        0.577247 
        6.12616         5.63076        0.573596 
        6.14186         5.59351        0.569981 
        6.15755         5.55993        0.566398 
        6.17326         5.52904        0.562843 
        6.18898          5.4746        0.559317 
        6.20467         5.45879        0.555828 
        6.22036         5.42688        0.552369 
         6.2361         5.38554        0.548931 
         6.2518         5.34349        0.545527 
        6.26748         5.31586        0.542161 
        6.28319          5.2833        0.538814 
        6.29893         5.26027        0.535492 
        6.31463         5.21684        0.532204 
        6.33033          5.1863        0.528946 
        6.34604         5.16024        0.525712 
        6.36177         5.12134        0.522503 
        6.37747         5.08435        0.519327 
