# k  (h/Mpc)    Pcb(k)  (Mpc/h)^3    Pcb_linear(k) (Mpc/h)^3   ShotnoiseSubtracted = true
      0.0200456         12628.1         12905.6 
      0.0350414         9186.56         9499.75 
      0.0492313         7113.51         7219.11 
      0.0637834         6251.33         6182.28 
      0.0800726         4828.77         4760.08 
       0.096163         3390.03         3480.41 
       0.111083         2834.22         2957.99 
       0.126058         2632.01         2638.38 
       0.142273         2197.59         2123.89 
       0.158546         1877.44         1708.24 
        0.17375         1558.58         1530.81 
       0.188953         1506.59         1378.98 
       0.204907         1392.39         1168.15 
       0.220756         1198.26         1003.26 
        0.23588         1073.04         914.035 
         0.2514         938.994          829.95 
       0.267535         916.153         729.313 
       0.283568         834.644         648.797 
       0.299022         784.582         595.307 
       0.314451         742.717         545.778 
       0.330372          685.36         493.076 
       0.346141         630.178         449.082 
       0.361624         606.712         415.154 
       0.377134         564.781         383.969 
       0.392932         541.023         353.208 
       0.408854         521.632         326.035 
       0.424564          493.84          303.31 
       0.440253          481.43         282.589 
       0.455999         454.113         263.071 
       0.471626         426.672         245.633 
        0.48727         415.113         230.176 
       0.502856         402.459         216.057 
       0.518488         398.655         202.894 
       0.534347          373.45         190.689 
       0.550082         354.632         179.701 
       0.565732         352.962         169.636 
       0.581496         333.462         160.229 
       0.597222          327.39         151.557 
       0.612804         316.775         143.646 
       0.628434           305.1         136.292 
       0.644267         296.032         129.368 
       0.660051         290.891         122.947 
       0.675724         286.543         117.004 
       0.691403         278.092         111.455 
       0.707174         267.388         106.241 
       0.722871         264.636         101.386 
        0.73838         259.826         96.8913 
       0.754018         252.645         92.6398 
       0.769845          244.04         88.6014 
        0.78569         243.584         84.8041 
       0.801365         235.737         81.2704 
       0.817031         228.891         77.9436 
       0.832809         225.692         74.7849 
       0.848511         220.052         71.8181 
       0.864097         217.277         69.0352 
       0.879701         212.707         66.3993 
       0.895507         207.322          63.872 
       0.911279         201.804         61.4834 
        0.92691         201.596         59.2387 
       0.942635         196.894         57.0953 
       0.958396         195.816          55.055 
       0.974128         190.665         53.1196 
       0.989692         185.926         51.2978 
        1.00528         183.482           49.56 
        1.02113         182.339         47.8768 
        1.03692         176.337         46.2792 
        1.05264         173.321          44.763 
        1.06832         170.361         43.3182 
        1.08405         167.686         41.9344 
        1.09979         166.898         40.6111 
        1.11537         161.561         39.3589 
        1.13105          160.18         38.1529 
        1.14679         159.546         36.9935 
        1.16256         156.669         35.8808 
        1.17828         153.161         34.8183 
        1.19395         151.245          33.803 
         1.2097         149.582         32.8237 
        1.22537          147.09         31.8884 
          1.241         144.773          30.993 
        1.25666         142.332         30.1302 
        1.27241         140.041         29.2968 
        1.28819          138.31         28.4938 
        1.30392         136.722         27.7238 
        1.31957         134.958          26.986 
        1.33529         131.822         26.2728 
        1.35108         130.717         25.5829 
        1.36674         129.533         24.9231 
         1.3824          126.63         24.2875 
        1.39811         126.053         23.6722 
        1.41389         123.676         23.0762 
        1.42964         121.421          22.502 
        1.44531         119.017         21.9505 
        1.46101         118.061         21.4165 
        1.47667         116.666         20.9021 
        1.49229         115.009         20.4062 
        1.50793         113.836         19.9261 
        1.52367         112.536         19.4585 
        1.53953         110.427          19.003 
        1.55526         109.245         18.5659 
        1.57092         107.985         18.1446 
        1.58662         106.062         17.7355 
        1.60235         105.518         17.3384 
        1.61809         103.507         16.9535 
        1.63369         102.485         16.5838 
        1.64941         101.451         16.2226 
        1.66519         99.4066          15.871 
        1.68085         98.6155         15.5325 
        1.69652         96.1949         15.2039 
        1.71228         96.3885         14.8831 
        1.72806          94.622         14.5714 
        1.74368         93.6769         14.2718 
        1.75933         92.2751         13.9802 
        1.77505         91.1208         13.6955 
        1.79081         89.7301         13.4183 
         1.8065         88.9381         13.1501 
        1.82218         87.1178         12.8895 
        1.83797         86.5139         12.6343 
        1.85367         85.3339         12.3876 
        1.86928         84.9788         12.1489 
        1.88497         83.0909         11.9154 
        1.90073         82.4071         11.6872 
        1.91647         81.4946         11.4652 
        1.93218         80.3665         11.2496 
        1.94787         79.3761         11.0399 
        1.96363         77.9893         10.8347 
        1.97935          77.554         10.6353 
        1.99499         76.4874         10.4421 
        2.01064         75.6459         10.2535 
         2.0264         74.2416         10.0684 
        2.04216         73.3415         9.88796 
        2.05781         72.6459         9.71319 
        2.07353         71.4981         9.54207 
        2.08928         70.5223         9.37475 
        2.10499         70.0595         9.21194 
        2.12065          69.438         9.05354 
        2.13633          68.497         8.89876 
        2.15211         67.7718         8.74665 
        2.16785         66.8916         8.59856 
        2.18349         66.2412         8.45488 
        2.19916         65.2489         8.31421 
        2.21489         64.7448         8.17632 
        2.23063         64.0864          8.0415 
         2.2463         63.2307         7.91036 
        2.26194         62.3372         7.78251 
        2.27765         61.8361         7.65686 
        2.29341         61.1485         7.53369 
        2.30914         60.1013         7.41352 
        2.32486         59.3011         7.29606 
        2.34061         58.7324         7.18099 
        2.35635         58.3291         7.06853 
        2.37203         57.2565          6.9589 
        2.38768         56.8405         6.85184 
        2.40339         55.9658         6.74668 
        2.41914         55.7292         6.64351 
        2.43483         55.2784         6.54288 
         2.4505         54.6113         6.44453 
        2.46622         53.9566         6.34789 
        2.48195         53.2925         6.25324 
        2.49759         52.4635         6.16106 
        2.51328         52.0111         6.07051 
        2.52906         51.4566         5.98123 
        2.54479         50.8839          5.8941 
        2.56049         50.2162          5.8089 
        2.57618         49.7866         5.72547 
        2.59189         49.2731         5.64358 
        2.60758         48.8246         5.56343 
        2.62325         48.1417         5.48495 
        2.63898         47.7697         5.40774 
        2.65468         47.0584         5.33219 
        2.67044         46.4156         5.25777 
        2.68618         46.2179         5.18496 
        2.70184         45.5623         5.11384 
        2.71755         45.3772         5.04389 
        2.73329         44.4624         4.97516 
        2.74897         44.0777         4.90794 
        2.76462         43.5911         4.84213 
        2.78034         43.2576         4.77727 
        2.79607         42.6415         4.71354 
        2.81179         42.2557         4.65106 
        2.82749         41.5111          4.5898 
        2.84321         41.3357         4.52958 
        2.85893         40.8551         4.47048 
        2.87462         40.3062         4.41254 
        2.89033         40.0029         4.35559 
        2.90605         39.4997          4.2996 
        2.92176         39.2311         4.24464 
        2.93747         38.7725         4.19067 
        2.95318         38.3595         4.13765 
        2.96891         37.7322         4.08552 
        2.98456         37.5553         4.03454 
        3.00023         37.1026         3.98436 
        3.01596          36.713         3.93489 
        3.03164         36.3455         3.88641 
        3.04738         36.0596         3.83861 
         3.0631         35.5467         3.79164 
        3.07883         35.2236         3.74547 
        3.09456         34.8752         3.70008 
        3.11026         34.5255         3.65552 
        3.12596         34.1792          3.6117 
        3.14163         33.7874         3.56871 
        3.15734         33.4731         3.52633 
        3.17308         33.1382         3.48455 
        3.18879         32.7764         3.44356 
        3.20447         32.4235          3.4033 
         3.2202         32.0863         3.36356 
         3.2359         31.8365         3.32454 
        3.25157         31.5156         3.28623 
        3.26729         31.2567         3.24842 
        3.28304         30.9423         3.21114 
        3.29877         30.5314          3.1745 
        3.31446         30.2968         3.13851 
        3.33014         30.0321         3.10312 
        3.34585         29.7452         3.06823 
        3.36158         29.3812         3.03383 
        3.37727         29.1016         3.00007 
        3.39294         28.8446         2.96686 
        3.40867         28.5554         2.93403 
        3.42439         28.2085         2.90173 
        3.44008         28.0197         2.86998 
        3.45578         27.6823         2.83869 
        3.47153         27.4714          2.8078 
        3.48724         27.0811         2.77743 
        3.50292         26.9205         2.74759 
        3.51859         26.5814          2.7182 
        3.53431           26.44         2.68915 
        3.55007         26.1835         2.66047 
        3.56577         25.8911         2.63232 
        3.58146         25.7452         2.60459 
        3.59719         25.3854          2.5772 
        3.61292         25.1321         2.55022 
        3.62859         24.9544         2.52373 
        3.64429         24.7068         2.49757 
        3.66003         24.5044         2.47171 
        3.67578         24.2785         2.44623 
        3.69146         24.0013          2.4212 
        3.70712         23.7601         2.39657 
        3.72284         23.6126          2.3722 
        3.73853         23.3541         2.34822 
        3.75422         23.1299         2.32456 
        3.76993          22.986         2.30121 
        3.78564         22.6998         2.27819 
        3.80137         22.5321         2.25545 
        3.81707         22.3208         2.23308 
        3.83279         22.0044         2.21099 
        3.84853         21.8163         2.18917 
        3.86424         21.6707         2.16769 
        3.87992         21.4845         2.14653 
        3.89561           21.26         2.12566 
        3.91134         21.1228         2.10502 
        3.92704         20.8982         2.08469 
        3.94273         20.6937         2.06465 
        3.95845         20.5161         2.04483 
        3.97418         20.3198         2.02528 
        3.98988         20.1171         2.00601 
        4.00554         19.9627         1.98704 
        4.02125         19.8016         1.96827 
        4.03698         19.5747         1.94972 
        4.05268          19.432         1.93145 
        4.06839         19.2331          1.9134 
         4.0841         19.1512         1.89559 
        4.09983         18.9219         1.87798 
        4.11555         18.7077         1.86061 
        4.13124           18.55         1.84351 
        4.14693         18.3511         1.82661 
        4.16266         18.2058         1.80988 
        4.17839         18.0416         1.79338 
        4.19408          17.918         1.77712 
        4.20977         17.7827         1.76106 
        4.22551         17.6136         1.74516 
        4.24123         17.4435         1.72948 
        4.25691         17.3192         1.71403 
        4.27259         17.1229         1.69877 
        4.28831         16.9724         1.68366 
        4.30404         16.8364         1.66873 
        4.31974         16.7013         1.65401 
        4.33543         16.5382         1.63948 
        4.35116         16.4298         1.62509 
        4.36688         16.2741         1.61089 
        4.38255         16.1532          1.5969 
        4.39825         16.0532         1.58306 
        4.41398         15.8884         1.56935 
         4.4297         15.7441         1.55582 
        4.44541         15.6164         1.54245 
        4.46111         15.4689         1.52925 
        4.47683         15.3415          1.5162 
        4.49251         15.2464         1.50333 
        4.50819         15.0998         1.49062 
         4.5239         14.9868         1.47803 
        4.53962         14.8269         1.46558 
        4.55535         14.7196         1.45326 
        4.57106          14.609          1.4411 
        4.58678         14.4783         1.42909 
         4.6025           14.36         1.41721 
        4.61821         14.2463         1.40546 
        4.63391         14.1496         1.39387 
         4.6496         13.9738         1.38241 
        4.66532          13.883         1.37107 
        4.68103         13.7898         1.35986 
        4.69673         13.7163         1.34878 
        4.71241         13.5523         1.33785 
        4.72811          13.465         1.32701 
        4.74384         13.3345         1.31629 
        4.75955         13.2349          1.3057 
        4.77525         13.1361         1.29523 
        4.79096         13.0431         1.28487 
        4.80669         12.9465         1.27461 
         4.8224         12.8022         1.26448 
        4.83809         12.7343         1.25448 
        4.85379         12.6022         1.24457 
         4.8695         12.5373         1.23477 
        4.88521         12.4129         1.22508 
        4.90093         12.3225         1.21549 
        4.91663         12.2534         1.20601 
        4.93234         12.1201         1.19662 
        4.94807         12.0096         1.18733 
        4.96377         11.9449         1.17816 
        4.97943         11.8518          1.1691 
        4.99514         11.7478         1.16012 
        5.01086         11.6487         1.15123 
        5.02654         11.5909         1.14245 
        5.04227         11.4905         1.13374 
          5.058         11.4061         1.12511 
        5.07371         11.3179          1.1166 
        5.08942         11.2233         1.10817 
        5.10513         11.1243         1.09983 
        5.12084         11.0582         1.09157 
        5.13656         10.9777          1.0834 
        5.15225         10.9011         1.07532 
        5.16796         10.8099         1.06732 
        5.18369         10.7129         1.05939 
         5.1994         10.6452         1.05156 
        5.21509         10.5438         1.04381 
        5.23079         10.4712         1.03614 
        5.24649         10.4294         1.02855 
        5.26217         10.3164         1.02104 
        5.27788         10.2379         1.01359 
        5.29359         10.1908         1.00622 
        5.30933         10.1111        0.998914 
        5.32504         10.0155        0.991692 
        5.34073         9.94633         0.98455 
        5.35646         9.86387        0.977465 
        5.37218         9.79509        0.970449 
        5.38789         9.72664        0.963514 
        5.40357         9.67709        0.956655 
        5.41929         9.59359        0.949849 
        5.43502         9.53279        0.943108 
         5.4507         9.44001         0.93645 
        5.46639         9.36479        0.929856 
        5.48212         9.30416         0.92331 
        5.49786         9.25682         0.91682 
        5.51353         9.17464        0.910426 
        5.52921         9.11528        0.904087 
        5.54495         9.05166         0.89779 
        5.56066         8.96474         0.89156 
        5.57637         8.90285        0.885391 
        5.59207          8.8421        0.879286 
        5.60778         8.78265        0.873238 
        5.62346         8.72866        0.867255 
        5.63916          8.6841        0.861323 
        5.65487         8.59003        0.855444 
         5.6706         8.55027        0.849613 
        5.68633         8.47718        0.843836 
        5.70203         8.43108        0.838124 
        5.71773          8.3691        0.832467 
        5.73344         8.30473         0.82686 
        5.74916         8.23157        0.821299 
        5.76486         8.20245        0.815798 
        5.78054         8.12921        0.810356 
        5.79626          8.0807        0.804949 
          5.812         8.02088        0.799587 
         5.8277         7.95043        0.794289 
        5.84339         7.91027         0.78904 
        5.85911         7.84858        0.783829 
        5.87484         7.80476        0.778666 
        5.89053         7.74941        0.773561 
        5.90623         7.69109        0.768499 
        5.92195         7.65722        0.763474 
        5.93767         7.58875        0.758498 
        5.95336         7.53376        0.753574 
        5.96905          7.4922        0.748697 
        5.98476         7.42985        0.743856 
        6.00048         7.38617        0.739057 
        6.01617         7.35061        0.734307 
        6.03185         7.28198        0.729605 
        6.04756         7.23199        0.724933 
        6.06331         7.18835        0.720293 
        6.07903         7.14006        0.715703 
        6.09473         7.09286        0.711158 
        6.11044         7.04275        0.706649 
        6.12616         7.00127         0.70218 
        6.14186         6.96425        0.697754 
        6.15755          6.8992        0.693368 
        6.17326          6.8523        0.689016 
        6.18898         6.82106        0.684699 
        6.20467         6.77258        0.680428 
        6.22036         6.72141        0.676194 
         6.2361         6.68782        0.671985 
         6.2518         6.63653        0.667819 
        6.26748         6.59279        0.663697 
        6.28319         6.54816          0.6596 
        6.29893         6.51643        0.655534 
        6.31463         6.47811        0.651509 
        6.33033         6.42713         0.64752 
        6.34604         6.38537        0.643561 
        6.36177          6.3497        0.639633 
        6.37747          6.3122        0.635745 
