# k  (h/Mpc)    Pcb(k)  (Mpc/h)^3    Pcb_linear(k) (Mpc/h)^3   ShotnoiseSubtracted = true
      0.0200456         8379.23         8494.05 
      0.0350414         6624.22         6483.08 
      0.0492313         4897.62         4940.31 
      0.0637834         3987.76          4121.6 
      0.0800726         3103.43         3218.47 
       0.096163         2462.42         2399.66 
       0.111083         2066.55         1988.81 
       0.126058          1719.7         1745.62 
       0.142273         1442.92         1433.36 
       0.158546         1200.26         1155.98 
        0.17375         1069.59         1010.02 
       0.188953         977.145         904.919 
       0.204907         821.513         778.025 
       0.220756         738.184         665.259 
        0.23588         662.571         595.299 
         0.2514         594.364         539.429 
       0.267535         568.906         477.795 
       0.283568         496.921         422.594 
       0.299022         473.268         383.345 
       0.314451          470.64         350.957 
       0.330372         405.308         317.988 
       0.346141         375.935         288.255 
       0.361624         357.768         264.565 
       0.377134         331.332          244.22 
       0.392932         322.725          224.66 
       0.408854         305.504         206.629 
       0.424564         293.679         191.295 
       0.440253         265.137         177.835 
       0.455999         252.488         165.326 
       0.471626         249.312         153.924 
        0.48727         238.491         143.728 
       0.502856         217.876         134.595 
       0.518488         217.289         126.166 
       0.534347         202.378         118.277 
       0.550082          197.83         111.153 
       0.565732         195.111         104.681 
       0.581496         181.604          98.673 
       0.597222          177.56         93.1249 
       0.612804         172.242         88.0555 
       0.628434         166.555         83.3624 
       0.644267         158.658         78.9531 
       0.660051         154.306         74.8725 
       0.675724         152.959          71.106 
       0.691403         148.589         67.5977 
       0.707174         143.671          64.308 
       0.722871         141.196         61.2515 
        0.73838         138.804          58.427 
       0.754018         130.184         55.7598 
       0.769845         129.711         53.2302 
        0.78569         126.238         50.8552 
       0.801365         122.573         48.6484 
       0.817031         118.695         46.5741 
       0.832809         116.636         44.6075 
       0.848511         113.921         42.7633 
       0.864097         111.883         41.0361 
       0.879701         110.067         39.4027 
       0.895507         106.184          37.839 
       0.911279         104.383         36.3635 
        0.92691          101.47          34.979 
       0.942635         99.4928         33.6591 
       0.958396         98.5286         32.4046 
       0.974128         96.2726         31.2164 
       0.989692         94.2375         30.0997 
        1.00528         92.5254         29.0361 
        1.02113         90.2043         28.0074 
        1.03692         89.9058         27.0324 
        1.05264         88.4371         26.1085 
        1.06832         85.3742         25.2292 
        1.08405          84.778         24.3882 
        1.09979         83.9497         23.5852 
        1.11537         81.6005         22.8263 
        1.13105         80.3028         22.0963 
        1.14679         78.9642         21.3955 
        1.16256          77.392         20.7238 
        1.17828         76.5903         20.0832 
        1.19395         74.3947         19.4719 
         1.2097         74.6002         18.8829 
        1.22537         72.6889         18.3211 
          1.241         72.2408          17.784 
        1.25666         69.8442          17.267 
        1.27241         69.6329         16.7682 
        1.28819         68.7706         16.2883 
        1.30392         67.3779         15.8286 
        1.31957         66.9434         15.3886 
        1.33529         65.8415         14.9638 
        1.35108          65.002         14.5534 
        1.36674         64.0895         14.1613 
         1.3824         63.0791          13.784 
        1.39811         61.8559         13.4192 
        1.41389         60.8891         13.0662 
        1.42964          60.339         12.7266 
        1.44531         59.4053         12.4006 
        1.46101         58.7915         12.0854 
        1.47667         57.9041         11.7821 
        1.49229          57.131           11.49 
        1.50793         56.4526         11.2075 
        1.52367         55.8582         10.9327 
        1.53953         54.9091         10.6653 
        1.55526         54.1713         10.4089 
        1.57092         53.7261          10.162 
        1.58662         52.9052         9.92257 
        1.60235         52.2033         9.69038 
        1.61809         51.3588         9.46549 
        1.63369         50.6988         9.24974 
        1.64941         50.2468         9.03917 
        1.66519         49.2119         8.83439 
        1.68085         48.9653         8.63742 
        1.69652         47.8296         8.44639 
        1.71228         47.7368         8.26005 
        1.72806         46.8788         8.07919 
        1.74368         46.3478         7.90555 
        1.75933         45.9411         7.73667 
        1.77505         45.5448         7.57193 
        1.79081         44.7838          7.4117 
         1.8065         44.1612         7.25678 
        1.82218         43.2162         7.10643 
        1.83797         42.9306          6.9593 
        1.85367         42.4984         6.81715 
        1.86928         42.3029         6.67982 
        1.88497         41.3395         6.54552 
        1.90073         40.8778         6.41442 
        1.91647         40.6621         6.28702 
        1.93218         40.5214         6.16335 
        1.94787         39.7628         6.04318 
        1.96363         39.0134         5.92574 
        1.97935         38.7786         5.81166 
        1.99499         38.2821         5.70123 
        2.01064          37.803          5.5935 
         2.0264         37.5047         5.48787 
        2.04216         37.0325         5.38503 
        2.05781         36.5071         5.28546 
        2.07353         36.0431         5.18806 
        2.08928         35.9243         5.09289 
        2.10499          35.513         5.00036 
        2.12065         35.0074         4.91041 
        2.13633           34.76         4.82259 
        2.15211         34.1123         4.73635 
        2.16785         33.6895         4.65245 
        2.18349         33.3615         4.57112 
        2.19916         33.0216         4.49155 
        2.21489         32.7038         4.41361 
        2.23063         32.4358         4.33746 
         2.2463          32.124         4.26346 
        2.26194         31.5784         4.19136 
        2.27765         31.2501         4.12055 
        2.29341         30.9723          4.0512 
        2.30914         30.6022         3.98358 
        2.32486         30.1486         3.91754 
        2.34061         29.9974         3.85289 
        2.35635         29.6652         3.78975 
        2.37203         29.3845         3.72824 
        2.38768          29.109         3.66822 
        2.40339         28.8881         3.60931 
        2.41914         28.5041         3.55154 
        2.43483         28.3243         3.49525 
         2.4505         27.8531         3.44027 
        2.46622         27.5568         3.38628 
        2.48195          27.322         3.33344 
        2.49759         26.8705         3.28201 
        2.51328         26.7247         3.23153 
        2.52906          26.523         3.18179 
        2.54479         26.1711         3.13328 
        2.56049         26.0858         3.08588 
        2.57618          25.699         3.03949 
        2.59189         25.3341         2.99399 
        2.60758         25.2106         2.94949 
        2.62325         24.8394         2.90594 
        2.63898         24.7355         2.86312 
        2.65468         24.3905         2.82126 
        2.67044         24.1531         2.78004 
        2.68618         23.8749         2.73975 
        2.70184         23.5952         2.70041 
        2.71755         23.4567         2.66175 
        2.73329         23.1185         2.62378 
        2.74897          22.966         2.58668 
        2.76462         22.7725         2.55037 
        2.78034          22.429         2.51461 
        2.79607         22.2292         2.47949 
        2.81179         22.0421         2.44509 
        2.82749         21.8435         2.41137 
        2.84321         21.6471         2.37826 
        2.85893         21.3869         2.34577 
        2.87462         21.2017         2.31394 
        2.89033         21.0239         2.28268 
        2.90605         20.7331         2.25196 
        2.92176         20.4854         2.22182 
        2.93747         20.3577         2.19225 
        2.95318         20.2428         2.16321 
        2.96891         19.9627         2.13468 
        2.98456         19.7916         2.10679 
        3.00023          19.495         2.07936 
        3.01596         19.2945         2.05233 
        3.03164         19.1508         2.02585 
        3.04738         18.9927         1.99977 
         3.0631         18.8079         1.97415 
        3.07883         18.5953         1.94898 
        3.09456         18.4291         1.92425 
        3.11026         18.2271         1.89998 
        3.12596         18.0135         1.87614 
        3.14163         17.8718         1.85276 
        3.15734         17.7167         1.82972 
        3.17308         17.5961         1.80702 
        3.18879         17.3599         1.78476 
        3.20447         17.2258         1.76291 
         3.2202         17.0012         1.74136 
         3.2359         16.8822          1.7202 
        3.25157         16.7253         1.69945 
        3.26729          16.548         1.67897 
        3.28304         16.4486          1.6588 
        3.29877         16.3232         1.63897 
        3.31446         16.1138         1.61952 
        3.33014         15.9362          1.6004 
        3.34585         15.8705         1.58155 
        3.36158         15.6656         1.56298 
        3.37727         15.5046         1.54477 
        3.39294         15.3806         1.52686 
        3.40867         15.2584         1.50917 
        3.42439         15.0823         1.49177 
        3.44008         14.9413         1.47468 
        3.45578         14.8026         1.45784 
        3.47153         14.6886         1.44123 
        3.48724         14.5349          1.4249 
        3.50292         14.4401         1.40886 
        3.51859         14.2885         1.39308 
        3.53431         14.1663         1.37749 
        3.55007         14.0094          1.3621 
        3.56577         13.9309         1.34701 
        3.58146         13.7798         1.33215 
        3.59719         13.6397         1.31748 
        3.61292         13.5302         1.30303 
        3.62859         13.3837         1.28886 
        3.64429         13.2699         1.27487 
        3.66003         13.1661         1.26104 
        3.67578         13.0739         1.24742 
        3.69146         12.9717         1.23406 
        3.70712         12.8097         1.22091 
        3.72284         12.6855         1.20791 
        3.73853         12.6156         1.19511 
        3.75422         12.4462          1.1825 
        3.76993         12.3446         1.17006 
        3.78564         12.2616          1.1578 
        3.80137         12.1443          1.1457 
        3.81707         11.9984         1.13379 
        3.83279         11.9602         1.12205 
        3.84853           11.81         1.11045 
        3.86424         11.7188         1.09903 
        3.87992         11.6096          1.0878 
        3.89561         11.5183         1.07672 
        3.91134         11.4338         1.06577 
        3.92704         11.3343         1.05499 
        3.94273         11.2341         1.04436 
        3.95845         11.1347         1.03386 
        3.97418         11.0108         1.02351 
        3.98988         10.9382          1.0133 
        4.00554         10.8326         1.00327 
        4.02125          10.741        0.993342 
        4.03698         10.6837        0.983533 
        4.05268         10.5685        0.973878 
        4.06839         10.4449        0.964345 
         4.0841         10.3769        0.954942 
        4.09983         10.2947        0.945652 
        4.11555         10.2135        0.936488 
        4.13124         10.0934         0.92747 
        4.14693         10.0212        0.918563 
        4.16266         9.95674        0.909753 
        4.17839         9.86577        0.901062 
        4.19408         9.78568        0.892505 
        4.20977         9.69434        0.884055 
        4.22551         9.61991        0.875693 
        4.24123         9.55131        0.867448 
        4.25691         9.44048        0.859332 
        4.27259         9.35924        0.851316 
        4.28831         9.28243        0.843386 
        4.30404         9.23916        0.835549 
        4.31974         9.13424        0.827829 
        4.33543         9.04629         0.82021 
        4.35116         8.99794        0.812669 
        4.36688         8.90839        0.805225 
        4.38255         8.84677        0.797901 
        4.39825         8.75527        0.790653 
        4.41398         8.68993         0.78348 
         4.4297         8.62058        0.776403 
        4.44541         8.55991        0.769415 
        4.46111         8.46355        0.762518 
        4.47683          8.4003          0.7557 
        4.49251         8.33778        0.748979 
        4.50819         8.28101        0.742342 
         4.5239         8.23222        0.735775 
        4.53962         8.13039        0.729279 
        4.55535         8.08287        0.722858 
        4.57106          7.9977        0.716523 
        4.58678         7.95948        0.710263 
         4.6025          7.8812        0.704076 
        4.61821         7.82126        0.697963 
        4.63391         7.74893        0.691931 
         4.6496         7.69537        0.685972 
        4.66532         7.63817        0.680074 
        4.68103         7.55517        0.674248 
        4.69673         7.51517        0.668495 
        4.71241         7.43639        0.662815 
        4.72811         7.37719        0.657191 
        4.74384         7.33866        0.651626 
        4.75955         7.27974        0.646133 
        4.77525         7.23187        0.640706 
        4.79096         7.15671        0.635334 
        4.80669          7.1019        0.630022 
         4.8224          7.0384        0.624776 
        4.83809         7.00916        0.619595 
        4.85379         6.95072         0.61447 
         4.8695         6.90469        0.609398 
        4.88521          6.8324        0.604385 
        4.90093         6.79061        0.599428 
        4.91663         6.74322        0.594531 
        4.93234         6.68415        0.589683 
        4.94807         6.62974        0.584886 
        4.96377         6.58174        0.580151 
        4.97943         6.52141        0.575478 
        4.99514         6.47893        0.570845 
        5.01086         6.43067        0.566258 
        5.02654         6.38105        0.561734 
        5.04227         6.32216        0.557246 
          5.058         6.26911        0.552804 
        5.07371         6.25266         0.54842 
        5.08942         6.19596        0.544082 
        5.10513         6.15208        0.539791 
        5.12084         6.09053        0.535543 
        5.13656         6.05441        0.531342 
        5.15225         6.00432        0.527193 
        5.16796         5.98146        0.523082 
        5.18369         5.93006         0.51901 
         5.1994         5.88174        0.514989 
        5.21509         5.82091        0.511015 
        5.23079         5.80009        0.507077 
        5.24649         5.74875        0.503184 
        5.26217         5.72036        0.499334 
        5.27788         5.66371        0.495519 
        5.29359         5.63862        0.491743 
        5.30933         5.58292        0.488001 
        5.32504         5.54869        0.484303 
        5.34073          5.5077        0.480649 
        5.35646         5.46942        0.477024 
        5.37218         5.43513        0.473436 
        5.38789         5.38716         0.46989 
        5.40357         5.34751        0.466385 
        5.41929         5.31748        0.462908 
        5.43502         5.28145        0.459466 
         5.4507         5.23634        0.456066 
        5.46639         5.18649        0.452701 
        5.48212          5.1701        0.449361 
        5.49786         5.12884        0.446051 
        5.51353         5.10182        0.442791 
        5.52921         5.05546         0.43956 
        5.54495         5.01998        0.436352 
        5.56066         4.98271        0.433179 
        5.57637         4.95858        0.430038 
        5.59207         4.91463         0.42693 
        5.60778         4.88905        0.423853 
        5.62346         4.85642        0.420809 
        5.63916         4.81558        0.417793 
        5.65487         4.78201        0.414805 
         5.6706         4.74939        0.411842 
        5.68633         4.72553        0.408907 
        5.70203         4.68577        0.406006 
        5.71773         4.65718        0.403134 
        5.73344         4.62158        0.400288 
        5.74916         4.59618        0.397467 
        5.76486          4.5774        0.394677 
        5.78054         4.52377        0.391918 
        5.79626         4.49449        0.389178 
          5.812         4.47028        0.386461 
         5.8277         4.44425        0.383777 
        5.84339         4.41107        0.381119 
        5.85911         4.37964        0.378481 
        5.87484         4.34703        0.375869 
        5.89053           4.315        0.373286 
        5.90623         4.29544        0.370726 
        5.92195         4.27298        0.368186 
        5.93767         4.22534        0.365671 
        5.95336         4.21007        0.363183 
        5.96905          4.1826        0.360719 
        5.98476         4.15588        0.358275 
        6.00048         4.12928        0.355852 
        6.01617         4.09907        0.353455 
        6.03185         4.07681        0.351083 
        6.04756         4.04869        0.348727 
        6.06331          4.0282        0.346388 
        6.07903         3.99545        0.344075 
        6.09473         3.97078        0.341785 
        6.11044         3.93568        0.339513 
        6.12616         3.92138        0.337263 
        6.14186         3.89368        0.335035 
        6.15755         3.86992        0.332828 
        6.17326         3.84837        0.330638 
        6.18898          3.8239        0.328467 
        6.20467         3.79001         0.32632 
        6.22036         3.77179        0.324192 
         6.2361         3.74962        0.322076 
         6.2518         3.72745        0.319984 
        6.26748         3.69919        0.317914 
        6.28319         3.67944        0.315857 
        6.29893         3.65736        0.313816 
        6.31463         3.63997        0.311797 
        6.33033         3.61151        0.309796 
        6.34604         3.59298        0.307811 
        6.36177          3.5693        0.305841 
        6.37747         3.55137        0.303893 
