# k  (h/Mpc)    Pcb(k)  (Mpc/h)^3    Pcb_linear(k) (Mpc/h)^3   ShotnoiseSubtracted = true
      0.0200456         17978.3         18273.9 
      0.0350414         14319.7         13947.5 
      0.0492313         10389.5         10628.5 
      0.0637834         8409.49         8867.11 
      0.0800726          6521.8         6924.13 
       0.096163         5302.48         5162.57 
       0.111083         4452.55         4278.67 
       0.126058         3663.29         3755.49 
       0.142273         3141.28          3083.7 
       0.158546         2611.91         2486.94 
        0.17375         2358.87         2172.92 
       0.188953         2213.97         1946.82 
       0.204907         1890.53         1673.82 
       0.220756         1708.03         1431.22 
        0.23588         1535.55         1280.71 
         0.2514         1386.67         1160.51 
       0.267535         1337.88         1027.92 
       0.283568         1187.16         909.159 
       0.299022         1136.32         824.719 
       0.314451         1175.94         755.039 
       0.330372         1030.81         684.111 
       0.346141         948.341         620.144 
       0.361624         910.274         569.179 
       0.377134         868.601         525.409 
       0.392932         833.975         483.327 
       0.408854         795.358         444.537 
       0.424564          776.79         411.548 
       0.440253          716.34         382.589 
       0.455999         685.216         355.677 
       0.471626         696.616         331.148 
        0.48727          657.99         309.213 
       0.502856         621.792         289.563 
       0.518488         610.863          271.43 
       0.534347         578.272         254.458 
       0.550082         553.299         239.131 
       0.565732         546.964         225.209 
       0.581496         534.231         212.283 
       0.597222         519.791         200.346 
       0.612804         508.637          189.44 
       0.628434         486.408         179.344 
       0.644267         470.343         169.858 
       0.660051         464.074         161.079 
       0.675724         454.881         152.976 
       0.691403         442.719         145.428 
       0.707174         426.586         138.351 
       0.722871         418.679         131.775 
        0.73838         413.206         125.698 
       0.754018         399.416          119.96 
       0.769845         394.539         114.518 
        0.78569         386.243         109.409 
       0.801365         373.157         104.661 
       0.817031         368.852         100.198 
       0.832809         363.254         95.9674 
       0.848511         354.787         91.9998 
       0.864097         346.152          88.284 
       0.879701         342.401         84.7699 
       0.895507         330.492         81.4058 
       0.911279         324.568         78.2315 
        0.92691         320.783         75.2529 
       0.942635         318.093         72.4133 
       0.958396         306.597         69.7144 
       0.974128         302.861         67.1583 
       0.989692         291.175         64.7558 
        1.00528         290.649         62.4676 
        1.02113         284.983         60.2544 
        1.03692          279.09         58.1569 
        1.05264         274.046         56.1691 
        1.06832         271.246         54.2775 
        1.08405         265.717         52.4683 
        1.09979          261.73         50.7405 
        1.11537          254.44         49.1079 
        1.13105         251.141         47.5375 
        1.14679         247.418         46.0298 
        1.16256         244.816         44.5847 
        1.17828         240.531         43.2065 
        1.19395         233.882         41.8912 
         1.2097         233.486         40.6241 
        1.22537         229.204         39.4156 
          1.241         223.905           38.26 
        1.25666         221.347         37.1478 
        1.27241         217.188         36.0747 
        1.28819         213.695         35.0422 
        1.30392         211.026         34.0532 
        1.31957         205.393         33.1067 
        1.33529         202.589         32.1928 
        1.35108         200.782         31.3098 
        1.36674         195.971         30.4662 
         1.3824          194.05         29.6545 
        1.39811         191.484         28.8698 
        1.41389         186.079         28.1104 
        1.42964         184.283         27.3796 
        1.44531         181.733         26.6784 
        1.46101         178.614         26.0003 
        1.47667         175.946         25.3478 
        1.49229         173.237         24.7194 
        1.50793         170.601         24.1116 
        1.52367          168.37         23.5204 
        1.53953         164.071          22.945 
        1.55526         163.505         22.3935 
        1.57092         161.642         21.8623 
        1.58662         157.355         21.3472 
        1.60235         155.837         20.8476 
        1.61809         152.782         20.3638 
        1.63369         150.307         19.8996 
        1.64941         148.846         19.4466 
        1.66519         146.432         19.0061 
        1.68085         143.887         18.5823 
        1.69652         141.825         18.1713 
        1.71228         139.765         17.7705 
        1.72806         137.845         17.3814 
        1.74368         136.237         17.0078 
        1.75933         134.758         16.6445 
        1.77505         132.262         16.2901 
        1.79081         129.554         15.9453 
         1.8065         127.875          15.612 
        1.82218         125.641         15.2886 
        1.83797         124.828         14.9721 
        1.85367          122.92         14.6662 
        1.86928           120.8         14.3708 
        1.88497         119.607         14.0819 
        1.90073         118.167         13.7998 
        1.91647         115.847         13.5257 
        1.93218         114.534         13.2597 
        1.94787         112.593         13.0011 
        1.96363          111.84         12.7485 
        1.97935         110.021         12.5031 
        1.99499         108.881         12.2655 
        2.01064         106.402         12.0337 
         2.0264         105.277         11.8065 
        2.04216         103.777         11.5852 
        2.05781         102.326          11.371 
        2.07353         100.829         11.1615 
        2.08928         99.6009         10.9567 
        2.10499         98.2933         10.7577 
        2.12065          97.391         10.5641 
        2.13633           96.24         10.3752 
        2.15211         94.5635         10.1897 
        2.16785         93.1201         10.0092 
        2.18349         91.8422         9.83418 
        2.19916         91.0379           9.663 
        2.21489         89.8752         9.49533 
        2.23063         88.1608         9.33151 
         2.2463          87.463         9.17229 
        2.26194         86.2127         9.01718 
        2.27765          85.018         8.86485 
        2.29341         84.0638         8.71564 
        2.30914         83.0684         8.57017 
        2.32486         81.3839         8.42809 
        2.34061         80.9616           8.289 
        2.35635         79.6385         8.15316 
        2.37203          78.378         8.02084 
        2.38768         77.5716         7.89172 
        2.40339         76.9036         7.76497 
        2.41914         75.3982          7.6407 
        2.43483         74.6914         7.51959 
         2.4505         73.9537          7.4013 
        2.46622         72.9306         7.28515 
        2.48195         71.9425         7.17148 
        2.49759         71.0133         7.06083 
        2.51328         70.3467         6.95223 
        2.52906          68.861         6.84523 
        2.54479          68.259         6.74087 
        2.56049         67.2616         6.63888 
        2.57618         66.2923         6.53909 
        2.59189         66.0125         6.44119 
        2.60758         64.6907         6.34545 
        2.62325         64.3053         6.25177 
        2.63898         63.4088         6.15965 
        2.65468         62.6452         6.06958 
        2.67044         61.6998         5.98092 
        2.68618         61.2247         5.89423 
        2.70184         60.1051          5.8096 
        2.71755          59.514         5.72642 
        2.73329         58.6557         5.64474 
        2.74897         58.2664         5.56491 
        2.76462         57.4663          5.4868 
        2.78034         56.6627         5.40986 
        2.79607         56.0357         5.33432 
        2.81179         55.4936          5.2603 
        2.82749         54.9368         5.18777 
        2.84321         54.2842         5.11652 
        2.85893         53.6648         5.04663 
        2.87462         52.9267         4.97816 
        2.89033          52.366         4.91089 
        2.90605         51.9196         4.84481 
        2.92176         51.0315         4.77997 
        2.93747         50.5567         4.71635 
        2.95318         50.0005         4.65387 
        2.96891         49.3781          4.5925 
        2.98456         48.8714         4.53249 
        3.00023         48.1649         4.47348 
        3.01596         47.9059         4.41532 
        3.03164         47.2393         4.35837 
        3.04738         46.7091         4.30225 
         3.0631         46.0154         4.24713 
        3.07883         45.6174         4.19298 
        3.09456         45.1093         4.13977 
        3.11026         44.5359         4.08757 
        3.12596         44.2034         4.03627 
        3.14163         43.5655         3.98597 
        3.15734         43.1045         3.93641 
        3.17308         42.6282         3.88757 
        3.18879         42.1028         3.83969 
        3.20447         41.7514         3.79268 
         3.2202         41.1658         3.74631 
         3.2359         40.7992          3.7008 
        3.25157         40.3806         3.65615 
        3.26729         39.8662          3.6121 
        3.28304         39.5076         3.56869 
        3.29877         39.0066         3.52605 
        3.31446         38.7316         3.48419 
        3.33014          38.288         3.44305 
        3.34585          37.804         3.40251 
        3.36158         37.4046         3.36256 
        3.37727         37.0653         3.32337 
        3.39294         36.7419         3.28484 
        3.40867          36.386         3.24679 
        3.42439         35.8696         3.20935 
        3.44008         35.4858         3.17258 
        3.45578         35.1177         3.13636 
        3.47153         34.7782         3.10062 
        3.48724         34.3276         3.06549 
        3.50292         33.9329         3.03099 
        3.51859         33.7936         2.99704 
        3.53431         33.1872          2.9635 
        3.55007         32.9723         2.93039 
        3.56577         32.6738         2.89792 
        3.58146           32.22         2.86595 
        3.59719         31.9387         2.83439 
        3.61292         31.5718         2.80331 
        3.62859         31.3589         2.77282 
        3.64429         31.1256         2.74272 
        3.66003         30.7311         2.71297 
        3.67578         30.4653         2.68367 
        3.69146         30.1631         2.65492 
        3.70712         29.8212         2.62663 
        3.72284         29.5556         2.59866 
        3.73853         29.2738         2.57114 
        3.75422         28.9863           2.544 
        3.76993         28.7714         2.51724 
        3.78564         28.4527         2.49086 
        3.80137          28.172         2.46482 
        3.81707         27.8496         2.43921 
        3.83279         27.5425         2.41394 
        3.84853         27.3058         2.38899 
        3.86424         27.0919         2.36443 
        3.87992         26.8313         2.34026 
        3.89561         26.6396         2.31642 
        3.91134         26.3821         2.29287 
        3.92704          26.057         2.26967 
        3.94273         25.8593         2.24681 
        3.95845         25.5632         2.22422 
        3.97418         25.3177         2.20194 
        3.98988         25.0245            2.18 
        4.00554         24.7866         2.15841 
        4.02125         24.6095         2.13705 
        4.03698         24.3662         2.11595 
        4.05268         24.1729         2.09518 
        4.06839          23.876         2.07467 
         4.0841         23.7369         2.05444 
        4.09983         23.4334         2.03445 
        4.11555         23.2401         2.01474 
        4.13124         23.0703         1.99534 
        4.14693         22.8622         1.97617 
        4.16266         22.5686         1.95722 
        4.17839         22.4019         1.93852 
        4.19408         22.1797         1.92011 
        4.20977         21.9786         1.90193 
        4.22551         21.8431         1.88394 
        4.24123          21.613         1.86621 
        4.25691         21.4213         1.84874 
        4.27259         21.2102          1.8315 
        4.28831         21.0321         1.81444 
        4.30404         20.8201         1.79758 
        4.31974         20.6137         1.78097 
        4.33543         20.4569         1.76458 
        4.35116         20.2976         1.74835 
        4.36688          20.115         1.73234 
        4.38255         19.9287         1.71658 
        4.39825         19.7332         1.70099 
        4.41398         19.6312         1.68556 
         4.4297         19.4026         1.67033 
        4.44541         19.2578          1.6553 
        4.46111         19.0802         1.64046 
        4.47683         18.8811         1.62579 
        4.49251          18.752         1.61133 
        4.50819         18.5867         1.59705 
         4.5239         18.3727         1.58293 
        4.53962         18.2638         1.56895 
        4.55535         18.0608         1.55514 
        4.57106         17.9222         1.54151 
        4.58678         17.7775         1.52804 
         4.6025         17.6179         1.51473 
        4.61821         17.4457         1.50158 
        4.63391         17.2984          1.4886 
         4.6496         17.1812         1.47578 
        4.66532         16.9985         1.46309 
        4.68103         16.8533         1.45056 
        4.69673         16.7484         1.43818 
        4.71241         16.6088         1.42596 
        4.72811         16.4458         1.41386 
        4.74384         16.3388         1.40189 
        4.75955         16.1601         1.39007 
        4.77525         16.0552          1.3784 
        4.79096         15.9258         1.36684 
        4.80669         15.8031         1.35541 
         4.8224         15.6787         1.34413 
        4.83809         15.5499         1.33298 
        4.85379         15.3945         1.32195 
         4.8695         15.2354         1.31104 
        4.88521         15.1194         1.30026 
        4.90093         15.0454         1.28959 
        4.91663         14.8981         1.27906 
        4.93234         14.7645         1.26863 
        4.94807         14.6784         1.25831 
        4.96377         14.4956         1.24812 
        4.97943         14.4124         1.23807 
        4.99514         14.3126          1.2281 
        5.01086         14.1568         1.21823 
        5.02654         14.0908          1.2085 
        5.04227         13.9347         1.19884 
          5.058         13.8515         1.18929 
        5.07371         13.7566         1.17986 
        5.08942         13.6053         1.17052 
        5.10513          13.522         1.16129 
        5.12084         13.3756         1.15215 
        5.13656         13.2862         1.14312 
        5.15225         13.1634         1.13419 
        5.16796          13.095         1.12534 
        5.18369         12.9873         1.11659 
         5.1994          12.898         1.10793 
        5.21509         12.7847         1.09938 
        5.23079         12.7023         1.09091 
        5.24649         12.6122         1.08254 
        5.26217         12.4751         1.07425 
        5.27788         12.3888         1.06605 
        5.29359         12.2967         1.05792 
        5.30933         12.1916         1.04987 
        5.32504         12.0796         1.04192 
        5.34073         12.0086         1.03406 
        5.35646         11.9063         1.02626 
        5.37218         11.8132         1.01854 
        5.38789         11.7415         1.01091 
        5.40357         11.6567         1.00337 
        5.41929         11.5659        0.995888 
        5.43502         11.4603        0.988482 
         5.4507         11.3911        0.981169 
        5.46639         11.3062        0.973929 
        5.48212         11.2055        0.966744 
        5.49786         11.1163        0.959624 
        5.51353         11.0456         0.95261 
        5.52921         10.9585        0.945658 
        5.54495          10.874        0.938756 
        5.56066         10.8025         0.93193 
        5.57637          10.732        0.925172 
        5.59207         10.6238        0.918487 
        5.60778         10.5605        0.911866 
        5.62346         10.5023        0.905318 
        5.63916         10.3931        0.898829 
        5.65487         10.3469          0.8924 
         5.6706         10.2588        0.886026 
        5.68633         10.1778        0.879711 
        5.70203         10.0973        0.873471 
        5.71773         10.0319        0.867293 
        5.73344         9.96924         0.86117 
        5.74916         9.88573        0.855101 
        5.76486         9.80612        0.849099 
        5.78054         9.73997        0.843163 
        5.79626          9.6659        0.837267 
          5.812         9.60313        0.831421 
         5.8277         9.53481        0.825648 
        5.84339         9.45173         0.81993 
        5.85911         9.38751        0.814255 
        5.87484         9.31833        0.808634 
        5.89053          9.2641        0.803078 
        5.90623         9.18685        0.797571 
        5.92195         9.11551        0.792105 
        5.93767         9.06317        0.786694 
        5.95336          9.0151        0.781342 
        5.96905         8.92441        0.776042 
        5.98476          8.8711        0.770783 
        6.00048         8.81039        0.765572 
        6.01617         8.74755        0.760415 
        6.03185         8.69227        0.755312 
        6.04756         8.61554        0.750243 
        6.06331         8.54308         0.74521 
        6.07903         8.50485        0.740233 
        6.09473         8.43908        0.735307 
        6.11044         8.38248         0.73042 
        6.12616         8.31974        0.725579 
        6.14186         8.26713        0.720786 
        6.15755         8.21831        0.716037 
        6.17326         8.15136        0.711327 
        6.18898         8.09226        0.706656 
        6.20467         8.03784        0.702036 
        6.22036         7.99238        0.697457 
         6.2361         7.94312        0.692907 
         6.2518         7.88988        0.688405 
        6.26748         7.83081        0.683952 
        6.28319          7.7784        0.679526 
        6.29893         7.71227        0.675136 
        6.31463         7.67575        0.670791 
        6.33033         7.60909        0.666487 
        6.34604         7.56632        0.662216 
        6.36177          7.5117        0.657979 
        6.37747         7.45872        0.653787 
