# k  (h/Mpc)    Pcb(k)  (Mpc/h)^3    Pcb_linear(k) (Mpc/h)^3   ShotnoiseSubtracted = true
      0.0200456         11911.1           12086 
      0.0350414         9446.77         9224.61 
      0.0492313         6932.44         7029.45 
      0.0637834          5628.9         5864.53 
      0.0800726         4374.69         4579.48 
       0.096163         3507.15         3414.42 
       0.111083         2945.94         2829.82 
       0.126058         2437.35          2483.8 
       0.142273         2062.89         2039.49 
       0.158546         1717.86         1644.81 
        0.17375         1537.85         1437.13 
       0.188953         1420.39         1287.59 
       0.204907         1201.92         1107.03 
       0.220756         1082.33         946.581 
        0.23588         972.631         847.035 
         0.2514         872.704          767.54 
       0.267535         842.239         679.843 
       0.283568         738.618         601.299 
       0.299022         706.952         545.452 
       0.314451         717.227         499.368 
       0.330372         617.537         452.457 
       0.346141         572.256         410.151 
       0.361624          547.72         376.444 
       0.377134         514.528         347.495 
       0.392932         498.728         319.663 
       0.408854         474.107         294.007 
       0.424564         458.769         272.189 
       0.440253          416.26         253.037 
       0.455999         399.059         235.238 
       0.471626         401.363         219.014 
        0.48727         380.682         204.507 
       0.502856          350.29         191.511 
       0.518488         351.062         179.519 
       0.534347         326.299         168.294 
       0.550082         316.685         158.156 
       0.565732         314.545         148.948 
       0.581496         300.134         140.399 
       0.597222          291.71         132.505 
       0.612804           284.3         125.292 
       0.628434          272.67         118.614 
       0.644267         261.171          112.34 
       0.660051         256.656         106.534 
       0.675724         254.214         101.175 
       0.691403         246.315          96.183 
       0.707174         237.685         91.5022 
       0.722871         233.948         87.1532 
        0.73838         231.927         83.1344 
       0.754018         219.802         79.3392 
       0.769845         218.996         75.7399 
        0.78569         213.725         72.3606 
       0.801365         208.182         69.2206 
       0.817031         202.691         66.2691 
       0.832809         199.682         63.4709 
       0.848511          194.52         60.8468 
       0.864097          189.94         58.3892 
       0.879701         188.581         56.0651 
       0.895507         183.654         53.8401 
       0.911279          178.24         51.7407 
        0.92691         175.879         49.7708 
       0.942635         173.748         47.8927 
       0.958396         169.884         46.1077 
       0.974128         166.057         44.4171 
       0.989692         161.475         42.8282 
        1.00528         160.064         41.3148 
        1.02113         156.553          39.851 
        1.03692          154.27         38.4638 
        1.05264         151.907         37.1491 
        1.06832         149.355         35.8981 
        1.08405         146.268         34.7014 
        1.09979         145.382         33.5588 
        1.11537         141.779          32.479 
        1.13105         140.093         31.4403 
        1.14679         137.613         30.4432 
        1.16256         135.466         29.4874 
        1.17828         133.491         28.5759 
        1.19395         130.015          27.706 
         1.2097         129.404          26.868 
        1.22537         126.888         26.0687 
          1.241         125.475         25.3044 
        1.25666         122.127         24.5688 
        1.27241         119.672         23.8591 
        1.28819         118.754         23.1762 
        1.30392         116.337         22.5221 
        1.31957         114.587         21.8961 
        1.33529         113.274         21.2917 
        1.35108         111.788         20.7077 
        1.36674         109.641         20.1497 
         1.3824         109.229         19.6129 
        1.39811          106.07         19.0939 
        1.41389         105.376         18.5916 
        1.42964          103.05         18.1083 
        1.44531         101.929         17.6446 
        1.46101         100.341         17.1961 
        1.47667         99.5858         16.7645 
        1.49229         98.3729         16.3489 
        1.50793         96.3414         15.9469 
        1.52367         95.3916         15.5559 
        1.53953          93.728         15.1753 
        1.55526         92.4736         14.8106 
        1.57092         91.8402         14.4593 
        1.58662          90.338         14.1186 
        1.60235         88.7171         13.7882 
        1.61809         87.9986         13.4682 
        1.63369         86.2971         13.1612 
        1.64941         86.2158         12.8616 
        1.66519         84.2074         12.5702 
        1.68085         83.2303           12.29 
        1.69652         81.5298         12.0182 
        1.71228         80.9266          11.753 
        1.72806         79.9203         11.4957 
        1.74368         78.6281         11.2486 
        1.75933         77.8452         11.0083 
        1.77505         77.0632         10.7739 
        1.79081         75.6337         10.5459 
         1.8065         75.1853         10.3255 
        1.82218         73.5665         10.1116 
        1.83797         73.2017         9.90221 
        1.85367         71.8609         9.69995 
        1.86928         71.0613         9.50455 
        1.88497         70.3217         9.31346 
        1.90073         69.3546         9.12692 
        1.91647         68.1683         8.94564 
        1.93218         67.5263         8.76967 
        1.94787         66.6682         8.59869 
        1.96363         65.6751         8.43159 
        1.97935          65.119         8.26927 
        1.99499         64.2524         8.11213 
        2.01064         63.4386         7.95885 
         2.0264         62.3184         7.80856 
        2.04216         61.7382         7.66222 
        2.05781         60.9765         7.52055 
        2.07353         60.1467         7.38195 
        2.08928         59.4352         7.24655 
        2.10499          58.691         7.11489 
        2.12065         58.2126          6.9869 
        2.13633         57.5113         6.86194 
        2.15211         56.5922         6.73923 
        2.16785         55.7182         6.61986 
        2.18349         55.1706         6.50413 
        2.19916         54.4163         6.39091 
        2.21489         53.8968         6.28001 
        2.23063         53.0171         6.17167 
         2.2463         52.5729         6.06636 
        2.26194          52.061         5.96378 
        2.27765         51.2344         5.86303 
        2.29341         50.5476         5.76435 
        2.30914          49.908         5.66813 
        2.32486         49.2981         5.57417 
        2.34061         48.9561         5.48217 
        2.35635         48.0845         5.39234 
        2.37203         47.7873         5.30482 
        2.38768         47.1156         5.21942 
        2.40339         46.5637         5.13559 
        2.41914          46.041          5.0534 
        2.43483         45.3657          4.9733 
         2.4505         44.9828         4.89507 
        2.46622         44.4642         4.81825 
        2.48195         43.8737         4.74307 
        2.49759         43.3106         4.66989 
        2.51328         42.9546         4.59807 
        2.52906         42.3535         4.52729 
        2.54479         41.9495         4.45827 
        2.56049         41.2443         4.39082 
        2.57618         40.8779         4.32482 
        2.59189         40.4816         4.26007 
        2.60758         39.9051         4.19675 
        2.62325         39.5205         4.13479 
        2.63898         39.0826         4.07387 
        2.65468         38.7354         4.01429 
        2.67044         38.2768         3.95566 
        2.68618         37.9235         3.89832 
        2.70184          37.291         3.84235 
        2.71755         37.0482         3.78734 
        2.73329           36.43         3.73331 
        2.74897         36.1774         3.68052 
        2.76462          35.681         3.62886 
        2.78034          35.341         3.57797 
        2.79607         34.9156         3.52801 
        2.81179          34.587         3.47906 
        2.82749         34.1626         3.43108 
        2.84321         33.7568         3.38396 
        2.85893          33.387         3.33774 
        2.87462         32.9628         3.29245 
        2.89033         32.7357         3.24796 
        2.90605         32.3154         3.20426 
        2.92176         32.0361         3.16137 
        2.93747         31.7396          3.1193 
        2.95318         31.3413         3.07798 
        2.96891           31.03         3.03738 
        2.98456         30.7139          2.9977 
        3.00023         30.3225         2.95867 
        3.01596         30.0599          2.9202 
        3.03164         29.7497         2.88253 
        3.04738         29.4498         2.84542 
         3.0631          29.182         2.80897 
        3.07883         28.7935         2.77315 
        3.09456         28.3548         2.73796 
        3.11026          28.126         2.70344 
        3.12596         27.8544         2.66951 
        3.14163         27.5551         2.63624 
        3.15734         27.2592         2.60346 
        3.17308         26.9937         2.57116 
        3.18879         26.7032         2.53949 
        3.20447         26.4474          2.5084 
         3.2202         26.1399         2.47773 
         3.2359         25.8777         2.44763 
        3.25157         25.6509          2.4181 
        3.26729         25.3348         2.38897 
        3.28304         25.0449         2.36026 
        3.29877         24.7623         2.33205 
        3.31446         24.5059         2.30437 
        3.33014         24.3326         2.27716 
        3.34585         24.0661         2.25035 
        3.36158         23.8156         2.22393 
        3.37727         23.5877         2.19801 
        3.39294         23.2957         2.17253 
        3.40867         23.0888         2.14736 
        3.42439          22.906          2.1226 
        3.44008         22.6644         2.09828 
        3.45578         22.5393         2.07432 
        3.47153         22.1878         2.05068 
        3.48724         21.9337         2.02745 
        3.50292         21.7567         2.00464 
        3.51859         21.5136         1.98218 
        3.53431         21.2922            1.96 
        3.55007         21.0757          1.9381 
        3.56577         20.9167         1.91663 
        3.58146         20.7093         1.89548 
        3.59719          20.524         1.87461 
        3.61292         20.2907         1.85405 
        3.62859         20.1017         1.83388 
        3.64429         19.8872         1.81398 
        3.66003         19.7538          1.7943 
        3.67578         19.5594         1.77493 
        3.69146         19.3565         1.75591 
        3.70712          19.162          1.7372 
        3.72284         18.9929          1.7187 
        3.73853         18.8231          1.7005 
        3.75422         18.5245         1.68255 
        3.76993         18.4323         1.66485 
        3.78564         18.2568         1.64741 
        3.80137         18.0898         1.63018 
        3.81707         17.9319         1.61325 
        3.83279         17.7514         1.59653 
        3.84853         17.5727         1.58003 
        3.86424         17.4072         1.56379 
        3.87992         17.2201          1.5478 
        3.89561         17.1022         1.53204 
        3.91134         16.8821         1.51646 
        3.92704         16.7593         1.50111 
        3.94273         16.6019         1.48599 
        3.95845          16.444         1.47106 
        3.97418         16.2577         1.45632 
        3.98988         16.1664         1.44181 
        4.00554         16.0458         1.42753 
        4.02125         15.7978          1.4134 
        4.03698         15.6683         1.39944 
        4.05268         15.5632         1.38571 
        4.06839         15.4071         1.37214 
         4.0841         15.2523         1.35876 
        4.09983         15.0819         1.34554 
        4.11555         14.9627         1.33251 
        4.13124         14.8488         1.31967 
        4.14693         14.7284           1.307 
        4.16266         14.6424         1.29446 
        4.17839         14.4616          1.2821 
        4.19408          14.288         1.26992 
        4.20977         14.1944          1.2579 
        4.22551         14.0605           1.246 
        4.24123         13.9548         1.23427 
        4.25691         13.7724         1.22272 
        4.27259         13.7062         1.21132 
        4.28831         13.5971         1.20003 
        4.30404          13.459         1.18888 
        4.31974         13.3614          1.1779 
        4.33543         13.2374         1.16706 
        4.35116         13.1007         1.15633 
        4.36688         13.0086         1.14573 
        4.38255         12.8811         1.13531 
        4.39825         12.7181           1.125 
        4.41398          12.665         1.11479 
         4.4297         12.5378         1.10472 
        4.44541          12.405         1.09478 
        4.46111         12.3355         1.08497 
        4.47683         12.1919         1.07527 
        4.49251         12.1039          1.0657 
        4.50819         12.0056         1.05626 
         4.5239         11.9031         1.04692 
        4.53962         11.8095         1.03767 
        4.55535          11.711         1.02854 
        4.57106         11.6086         1.01952 
        4.58678          11.511         1.01062 
         4.6025         11.4179         1.00181 
        4.61821         11.3154        0.993115 
        4.63391         11.2203        0.984532 
         4.6496         11.1037        0.976053 
        4.66532         10.9929        0.967661 
        4.68103         10.9382        0.959371 
        4.69673         10.8359        0.951185 
        4.71241         10.7743        0.943103 
        4.72811         10.6711        0.935101 
        4.74384          10.572        0.927182 
        4.75955         10.4739        0.919366 
        4.77525          10.396        0.911644 
        4.79096         10.3151        0.904001 
        4.80669         10.2386        0.896442 
         4.8224         10.1351        0.888978 
        4.83809         10.0797        0.881606 
        4.85379          10.002        0.874314 
         4.8695         9.90238        0.867097 
        4.88521         9.84462        0.859965 
        4.90093         9.76313        0.852912 
        4.91663         9.68505        0.845943 
        4.93234         9.61438        0.839045 
        4.94807         9.52356         0.83222 
        4.96377         9.46537        0.825482 
        4.97943         9.39105        0.818833 
        4.99514         9.27058         0.81224 
        5.01086         9.22087        0.805715 
        5.02654         9.14171        0.799277 
        5.04227         9.05586        0.792891 
          5.058         9.01908        0.786571 
        5.07371         8.93363        0.780333 
        5.08942         8.88264        0.774161 
        5.10513         8.79854        0.768054 
        5.12084         8.73831        0.762011 
        5.13656         8.67887        0.756034 
        5.15225         8.57991         0.75013 
        5.16796         8.52406         0.74428 
        5.18369         8.47277        0.738487 
         5.1994         8.39354        0.732765 
        5.21509          8.3254         0.72711 
        5.23079         8.25387        0.721507 
        5.24649         8.20241        0.715968 
        5.26217         8.12101         0.71049 
        5.27788         8.09047        0.705061 
        5.29359         8.00409        0.699689 
        5.30933         7.96402        0.694364 
        5.32504         7.90597        0.689103 
        5.34073         7.84917        0.683903 
        5.35646         7.77888        0.678746 
        5.37218         7.72755         0.67364 
        5.38789         7.67014        0.668595 
        5.40357         7.59564        0.663608 
        5.41929         7.55825         0.65866 
        5.43502         7.49909        0.653762 
         5.4507          7.4346        0.648925 
        5.46639          7.3734        0.644137 
        5.48212         7.31558        0.639385 
        5.49786         7.26864        0.634675 
        5.51353         7.22201        0.630037 
        5.52921         7.16953        0.625439 
        5.54495         7.10693        0.620874 
        5.56066         7.06418        0.616359 
        5.57637         7.00529         0.61189 
        5.59207         6.95834        0.607469 
        5.60778         6.89941        0.603089 
        5.62346         6.85601        0.598759 
        5.63916         6.81495        0.594467 
        5.65487         6.76055        0.590215 
         5.6706         6.70315        0.585999 
        5.68633         6.65566        0.581823 
        5.70203         6.60357        0.577696 
        5.71773         6.56715         0.57361 
        5.73344         6.52382         0.56956 
        5.74916         6.49234        0.565546 
        5.76486         6.43042        0.561576 
        5.78054         6.38035        0.557651 
        5.79626          6.3269        0.553751 
          5.812         6.29048        0.549885 
         5.8277         6.25254        0.546067 
        5.84339         6.21319        0.542285 
        5.85911         6.15795        0.538532 
        5.87484         6.11987        0.534814 
        5.89053         6.06501        0.531139 
        5.90623         6.02563        0.527497 
        5.92195         6.00271        0.523882 
        5.93767         5.95292        0.520303 
        5.95336         5.91054        0.516764 
        5.96905         5.87494        0.513258 
        5.98476         5.83797         0.50978 
        6.00048         5.79011        0.506333 
        6.01617         5.74693        0.502923 
        6.03185         5.71835        0.499548 
        6.04756         5.66905        0.496195 
        6.06331          5.6277        0.492867 
        6.07903         5.60353        0.489575 
        6.09473         5.55757        0.486317 
        6.11044         5.53166        0.483085 
        6.12616          5.4804        0.479883 
        6.14186         5.45677        0.476713 
        6.15755          5.4079        0.473572 
        6.17326          5.3793        0.470457 
        6.18898         5.33907        0.467368 
        6.20467         5.30538        0.464312 
        6.22036         5.26637        0.461284 
         6.2361         5.24031        0.458275 
         6.2518         5.19116        0.455297 
        6.26748          5.1602        0.452352 
        6.28319         5.12516        0.449425 
        6.29893         5.09485        0.446521 
        6.31463          5.0617        0.443648 
        6.33033         5.02723        0.440801 
        6.34604         4.99826        0.437976 
        6.36177         4.96488        0.435174 
        6.37747         4.93781        0.432401 
