# k  (h/Mpc)    Pcb(k)  (Mpc/h)^3    Pcb_linear(k) (Mpc/h)^3   ShotnoiseSubtracted = true
      0.0200456         31572.2         32492.2 
      0.0350414         23251.8         24799.6 
      0.0492313         18131.4         18898.1 
      0.0637834         15885.2         15766.3 
      0.0800726         12349.1         12311.6 
       0.096163         8688.37          9179.4 
       0.111083         7258.59         7607.76 
       0.126058         6612.54         6677.51 
       0.142273         5655.81         5483.02 
       0.158546         5184.71         4421.94 
        0.17375         4246.96         3863.61 
       0.188953         4159.41         3461.58 
       0.204907         3888.52         2976.17 
       0.220756         3416.04         2544.81 
        0.23588         3115.82         2277.19 
         0.2514         2766.22         2063.47 
       0.267535         2777.27          1827.7 
       0.283568         2514.36         1616.55 
       0.299022         2415.78         1466.41 
       0.314451         2291.81         1342.51 
       0.330372          2084.6          1216.4 
       0.346141         2087.63         1102.66 
       0.361624         2011.48         1012.04 
       0.377134         1893.96         934.213 
       0.392932         1808.27         859.388 
       0.408854         1773.16         790.416 
       0.424564         1632.27          731.76 
       0.440253         1599.68         680.269 
       0.455999         1590.65         632.418 
       0.471626         1517.62         588.803 
        0.48727         1468.78         549.801 
       0.502856         1390.08         514.863 
       0.518488         1417.98         482.622 
       0.534347         1315.95         452.444 
       0.550082         1309.72          425.19 
       0.565732         1281.36         400.436 
       0.581496         1234.91         377.453 
       0.597222         1190.31          356.23 
       0.612804         1175.91         336.838 
       0.628434          1135.3         318.885 
       0.644267         1111.89         302.018 
       0.660051         1091.93         286.409 
       0.675724         1075.86         272.001 
       0.691403         1048.66         258.581 
       0.707174         1007.88         245.997 
       0.722871         978.144         234.305 
        0.73838         969.512           223.5 
       0.754018         941.602         213.297 
       0.769845         929.338         203.621 
        0.78569         915.055         194.536 
       0.801365         885.554         186.094 
       0.817031         869.797         178.159 
       0.832809         851.005         170.636 
       0.848511         837.412         163.582 
       0.864097         811.143         156.975 
       0.879701         793.086         150.727 
       0.895507          782.96         144.745 
       0.911279         776.095         139.101 
        0.92691         748.161         133.805 
       0.942635         729.594         128.756 
       0.958396         723.484         123.957 
       0.974128         706.784         119.412 
       0.989692         693.249          115.14 
        1.00528         672.843         111.072 
        1.02113         669.745         107.136 
        1.03692         654.055         103.407 
        1.05264         642.972         99.8724 
        1.06832         631.721         96.5091 
        1.08405         615.306         93.2921 
        1.09979         601.726         90.2201 
        1.11537         591.819         87.3171 
        1.13105         582.031         84.5249 
        1.14679         568.637         81.8441 
        1.16256         560.909         79.2746 
        1.17828         550.639          76.824 
        1.19395         540.496         74.4855 
         1.2097         525.805         72.2325 
        1.22537         515.792         70.0836 
          1.241         507.644         68.0288 
        1.25666         505.705         66.0513 
        1.27241         491.495         64.1432 
        1.28819         479.666         62.3074 
        1.30392         475.576         60.5488 
        1.31957         461.845         58.8659 
        1.33529         453.954         57.2409 
        1.35108         446.369         55.6709 
        1.36674         437.665          54.171 
         1.3824          432.54         52.7278 
        1.39811         420.189         51.3324 
        1.41389         416.125         49.9822 
        1.42964         409.916         48.6828 
        1.44531         403.129          47.436 
        1.46101         396.765         46.2303 
        1.47667         386.555           45.07 
        1.49229         381.497         43.9527 
        1.50793           372.4         42.8721 
        1.52367         368.536         41.8208 
        1.53953         357.787         40.7977 
        1.55526         356.882         39.8171 
        1.57092         350.256         38.8727 
        1.58662          343.12         37.9567 
        1.60235         339.549         37.0685 
        1.61809         333.875         36.2082 
        1.63369         325.419         35.3829 
        1.64941           319.5         34.5774 
        1.66519         314.409         33.7941 
        1.68085         311.231         33.0406 
        1.69652         307.901         32.3099 
        1.71228         300.873         31.5971 
        1.72806          298.23         30.9052 
        1.74368         292.294          30.241 
        1.75933           286.5          29.595 
        1.77505          283.04         28.9648 
        1.79081         278.049         28.3519 
         1.8065         274.337         27.7593 
        1.82218          270.67         27.1841 
        1.83797         265.668         26.6213 
        1.85367         259.802         26.0776 
        1.86928         257.737         25.5522 
        1.88497         252.665         25.0385 
        1.90073         249.386          24.537 
        1.91647         245.996         24.0497 
        1.93218          240.84         23.5766 
        1.94787         238.175         23.1169 
        1.96363         235.119         22.6677 
        1.97935         230.541         22.2313 
        1.99499         226.773         21.8088 
        2.01064         224.822         21.3967 
         2.0264         220.286         20.9927 
        2.04216         216.835         20.5993 
        2.05781         214.682         20.2184 
        2.07353         210.242         19.8458 
        2.08928         208.703         19.4818 
        2.10499         204.837         19.1278 
        2.12065         201.134         18.7837 
        2.13633         198.542         18.4478 
        2.15211         196.086         18.1179 
        2.16785         194.255          17.797 
        2.18349          190.62         17.4858 
        2.19916         187.756         17.1815 
        2.21489         185.734         16.8833 
        2.23063         183.149         16.5921 
         2.2463         180.363         16.3089 
        2.26194         177.731         16.0331 
        2.27765         174.607         15.7623 
        2.29341         173.049          15.497 
        2.30914         170.617         15.2383 
        2.32486         167.498         14.9857 
        2.34061         165.674         14.7384 
        2.35635         163.996         14.4969 
        2.37203         161.976         14.2616 
        2.38768         159.141          14.032 
        2.40339         156.979         13.8066 
        2.41914         154.791         13.5857 
        2.43483         153.658         13.3703 
         2.4505         150.629           13.16 
        2.46622         150.142         12.9535 
        2.48195         147.366         12.7514 
        2.49759         145.222         12.5546 
        2.51328         143.215         12.3615 
        2.52906         141.226         12.1713 
        2.54479         139.918         11.9857 
        2.56049         138.084         11.8044 
        2.57618         136.474         11.6269 
        2.59189         134.858         11.4529 
        2.60758         132.862         11.2826 
        2.62325          131.03         11.1161 
        2.63898         129.311         10.9523 
        2.65468         128.274         10.7921 
        2.67044         126.447         10.6345 
        2.68618          124.89         10.4803 
        2.70184         123.286         10.3299 
        2.71755         122.321          10.182 
        2.73329         120.186         10.0367 
        2.74897         118.841         9.89478 
        2.76462         117.581          9.7559 
        2.78034         116.358          9.6191 
        2.79607          114.48         9.48478 
        2.81179         113.221         9.35317 
        2.82749         112.135          9.2242 
        2.84321         110.358         9.09752 
        2.85893         109.115         8.97324 
        2.87462         107.397          8.8515 
        2.89033         106.548         8.73189 
        2.90605         106.202         8.61439 
        2.92176         103.977         8.49911 
        2.93747         103.121         8.38599 
        2.95318         101.914          8.2749 
        2.96891         100.884         8.16577 
        2.98456          99.433         8.05908 
        3.00023         98.4674         7.95414 
        3.01596         97.1828         7.85074 
        3.03164         96.2077         7.74947 
        3.04738         94.8829         7.64968 
         3.0631          93.774         7.55168 
        3.07883         93.4717         7.45539 
        3.09456         91.9102         7.36079 
        3.11026         90.9314         7.26798 
        3.12596         90.0975         7.17677 
        3.14163         88.5152         7.08733 
        3.15734         88.0895          6.9992 
        3.17308         87.0858         6.91236 
        3.18879         85.6288         6.82722 
        3.20447         85.1281         6.74364 
         3.2202          83.743          6.6612 
         3.2359         83.1347         6.58027 
        3.25157          82.293         6.50088 
        3.26729           81.54         6.42256 
        3.28304          80.462         6.34537 
        3.29877         79.7184         6.26955 
        3.31446         78.7214         6.19512 
        3.33014         78.2684         6.12197 
        3.34585         77.1458         6.04989 
        3.36158         76.2004         5.97885 
        3.37727         75.5315         5.90918 
        3.39294         74.7327         5.84067 
        3.40867          73.919         5.77301 
        3.42439         73.2662         5.70645 
        3.44008         72.4695         5.64106 
        3.45578         71.8747         5.57665 
        3.47153         70.9102          5.5131 
        3.48724         70.1958         5.45065 
        3.50292         69.6182         5.38931 
        3.51859         68.5549         5.32894 
        3.53431         67.9389         5.26931 
        3.55007         67.3504         5.21044 
        3.56577         66.4365          5.1527 
        3.58146         65.9209         5.09585 
        3.59719          65.351         5.03973 
        3.61292         64.5216         4.98448 
        3.62859         64.1588         4.93026 
        3.64429         63.3854         4.87673 
        3.66003          62.662         4.82384 
        3.67578         61.7611         4.77175 
        3.69146         61.4594         4.72062 
        3.70712         60.7785         4.67033 
        3.72284          60.271         4.62059 
        3.73853         59.7806         4.57165 
        3.75422         59.1111         4.52341 
        3.76993         58.5553         4.47581 
        3.78564         57.8057         4.42892 
        3.80137         57.1896         4.38262 
        3.81707          56.642         4.33708 
        3.83279         56.1798         4.29215 
        3.84853          55.743         4.24778 
        3.86424         55.2116         4.20412 
        3.87992         54.4678         4.16114 
        3.89561         54.0045         4.11876 
        3.91134         53.4639         4.07688 
        3.92704          53.044         4.03562 
        3.94273         52.6353         3.99498 
        3.95845         52.0804         3.95482 
        3.97418         51.4251          3.9152 
        3.98988         51.2171         3.87618 
        4.00554         50.6345          3.8378 
        4.02125         50.1137         3.79982 
        4.03698         49.8223          3.7623 
        4.05268         49.1406         3.72536 
        4.06839         48.8655          3.6889 
         4.0841         48.3546         3.65293 
        4.09983         47.9475         3.61739 
        4.11555         47.4618         3.58234 
        4.13124         47.0537         3.54784 
        4.14693         46.5559         3.51377 
        4.16266         46.1778         3.48007 
        4.17839         45.7526         3.44682 
        4.19408         45.2989         3.41409 
        4.20977         44.9071         3.38176 
        4.22551         44.4492         3.34978 
        4.24123          44.034         3.31824 
        4.25691         43.6083         3.28719 
        4.27259         43.3311         3.25653 
        4.28831         42.8885         3.22619 
        4.30404         42.5112         3.19622 
        4.31974          42.113         3.16668 
        4.33543         41.6843         3.13754 
        4.35116         41.3163         3.10869 
        4.36688          40.935         3.08022 
        4.38255         40.5951          3.0522 
        4.39825         40.3055         3.02448 
        4.41398         39.9124         2.99704 
         4.4297          39.558         2.96997 
        4.44541         39.1751         2.94323 
        4.46111         38.9026         2.91685 
        4.47683         38.5614         2.89077 
        4.49251         38.2576         2.86506 
        4.50819         37.8583         2.83967 
         4.5239         37.5716         2.81455 
        4.53962         37.2014          2.7897 
        4.55535         36.9883         2.76514 
        4.57106         36.4863         2.74091 
        4.58678         36.3392         2.71696 
         4.6025         35.9844         2.69329 
        4.61821         35.6636         2.66991 
        4.63391         35.3099         2.64684 
         4.6496         34.9999         2.62404 
        4.66532         34.7131         2.60148 
        4.68103         34.4549         2.57919 
        4.69673         34.1819         2.55719 
        4.71241         33.8729         2.53546 
        4.72811         33.5184         2.51395 
        4.74384         33.2736         2.49266 
        4.75955         32.9483         2.47164 
        4.77525         32.7195         2.45088 
        4.79096         32.4523         2.43034 
        4.80669         32.2232         2.41002 
         4.8224           31.93         2.38995 
        4.83809         31.6426         2.37013 
        4.85379            31.4         2.35052 
         4.8695         31.1411         2.33112 
        4.88521         30.8335         2.31195 
        4.90093         30.5884         2.29299 
        4.91663         30.2602         2.27425 
        4.93234         30.0607         2.25571 
        4.94807         29.8466         2.23736 
        4.96377         29.6435         2.21924 
        4.97943         29.3985         2.20137 
        4.99514         29.1117         2.18364 
        5.01086         28.9151          2.1661 
        5.02654         28.7052         2.14879 
        5.04227         28.4358         2.13163 
          5.058         28.1543         2.11464 
        5.07371         27.9921         2.09786 
        5.08942          27.759         2.08127 
        5.10513         27.4968         2.06485 
        5.12084         27.2846         2.04861 
        5.13656         27.1082         2.03254 
        5.15225          26.891         2.01667 
        5.16796         26.6403         2.00094 
        5.18369         26.4544         1.98536 
         5.1994         26.2217         1.96998 
        5.21509         26.0377         1.95478 
        5.23079         25.8492         1.93972 
        5.24649         25.6713         1.92482 
        5.26217         25.4193          1.9101 
        5.27788         25.2569          1.8955 
        5.29359         25.0488         1.88106 
        5.30933         24.8599         1.86674 
        5.32504         24.6545          1.8526 
        5.34073         24.4464         1.83862 
        5.35646         24.2334         1.82475 
        5.37218         24.0349         1.81103 
        5.38789         23.8761         1.79747 
        5.40357         23.7161         1.78406 
        5.41929         23.4945         1.77076 
        5.43502         23.3194         1.75759 
         5.4507         23.1378         1.74458 
        5.46639         22.9685         1.73171 
        5.48212         22.8125         1.71894 
        5.49786         22.6391         1.70628 
        5.51353         22.4527          1.6938 
        5.52921         22.2777         1.68144 
        5.54495          22.119         1.66917 
        5.56066         21.9266         1.65703 
        5.57637         21.8258         1.64502 
        5.59207         21.6187         1.63313 
        5.60778         21.4641         1.62136 
        5.62346         21.2926         1.60972 
        5.63916         21.0983         1.59818 
        5.65487         20.9894         1.58675 
         5.6706         20.8394         1.57541 
        5.68633         20.6322         1.56419 
        5.70203         20.4736         1.55309 
        5.71773         20.3784          1.5421 
        5.73344         20.2346         1.53122 
        5.74916         20.0724         1.52043 
        5.76486         19.9236         1.50975 
        5.78054         19.7651          1.4992 
        5.79626         19.6014         1.48872 
          5.812         19.4529         1.47832 
         5.8277          19.339         1.46806 
        5.84339         19.1749         1.45789 
        5.85911         19.0935          1.4478 
        5.87484         18.8761         1.43781 
        5.89053         18.8354         1.42793 
        5.90623         18.6332         1.41813 
        5.92195          18.535         1.40842 
        5.93767         18.3475          1.3988 
        5.95336         18.2236         1.38928 
        5.96905         18.1022         1.37986 
        5.98476         17.9592          1.3705 
        6.00048         17.8344         1.36124 
        6.01617         17.7139         1.35207 
        6.03185         17.6279           1.343 
        6.04756         17.4717         1.33398 
        6.06331         17.3807         1.32503 
        6.07903         17.2212         1.31618 
        6.09473         17.0742         1.30742 
        6.11044         16.9634         1.29874 
        6.12616         16.8589         1.29013 
        6.14186         16.7279         1.28161 
        6.15755         16.6158         1.27316 
        6.17326          16.494         1.26479 
        6.18898         16.3874         1.25648 
        6.20467         16.2433         1.24827 
        6.22036          16.182         1.24013 
         6.2361         16.0353         1.23204 
         6.2518         15.9029         1.22403 
        6.26748         15.8279         1.21611 
        6.28319          15.676         1.20824 
        6.29893         15.6019         1.20044 
        6.31463         15.4914         1.19271 
        6.33033         15.3925         1.18506 
        6.34604         15.2944         1.17747 
        6.36177         15.1759         1.16993 
        6.37747         15.0693         1.16248 
