# k  (h/Mpc)    Pcb(k)  (Mpc/h)^3    Pcb_linear(k) (Mpc/h)^3   ShotnoiseSubtracted = true
      0.0200456         6789.99         6907.44 
      0.0350414         5150.28          5272.1 
      0.0492313         3991.49          4017.5 
      0.0637834         3403.14         3351.72 
      0.0800726         2659.26         2617.29 
       0.096163         1915.85         1951.43 
       0.111083         1569.87         1617.31 
       0.126058         1430.82         1419.56 
       0.142273         1203.43         1165.62 
       0.158546         1001.98          940.05 
        0.17375         831.958         821.355 
       0.188953          787.37         735.888 
       0.204907         725.492         632.697 
       0.220756         614.358         540.995 
        0.23588         545.487         484.102 
         0.2514         480.684         438.669 
       0.267535         455.074         388.547 
       0.283568         412.791         343.658 
       0.299022         383.457          311.74 
       0.314451         353.924         285.401 
       0.330372          326.96         258.591 
       0.346141         295.121         234.411 
       0.361624         281.625         215.147 
       0.377134         264.688         198.602 
       0.392932         244.294         182.695 
       0.408854         234.358         168.033 
       0.424564         224.774         155.563 
       0.440253         212.373         144.617 
       0.455999         200.189         134.444 
       0.471626         184.823         125.172 
        0.48727         180.171         116.881 
       0.502856         172.755         109.454 
       0.518488         168.693         102.599 
       0.534347         160.525          96.184 
       0.550082         149.153         90.3902 
       0.565732         144.539         85.1278 
       0.581496         138.281         80.2417 
       0.597222         134.047           75.73 
       0.612804         127.834         71.6075 
       0.628434         125.012          67.791 
       0.644267          120.74         64.2054 
       0.660051         118.108          60.887 
       0.675724         114.439          57.824 
       0.691403         110.942          54.971 
       0.707174         106.699         52.2958 
       0.722871         104.839         49.8102 
        0.73838         102.695         47.5134 
       0.754018         97.9037         45.3444 
       0.769845         95.9985         43.2872 
        0.78569          93.659         41.3559 
       0.801365         90.7825         39.5613 
       0.817031         87.7528         37.8744 
       0.832809         86.6709         36.2752 
       0.848511         83.4449         34.7755 
       0.864097         81.1204         33.3709 
       0.879701          80.282         32.0426 
       0.895507         78.5502          30.771 
       0.911279         77.2331         29.5711 
        0.92691         75.1016         28.4452 
       0.942635         72.9562         27.3719 
       0.958396         72.5732         26.3517 
       0.974128         70.6893         25.3855 
       0.989692         69.0179         24.4774 
        1.00528         67.7516         23.6124 
        1.02113          66.168         22.7759 
        1.03692         64.5244          21.983 
        1.05264         64.0327         21.2316 
        1.06832         62.4886         20.5166 
        1.08405         61.6772         19.8327 
        1.09979         60.8454         19.1797 
        1.11537         58.5866         18.5625 
        1.13105         58.8951         17.9689 
        1.14679         57.6852          17.399 
        1.16256         56.6042         16.8528 
        1.17828         55.1182         16.3318 
        1.19395         54.6701         15.8347 
         1.2097         53.4862         15.3557 
        1.22537          53.265         14.8989 
          1.241         51.8987         14.4621 
        1.25666         50.8555         14.0417 
        1.27241         50.4973         13.6361 
        1.28819          49.238         13.2458 
        1.30392         48.4786         12.8719 
        1.31957          48.142         12.5142 
        1.33529         47.4889         12.1687 
        1.35108         46.9392         11.8349 
        1.36674         46.1094         11.5161 
         1.3824          44.995         11.2093 
        1.39811         44.8095         10.9126 
        1.41389         44.0454         10.6256 
        1.42964         43.3493         10.3494 
        1.44531         42.8627         10.0843 
        1.46101         41.8373         9.82798 
        1.47667         41.7765         9.58133 
        1.49229         41.3464         9.34381 
        1.50793         40.4775         9.11407 
        1.52367         40.0145         8.89058 
        1.53953         39.6889         8.67309 
        1.55526         38.9815         8.46461 
        1.57092         38.5969         8.26385 
        1.58662         38.0702         8.06913 
        1.60235         37.6361          7.8803 
        1.61809         36.9877         7.69742 
        1.63369         36.4726         7.52197 
        1.64941         35.9144         7.35073 
        1.66519         35.5523         7.18421 
        1.68085         35.2275         7.02402 
        1.69652          34.751         6.86868 
        1.71228         34.5054         6.71715 
        1.72806         33.9104         6.57007 
        1.74368          33.455         6.42887 
        1.75933         33.0618         6.29153 
        1.77505         32.8261         6.15756 
        1.79081         32.2606         6.02726 
         1.8065         31.9063         5.90128 
        1.82218          31.604         5.77901 
        1.83797         31.1789         5.65936 
        1.85367         30.7441         5.54377 
        1.86928         30.4999         5.43209 
        1.88497         30.0047         5.32288 
        1.90073         29.9161         5.21626 
        1.91647         29.4287         5.11266 
        1.93218         29.1232         5.01209 
        1.94787         28.8228         4.91437 
        1.96363         28.5842         4.81887 
        1.97935         28.2237         4.72609 
        1.99499         27.8428         4.63629 
        2.01064         27.6192         4.54868 
         2.0264         27.1575         4.46279 
        2.04216         26.8406         4.37915 
        2.05781          26.641         4.29818 
        2.07353         26.3462         4.21897 
        2.08928         26.2689         4.14158 
        2.10499          25.935         4.06634 
        2.12065         25.4706         3.99319 
        2.13633         25.3334         3.92177 
        2.15211         24.8418         3.85164 
        2.16785         24.6904         3.78342 
        2.18349         24.5371         3.71727 
        2.19916         24.2357         3.65257 
        2.21489         23.8752         3.58919 
        2.23063         23.7419         3.52726 
         2.2463         23.5578         3.46708 
        2.26194         23.2967         3.40845 
        2.27765         22.9863         3.35087 
        2.29341         22.6948         3.29447 
        2.30914          22.604         3.23948 
        2.32486         22.3217         3.18578 
        2.34061         22.0805          3.1332 
        2.35635         21.7831         3.08186 
        2.37203         21.6345         3.03184 
        2.38768         21.4242         2.98303 
        2.40339         21.2788         2.93512 
        2.41914         21.0215         2.88815 
        2.43483         20.7422         2.84237 
         2.4505         20.5398         2.79766 
        2.46622         20.3299         2.75375 
        2.48195         20.1376         2.71078 
        2.49759         19.9054         2.66896 
        2.51328         19.7256         2.62791 
        2.52906         19.5817         2.58746 
        2.54479         19.3169         2.54801 
        2.56049         19.0946         2.50946 
        2.57618         18.9464         2.47174 
        2.59189         18.8115         2.43474 
        2.60758         18.6399         2.39855 
        2.62325         18.4395         2.36314 
        2.63898         18.3104         2.32832 
        2.65468         18.1186         2.29427 
        2.67044         17.8971         2.26076 
        2.68618         17.7602         2.22799 
        2.70184         17.6041           2.196 
        2.71755         17.3865         2.16456 
        2.73329         17.2478         2.13368 
        2.74897         16.9989         2.10351 
        2.76462         17.0629         2.07398 
        2.78034         16.7909          2.0449 
        2.79607         16.6198         2.01635 
        2.81179         16.5106         1.98837 
        2.82749         16.3505         1.96095 
        2.84321         16.1933         1.93402 
        2.85893         16.0313          1.9076 
        2.87462         15.8511         1.88172 
        2.89033         15.7138         1.85629 
        2.90605         15.6122         1.83131 
        2.92176         15.3879          1.8068 
        2.93747         15.3087         1.78276 
        2.95318         15.1347         1.75914 
        2.96891         14.9799         1.73594 
        2.98456         14.8664         1.71326 
        3.00023         14.7553         1.69095 
        3.01596         14.6175         1.66897 
        3.03164         14.4934         1.64744 
        3.04738         14.3061         1.62623 
         3.0631         14.1979         1.60539 
        3.07883         14.0541         1.58492 
        3.09456         13.9446         1.56481 
        3.11026         13.8163         1.54508 
        3.12596         13.6628         1.52569 
        3.14163         13.6043         1.50668 
        3.15734         13.4234         1.48794 
        3.17308         13.3139         1.46948 
        3.18879         13.2129         1.45138 
        3.20447         13.0762         1.43361 
         3.2202         12.9639         1.41609 
         3.2359         12.8772         1.39888 
        3.25157         12.7765         1.38201 
        3.26729         12.6044         1.36536 
        3.28304         12.5247         1.34895 
        3.29877         12.4015         1.33283 
        3.31446         12.2764         1.31701 
        3.33014         12.1452         1.30146 
        3.34585         12.0621         1.28613 
        3.36158         11.9811         1.27103 
        3.37727         11.8522         1.25622 
        3.39294         11.7746         1.24165 
        3.40867         11.6291         1.22727 
        3.42439         11.5528         1.21312 
        3.44008         11.4737         1.19922 
        3.45578         11.3771         1.18553 
        3.47153         11.2763         1.17202 
        3.48724         11.1774         1.15874 
        3.50292         11.0363          1.1457 
        3.51859         10.9862         1.13287 
        3.53431         10.8903         1.12019 
        3.55007         10.8146         1.10767 
        3.56577         10.7128          1.0954 
        3.58146         10.6341         1.08332 
        3.59719         10.5028         1.07139 
        3.61292         10.4379         1.05964 
        3.62859          10.315         1.04811 
        3.64429         10.2489         1.03673 
        3.66003         10.1557         1.02549 
        3.67578         10.0766         1.01441 
        3.69146         10.0067         1.00355 
        3.70712         9.90666        0.992855 
        3.72284         9.82012         0.98228 
        3.73853         9.74407        0.971877 
        3.75422          9.6901         0.96162 
        3.76993         9.58561        0.951502 
        3.78564         9.48242        0.941534 
        3.80137         9.43138        0.931691 
        3.81707         9.32461         0.92201 
        3.83279         9.26676        0.912458 
        3.84853         9.18438        0.903025 
        3.86424         9.10477        0.893744 
        3.87992         9.02006        0.884607 
        3.89561         8.97121        0.875597 
        3.91134         8.91282        0.866693 
        3.92704         8.81542        0.857923 
        3.94273         8.76192        0.849283 
        3.95845         8.68514        0.840746 
        3.97418         8.59537        0.832324 
        3.98988         8.53581        0.824028 
        4.00554           8.463        0.815868 
        4.02125         8.40327        0.807795 
        4.03698          8.3296        0.799818 
        4.05268         8.27755        0.791966 
        4.06839         8.17699        0.784214 
         4.0841         8.13974        0.776568 
        4.09983         8.06966        0.769012 
        4.11555         7.99923         0.76156 
        4.13124         7.93396        0.754227 
        4.14693         7.85535        0.746984 
        4.16266         7.81359        0.739819 
        4.17839         7.74801        0.732752 
        4.19408         7.68956        0.725793 
        4.20977         7.62409        0.718921 
        4.22551         7.56938        0.712121 
        4.24123         7.50898        0.705416 
        4.25691         7.43477        0.698816 
        4.27259         7.38368        0.692297 
        4.28831          7.3218        0.685849 
        4.30404         7.26693        0.679476 
        4.31974          7.2009        0.673198 
        4.33543         7.13737        0.667002 
        4.35116         7.09267        0.660869 
        4.36688         7.04324        0.654816 
        4.38255         6.97542         0.64886 
        4.39825         6.90596        0.642966 
        4.41398         6.88839        0.637133 
         4.4297         6.81774        0.631378 
        4.44541         6.76547        0.625695 
        4.46111         6.71193        0.620086 
        4.47683         6.65481        0.614542 
        4.49251         6.62107        0.609077 
        4.50819         6.57098        0.603679 
         4.5239         6.51741        0.598339 
        4.53962         6.46273        0.593056 
        4.55535         6.41287        0.587834 
        4.57106         6.35886        0.582683 
        4.58678         6.30859        0.577592 
         4.6025         6.26589        0.572561 
        4.61821         6.20762         0.56759 
        4.63391         6.17146        0.562684 
         4.6496         6.11575        0.557839 
        4.66532         6.09108        0.553042 
        4.68103         6.00971        0.548304 
        4.69673         5.98144        0.543626 
        4.71241         5.94348        0.539007 
        4.72811         5.87874        0.534434 
        4.74384         5.84164        0.529908 
        4.75955         5.78609        0.525441 
        4.77525         5.77207        0.521028 
        4.79096         5.71217         0.51666 
        4.80669         5.68209        0.512339 
         4.8224         5.63975        0.508073 
        4.83809         5.58326         0.50386 
        4.85379         5.53671        0.499692 
         4.8695         5.50607        0.495568 
        4.88521         5.46033        0.491491 
        4.90093         5.41666         0.48746 
        4.91663         5.38623        0.483478 
        4.93234         5.34353        0.479535 
        4.94807         5.30629        0.475634 
        4.96377         5.26983        0.471784 
        4.97943         5.22597        0.467984 
        4.99514         5.18836        0.464216 
        5.01086         5.14931        0.460486 
        5.02654         5.11443        0.456807 
        5.04227         5.07358        0.453157 
          5.058         5.04967        0.449545 
        5.07371         5.00553         0.44598 
        5.08942         4.96613        0.442452 
        5.10513         4.93568        0.438962 
        5.12084         4.91352        0.435508 
        5.13656         4.87647        0.432092 
        5.15225         4.83955        0.428718 
        5.16796         4.80498        0.425375 
        5.18369         4.76511        0.422064 
         5.1994         4.73681        0.418794 
        5.21509         4.70399        0.415562 
        5.23079         4.67055        0.412359 
        5.24649         4.63408        0.409193 
        5.26217          4.6061        0.406063 
        5.27788         4.56571         0.40296 
        5.29359         4.54322         0.39989 
        5.30933           4.516        0.396846 
        5.32504         4.48258         0.39384 
        5.34073         4.44324        0.390868 
        5.35646         4.40898         0.38792 
        5.37218         4.38789        0.385002 
        5.38789         4.35786        0.382119 
        5.40357         4.31463        0.379269 
        5.41929         4.29808        0.376441 
        5.43502         4.27377        0.373641 
         5.4507         4.23565        0.370877 
        5.46639         4.20153         0.36814 
        5.48212         4.17344        0.365425 
        5.49786         4.14741        0.362733 
        5.51353         4.12151        0.360082 
        5.52921         4.09335        0.357454 
        5.54495         4.06407        0.354845 
        5.56066         4.04027        0.352265 
        5.57637         4.01403         0.34971 
        5.59207         3.98949        0.347184 
        5.60778         3.96194        0.344681 
        5.62346         3.93395        0.342206 
        5.63916         3.90762        0.339753 
        5.65487          3.8733        0.337323 
         5.6706         3.84983        0.334913 
        5.68633          3.8322        0.332526 
        5.70203         3.80584        0.330168 
        5.71773         3.78735        0.327832 
        5.73344         3.76111        0.325518 
        5.74916         3.73076        0.323224 
        5.76486         3.70496        0.320955 
        5.78054         3.68223        0.318711 
        5.79626          3.6579        0.316483 
          5.812         3.63649        0.314273 
         5.8277         3.61736        0.312091 
        5.84339         3.59132         0.30993 
        5.85911          3.5702        0.307784 
        5.87484         3.54618         0.30566 
        5.89053         3.52953        0.303559 
        5.90623         3.49815        0.301478 
        5.92195         3.47664        0.299412 
        5.93767          3.4627        0.297366 
        5.95336         3.43819        0.295343 
        5.96905         3.40463         0.29334 
        5.98476         3.38949        0.291352 
        6.00048         3.36812        0.289382 
        6.01617         3.35501        0.287433 
        6.03185         3.32704        0.285504 
        6.04756         3.31956        0.283588 
        6.06331          3.2846        0.281686 
        6.07903         3.26591        0.279805 
        6.09473          3.2502        0.277942 
        6.11044         3.22421        0.276095 
        6.12616         3.21472        0.274265 
        6.14186         3.18933        0.272454 
        6.15755         3.17151        0.270658 
        6.17326         3.15443        0.268878 
        6.18898         3.13019        0.267112 
        6.20467         3.11087        0.265366 
        6.22036         3.10092        0.263635 
         6.2361         3.07398        0.261915 
         6.2518         3.06145        0.260213 
        6.26748         3.03995         0.25853 
        6.28319         3.02347        0.256858 
        6.29893         3.00071        0.255198 
        6.31463         2.98546        0.253556 
        6.33033         2.96549        0.251929 
        6.34604         2.94393        0.250314 
        6.36177         2.92998        0.248713 
        6.37747         2.91541        0.247128 
