# k  (h/Mpc)    Pcb(k)  (Mpc/h)^3    Pcb_linear(k) (Mpc/h)^3   ShotnoiseSubtracted = true
      0.0200456         28503.4         29295.7 
      0.0350414         21049.9         22359.9 
      0.0492313         16412.4           17039 
      0.0637834         14343.3         14215.3 
      0.0800726         11154.7         11100.4 
       0.096163          7857.7         8276.35 
       0.111083         6539.98         6859.32 
       0.126058          5971.2         6020.59 
       0.142273         5098.12         4943.61 
       0.158546         4637.23         3986.92 
        0.17375          3785.5         3483.51 
       0.188953         3704.74         3121.03 
       0.204907         3461.99         2683.38 
       0.220756         3037.16         2294.46 
        0.23588         2754.96         2053.16 
         0.2514         2430.59         1860.47 
       0.267535         2440.83          1647.9 
       0.283568         2211.84         1457.51 
       0.299022         2115.62         1322.14 
       0.314451         2009.27         1210.44 
       0.330372         1830.73         1096.73 
       0.346141          1819.8         994.181 
       0.361624         1749.03         912.477 
       0.377134         1640.11         842.307 
       0.392932         1567.42         774.843 
       0.408854         1541.06         712.657 
       0.424564         1416.51         659.771 
       0.440253         1385.75         613.346 
       0.455999         1373.97         570.202 
       0.471626         1314.82         530.878 
        0.48727         1268.59         495.713 
       0.502856         1207.86         464.212 
       0.518488         1222.01         435.142 
       0.534347         1138.64         407.934 
       0.550082         1129.18         383.361 
       0.565732         1105.26         361.042 
       0.581496         1060.61          340.32 
       0.597222         1026.75         321.184 
       0.612804         1013.02           303.7 
       0.628434         982.509         287.514 
       0.644267         957.632         272.306 
       0.660051         939.344         258.233 
       0.675724         926.921         245.242 
       0.691403         902.153         233.142 
       0.707174         867.689         221.796 
       0.722871         842.871         211.254 
        0.73838         831.574         201.513 
       0.754018         814.611         192.314 
       0.769845         799.573         183.589 
        0.78569         787.863         175.398 
       0.801365         762.245         167.787 
       0.817031         750.233         160.632 
       0.832809         735.099          153.85 
       0.848511         720.868         147.489 
       0.864097         696.437         141.532 
       0.879701         682.778         135.898 
       0.895507         678.257         130.505 
       0.911279         668.223         125.416 
        0.92691          649.48         120.641 
       0.942635         630.459         116.089 
       0.958396         622.302         111.762 
       0.974128         611.218         107.664 
       0.989692          601.15         103.813 
        1.00528         580.325         100.145 
        1.02113         578.773         96.5965 
        1.03692         565.544         93.2339 
        1.05264         554.661         90.0472 
        1.06832         542.668         87.0147 
        1.08405         531.274         84.1142 
        1.09979         522.155         81.3444 
        1.11537         513.646         78.7271 
        1.13105         505.587         76.2095 
        1.14679         493.625         73.7925 
        1.16256         484.715         71.4757 
        1.17828         478.122         69.2662 
        1.19395         468.617         67.1577 
         1.2097         455.442         65.1264 
        1.22537         448.711         63.1889 
          1.241         439.773         61.3363 
        1.25666         438.086         59.5533 
        1.27241         426.409          57.833 
        1.28819         414.283         56.1777 
        1.30392         411.381         54.5921 
        1.31957         400.075         53.0748 
        1.33529         395.816         51.6097 
        1.35108         387.302         50.1941 
        1.36674         380.026         48.8418 
         1.3824         375.418         47.5405 
        1.39811         365.751         46.2824 
        1.41389         362.058          45.065 
        1.42964         357.528         43.8935 
        1.44531         352.598         42.7694 
        1.46101         344.951         41.6822 
        1.47667         336.293         40.6361 
        1.49229          333.74         39.6288 
        1.50793         323.701         38.6544 
        1.52367         322.252         37.7066 
        1.53953         312.361         36.7841 
        1.55526         311.748         35.8999 
        1.57092         307.774         35.0485 
        1.58662         300.875         34.2226 
        1.60235         296.747         33.4218 
        1.61809         292.127         32.6461 
        1.63369         285.655          31.902 
        1.64941          280.05         31.1758 
        1.66519         276.828         30.4695 
        1.68085         273.294         29.7901 
        1.69652         270.006         29.1313 
        1.71228         263.245         28.4886 
        1.72806         260.291         27.8648 
        1.74368         254.758          27.266 
        1.75933         251.804         26.6835 
        1.77505         247.285         26.1153 
        1.79081         243.659         25.5627 
         1.8065         239.118         25.0284 
        1.82218         236.631         24.5098 
        1.83797         233.158         24.0024 
        1.85367         228.486         23.5121 
        1.86928         224.649         23.0385 
        1.88497         222.111         22.5753 
        1.90073         218.088         22.1231 
        1.91647         214.916         21.6837 
        1.93218         211.426         21.2572 
        1.94787           208.4         20.8427 
        1.96363          205.73         20.4377 
        1.97935         201.563         20.0442 
        1.99499         198.735         19.6633 
        2.01064         196.083         19.2918 
         2.0264         192.891         18.9275 
        2.04216         191.155         18.5728 
        2.05781          188.49         18.2294 
        2.07353         184.808         17.8934 
        2.08928         182.106         17.5652 
        2.10499         179.371         17.2461 
        2.12065         176.687         16.9358 
        2.13633         174.744         16.6329 
        2.15211         172.277         16.3355 
        2.16785         170.363         16.0462 
        2.18349         167.774         15.7656 
        2.19916         164.358         15.4912 
        2.21489         163.895         15.2224 
        2.23063         160.696         14.9598 
         2.2463         158.125         14.7045 
        2.26194         155.646         14.4558 
        2.27765         153.012         14.2116 
        2.29341         151.421         13.9724 
        2.30914         149.134         13.7392 
        2.32486         147.993         13.5115 
        2.34061         144.666         13.2885 
        2.35635         144.402         13.0707 
        2.37203         141.117         12.8586 
        2.38768          138.97         12.6516 
        2.40339         138.046         12.4484 
        2.41914         135.896         12.2491 
        2.43483         134.202          12.055 
         2.4505         132.229         11.8654 
        2.46622         131.064         11.6792 
        2.48195         128.877         11.4969 
        2.49759          127.57         11.3195 
        2.51328         125.467         11.1454 
        2.52906         124.175         10.9739 
        2.54479         122.926         10.8066 
        2.56049         121.122         10.6431 
        2.57618         119.649         10.4831 
        2.59189         118.008         10.3262 
        2.60758         116.132         10.1727 
        2.62325         114.895         10.0225 
        2.63898         113.254         9.87481 
        2.65468         112.278         9.73041 
        2.67044         111.457         9.58828 
        2.68618         109.638          9.4493 
        2.70184          108.14         9.31363 
        2.71755         106.852         9.18028 
        2.73329         104.986         9.04933 
        2.74897         104.317         8.92136 
        2.76462          102.96         8.79614 
        2.78034         101.752          8.6728 
        2.79607         100.527         8.55169 
        2.81179         99.4179         8.43303 
        2.82749         98.0579         8.31675 
        2.84321         96.4378         8.20252 
        2.85893         95.4244         8.09047 
        2.87462         94.4202          7.9807 
        2.89033          93.071         7.87287 
        2.90605         92.5249         7.76693 
        2.92176         90.8419         7.66298 
        2.93747         90.1881         7.56099 
        2.95318          89.044         7.46083 
        2.96891         88.0435         7.36243 
        2.98456         86.8456         7.26624 
        3.00023         86.2635         7.17163 
        3.01596         85.0195          7.0784 
        3.03164         84.2084         6.98709 
        3.04738         83.0397         6.89712 
         3.0631         82.0999         6.80876 
        3.07883         81.2966         6.72195 
        3.09456         80.1377         6.63665 
        3.11026         79.7591         6.55297 
        3.12596         78.3838         6.47073 
        3.14163         77.4971         6.39009 
        3.15734         76.9982         6.31063 
        3.17308         75.9516         6.23233 
        3.18879         74.9915         6.15557 
        3.20447         74.2357         6.08021 
         3.2202         73.4235         6.00588 
         3.2359         72.5494         5.93292 
        3.25157         71.8469         5.86134 
        3.26729         71.0505         5.79072 
        3.28304         70.2869         5.72113 
        3.29877         69.6754         5.65276 
        3.31446         68.6225         5.58566 
        3.33014         68.3714         5.51971 
        3.34585         67.2427         5.45471 
        3.36158         66.5778         5.39067 
        3.37727         65.7802         5.32784 
        3.39294         65.0361         5.26608 
        3.40867         64.3701         5.20507 
        3.42439         63.7335         5.14506 
        3.44008          62.887         5.08611 
        3.45578         62.3803         5.02803 
        3.47153         61.8309         4.97074 
        3.48724         61.0017         4.91443 
        3.50292         60.5272         4.85912 
        3.51859         59.8065         4.80469 
        3.53431         59.2628         4.75092 
        3.55007         58.6584         4.69785 
        3.56577          58.114         4.64579 
        3.58146         57.7399         4.59453 
        3.59719         56.8619         4.54394 
        3.61292         56.2464         4.49412 
        3.62859         55.7478         4.44523 
        3.64429         55.0836         4.39697 
        3.66003         54.4974         4.34928 
        3.67578         53.9523         4.30231 
        3.69146         53.5477         4.25621 
        3.70712          52.978         4.21087 
        3.72284         52.4747         4.16602 
        3.73853          51.957          4.1219 
        3.75422         51.4328          4.0784 
        3.76993         50.9611         4.03549 
        3.78564         50.3101         3.99321 
        3.80137          49.894         3.95147 
        3.81707         49.5067         3.91041 
        3.83279         48.8136          3.8699 
        3.84853         48.4739         3.82989 
        3.86424         47.9823         3.79053 
        3.87992         47.5692         3.75178 
        3.89561         47.1503         3.71356 
        3.91134         46.5242          3.6758 
        3.92704         46.2121         3.63861 
        3.94273         45.6879         3.60196 
        3.95845         45.3373         3.56575 
        3.97418         44.7298         3.53003 
        3.98988         44.3918         3.49485 
        4.00554         44.1193         3.46024 
        4.02125         43.5767           3.426 
        4.03698         43.2343         3.39217 
        4.05268         42.7936         3.35887 
        4.06839         42.4953         3.32599 
         4.0841         42.0072         3.29356 
        4.09983         41.6165         3.26152 
        4.11555         41.1798         3.22991 
        4.13124         40.8318         3.19881 
        4.14693          40.509         3.16809 
        4.16266         40.0846          3.1377 
        4.17839         39.7646         3.10773 
        4.19408         39.3365         3.07822 
        4.20977         39.0327         3.04907 
        4.22551         38.6649         3.02023 
        4.24123         38.2631          2.9918 
        4.25691         37.9124          2.9638 
        4.27259         37.5557         2.93616 
        4.28831         37.3325         2.90881 
        4.30404           36.88         2.88178 
        4.31974         36.6664         2.85515 
        4.33543         36.2153         2.82888 
        4.35116         35.9055         2.80287 
        4.36688         35.6296         2.77719 
        4.38255         35.2829         2.75193 
        4.39825          34.973         2.72693 
        4.41398         34.6383         2.70219 
         4.4297         34.3913         2.67779 
        4.44541           34.05         2.65369 
        4.46111          33.743          2.6299 
        4.47683         33.3963         2.60638 
        4.49251         33.2721          2.5832 
        4.50819         32.8432         2.56031 
         4.5239         32.5629         2.53766 
        4.53962          32.338         2.51526 
        4.55535         32.0675         2.49311 
        4.57106         31.9144         2.47126 
        4.58678         31.5714         2.44967 
         4.6025         31.2156         2.42833 
        4.61821         30.8998         2.40725 
        4.63391         30.7593         2.38645 
         4.6496         30.3102         2.36589 
        4.66532         30.1476         2.34555 
        4.68103         29.9727         2.32546 
        4.69673         29.6675         2.30562 
        4.71241          29.427         2.28603 
        4.72811         29.1623         2.26663 
        4.74384         28.9215         2.24743 
        4.75955         28.7127         2.22849 
        4.77525         28.4452         2.20977 
        4.79096         28.2381         2.19125 
        4.80669         28.0056         2.17292 
         4.8224         27.7364         2.15483 
        4.83809         27.5441         2.13696 
        4.85379         27.2748         2.11928 
         4.8695         27.0822         2.10179 
        4.88521         26.8204          2.0845 
        4.90093         26.5447         2.06741 
        4.91663         26.4326         2.05052 
        4.93234         26.1394          2.0338 
        4.94807         25.9257         2.01725 
        4.96377         25.6798         2.00092 
        4.97943         25.5151          1.9848 
        4.99514         25.2792         1.96882 
        5.01086         25.1479           1.953 
        5.02654         24.9186          1.9374 
        5.04227         24.7588         1.92192 
          5.058         24.4845          1.9066 
        5.07371         24.3066         1.89148 
        5.08942         24.1236         1.87652 
        5.10513          23.964         1.86172 
        5.12084         23.7354         1.84707 
        5.13656         23.5927         1.83258 
        5.15225         23.3956         1.81827 
        5.16796         23.2004         1.80409 
        5.18369         23.0081         1.79005 
         5.1994         22.8497         1.77618 
        5.21509         22.6571         1.76247 
        5.23079         22.4595         1.74889 
        5.24649          22.257         1.73546 
        5.26217          22.113         1.72218 
        5.27788         21.9362         1.70903 
        5.29359         21.7492           1.696 
        5.30933         21.6275          1.6831 
        5.32504         21.4212         1.67035 
        5.34073         21.2634         1.65774 
        5.35646         21.0891         1.64524 
        5.37218         20.8917         1.63286 
        5.38789         20.7806         1.62064 
        5.40357         20.5735         1.60855 
        5.41929         20.4669         1.59655 
        5.43502         20.2547         1.58468 
         5.4507         20.1462         1.57296 
        5.46639         19.9779         1.56135 
        5.48212         19.8339         1.54983 
        5.49786         19.6639         1.53842 
        5.51353         19.5334         1.52717 
        5.52921         19.3518         1.51603 
        5.54495         19.2374         1.50496 
        5.56066         19.1066         1.49402 
        5.57637         18.9424         1.48318 
        5.59207         18.8234         1.47247 
        5.60778         18.6638         1.46185 
        5.62346         18.4956         1.45136 
        5.63916         18.4067         1.44095 
        5.65487         18.2495         1.43065 
         5.6706         18.0709         1.42043 
        5.68633         17.9519          1.4103 
        5.70203         17.8077          1.4003 
        5.71773          17.714          1.3904 
        5.73344         17.5748         1.38058 
        5.74916         17.4316         1.37085 
        5.76486         17.3333         1.36123 
        5.78054          17.193         1.35171 
        5.79626         17.0572         1.34226 
          5.812         16.9414         1.33289 
         5.8277         16.7717         1.32363 
        5.84339         16.7061         1.31447 
        5.85911         16.5632         1.30537 
        5.87484          16.467         1.29636 
        5.89053         16.3257         1.28745 
        5.90623         16.2053         1.27862 
        5.92195         16.0929         1.26986 
        5.93767         15.9825         1.26118 
        5.95336         15.8645          1.2526 
        5.96905         15.7576         1.24411 
        5.98476         15.6424         1.23568 
        6.00048         15.5277         1.22732 
        6.01617         15.4112         1.21906 
        6.03185         15.3051         1.21087 
        6.04756         15.1848         1.20275 
        6.06331         15.0826         1.19468 
        6.07903         14.9636          1.1867 
        6.09473         14.8893          1.1788 
        6.11044         14.7208         1.17097 
        6.12616         14.6498         1.16321 
        6.14186         14.5513         1.15552 
        6.15755         14.4466         1.14791 
        6.17326         14.3228         1.14036 
        6.18898         14.2581         1.13287 
        6.20467         14.1415         1.12547 
        6.22036         14.0303         1.11812 
         6.2361         13.9334         1.11083 
         6.2518         13.8295         1.10361 
        6.26748         13.7454         1.09647 
        6.28319         13.6328         1.08938 
        6.29893         13.5629         1.08234 
        6.31463         13.4367         1.07538 
        6.33033         13.3599         1.06847 
        6.34604         13.2788         1.06163 
        6.36177         13.1719         1.05484 
        6.37747         13.1193         1.04812 
