# k  (h/Mpc)    Pcb(k)  (Mpc/h)^3    Pcb_linear(k) (Mpc/h)^3   ShotnoiseSubtracted = true
      0.0200456         1723.15         1744.42 
      0.0350414         1348.43         1331.42 
      0.0492313         1015.44         1014.59 
      0.0637834         835.147          846.45 
      0.0800726         651.823         660.974 
       0.096163         501.146         492.817 
       0.111083         417.667         408.439 
       0.126058         355.802         358.497 
       0.142273         293.322         294.368 
       0.158546         240.482         237.402 
        0.17375         212.199         207.426 
       0.188953         189.387         185.842 
       0.204907          158.75         159.782 
       0.220756         140.145         136.624 
        0.23588         125.206         122.256 
         0.2514         113.329         110.782 
       0.267535         102.872         98.1244 
       0.283568         90.5634         86.7879 
       0.299022          83.329         78.7273 
       0.314451         78.4353         72.0757 
       0.330372          69.778         65.3049 
       0.346141         63.6986         59.1987 
       0.361624         58.6876         54.3336 
       0.377134         53.8119         50.1553 
       0.392932         51.7835         46.1382 
       0.408854         47.0327         42.4353 
       0.424564         44.9463         39.2862 
       0.440253          41.083         36.5218 
       0.455999          37.564         33.9528 
       0.471626         35.4122         31.6112 
        0.48727         34.3434         29.5173 
       0.502856         32.1079         27.6416 
       0.518488         29.8783         25.9106 
       0.534347          28.073         24.2905 
       0.550082         26.9679         22.8273 
       0.565732         25.8801         21.4983 
       0.581496           24.36         20.2644 
       0.597222           22.96          19.125 
       0.612804         21.8143         18.0839 
       0.628434         21.3019         17.1201 
       0.644267          20.184         16.2145 
       0.660051         19.1367         15.3765 
       0.675724         18.1879          14.603 
       0.691403         17.7317         13.8825 
       0.707174         16.9633         13.2069 
       0.722871         16.4379         12.5792 
        0.73838         15.4887         11.9991 
       0.754018          14.756         11.4513 
       0.769845          14.248         10.9318 
        0.78569         13.8414         10.4441 
       0.801365         13.2647         9.99088 
       0.817031         12.8288         9.56488 
       0.832809          12.323           9.161 
       0.848511         11.9684         8.78226 
       0.864097         11.5404         8.42755 
       0.879701         11.3096          8.0921 
       0.895507         10.8811         7.77096 
       0.911279          10.434         7.46794 
        0.92691         10.1777         7.18361 
       0.942635         9.87922         6.91254 
       0.958396         9.52666          6.6549 
       0.974128         9.30793          6.4109 
       0.989692         8.88029         6.18156 
        1.00528         8.79189         5.96313 
        1.02113         8.49691         5.75186 
        1.03692         8.28356         5.55163 
        1.05264         8.03867         5.36188 
        1.06832         7.84509         5.18131 
        1.08405         7.64988         5.00859 
        1.09979         7.45275         4.84367 
        1.11537         7.26285         4.68782 
        1.13105         7.08666         4.53791 
        1.14679         6.92487         4.39398 
        1.16256         6.73207         4.25604 
        1.17828         6.61647         4.12447 
        1.19395         6.42666         3.99892 
         1.2097         6.23168         3.87796 
        1.22537         6.08629          3.7626 
          1.241         5.94724         3.65228 
        1.25666         5.91129         3.54611 
        1.27241         5.77562         3.44367 
        1.28819         5.54813         3.34511 
        1.30392         5.45116          3.2507 
        1.31957          5.3641         3.16035 
        1.33529         5.24014         3.07311 
        1.35108         5.12127         2.98882 
        1.36674         5.00223         2.90829 
         1.3824          4.9484         2.83081 
        1.39811         4.82927         2.75589 
        1.41389         4.70809          2.6834 
        1.42964         4.64842         2.61365 
        1.44531         4.55544         2.54671 
        1.46101         4.48669         2.48198 
        1.47667          4.3856         2.41969 
        1.49229         4.26732          2.3597 
        1.50793         4.18917         2.30168 
        1.52367         4.11709         2.24524 
        1.53953         4.02983         2.19032 
        1.55526         4.03048         2.13767 
        1.57092         3.91835         2.08697 
        1.58662         3.87136         2.03779 
        1.60235         3.78046          1.9901 
        1.61809         3.72163         1.94392 
        1.63369         3.65876         1.89961 
        1.64941         3.59818         1.85637 
        1.66519         3.54921         1.81431 
        1.68085         3.47998         1.77386 
        1.69652          3.4297         1.73463 
        1.71228         3.37747         1.69636 
        1.72806         3.32714         1.65922 
        1.74368         3.27845         1.62356 
        1.75933          3.2283         1.58887 
        1.77505         3.16772         1.55504 
        1.79081         3.13247         1.52213 
         1.8065         3.08379         1.49032 
        1.82218         3.02769         1.45944 
        1.83797         2.97577         1.42923 
        1.85367          2.9371         1.40003 
        1.86928         2.90915         1.37183 
        1.88497         2.84181         1.34425 
        1.90073         2.82056         1.31732 
        1.91647          2.7766         1.29116 
        1.93218         2.73953         1.26576 
        1.94787         2.70221         1.24108 
        1.96363         2.66834         1.21696 
        1.97935         2.62598         1.19354 
        1.99499         2.59384         1.17086 
        2.01064         2.56579         1.14873 
         2.0264         2.51848         1.12704 
        2.04216         2.49194         1.10592 
        2.05781         2.45202         1.08547 
        2.07353         2.44076         1.06547 
        2.08928         2.39812         1.04592 
        2.10499         2.36075         1.02692 
        2.12065         2.34972         1.00845 
        2.13633         2.31067        0.990411 
        2.15211         2.27707          0.9727 
        2.16785         2.25212        0.955471 
        2.18349         2.22124        0.938766 
        2.19916           2.207        0.922426 
        2.21489         2.18063        0.906419 
        2.23063         2.13875        0.890781 
         2.2463         2.10847        0.875582 
        2.26194         2.09681        0.860775 
        2.27765         2.05283        0.846234 
        2.29341          2.0403        0.831991 
        2.30914          2.0108        0.818104 
        2.32486         2.00417        0.804542 
        2.34061         1.98045        0.791264 
        2.35635         1.95708        0.778297 
        2.37203          1.9361        0.765665 
        2.38768         1.91394        0.753339 
        2.40339         1.89318         0.74124 
        2.41914         1.87105        0.729378 
        2.43483         1.85116        0.717817 
         2.4505         1.82901        0.706525 
        2.46622         1.80469        0.695437 
        2.48195         1.79189        0.684586 
        2.49759         1.76914        0.674024 
        2.51328         1.75536        0.663657 
        2.52906         1.74153        0.653442 
        2.54479         1.71561         0.64348 
        2.56049         1.70108        0.633744 
        2.57618         1.68282        0.624218 
        2.59189         1.67266        0.614873 
        2.60758         1.64922        0.605734 
        2.62325         1.63025        0.596791 
        2.63898         1.61397        0.587998 
        2.65468         1.59185        0.579399 
        2.67044         1.59029        0.570936 
        2.68618         1.57218         0.56266 
        2.70184          1.5528        0.554582 
        2.71755         1.54579        0.546641 
        2.73329         1.52163        0.538844 
        2.74897          1.5105        0.531224 
        2.76462         1.49549        0.523767 
        2.78034         1.49292        0.516423 
        2.79607         1.47001        0.509212 
        2.81179          1.4556        0.502146 
        2.82749         1.44194        0.495222 
        2.84321         1.43283        0.488421 
        2.85893         1.41536        0.481749 
        2.87462         1.40711        0.475212 
        2.89033         1.39137        0.468791 
        2.90605         1.38396        0.462483 
        2.92176         1.37167        0.456294 
        2.93747          1.3594        0.450221 
        2.95318         1.34357        0.444256 
        2.96891         1.34048        0.438397 
        2.98456         1.32327         0.43267 
        3.00023         1.31024        0.427036 
        3.01596         1.29681        0.421485 
        3.03164         1.28971        0.416048 
        3.04738         1.28034         0.41069 
         3.0631         1.26615        0.405429 
        3.07883         1.25866        0.400259 
        3.09456         1.24343        0.395181 
        3.11026         1.23904        0.390198 
        3.12596         1.22468        0.385301 
        3.14163         1.22096        0.380499 
        3.15734         1.20791        0.375768 
        3.17308         1.19954        0.371105 
        3.18879         1.19132        0.366535 
        3.20447         1.17982        0.362047 
         3.2202         1.17015        0.357621 
         3.2359         1.16248        0.353277 
        3.25157         1.15258        0.349014 
        3.26729         1.14441        0.344809 
        3.28304         1.13545        0.340665 
        3.29877         1.12633        0.336595 
        3.31446         1.12229        0.332599 
        3.33014         1.10393        0.328672 
        3.34585           1.103        0.324802 
        3.36158         1.09302        0.320988 
        3.37727         1.08884        0.317247 
        3.39294         1.07652         0.31357 
        3.40867         1.07312        0.309937 
        3.42439          1.0683        0.306363 
        3.44008         1.05685        0.302853 
        3.45578          1.0486        0.299395 
        3.47153         1.04111        0.295983 
        3.48724         1.03329         0.29263 
        3.50292         1.02342        0.289337 
        3.51859         1.02317        0.286096 
        3.53431         1.01332        0.282895 
        3.55007         1.00745        0.279734 
        3.56577          1.0014        0.276634 
        3.58146         0.99572        0.273582 
        3.59719        0.987571        0.270569 
        3.61292        0.978995        0.267603 
        3.62859         0.97447        0.264692 
        3.64429        0.966424        0.261818 
        3.66003        0.960275        0.258979 
        3.67578        0.954138        0.256182 
        3.69146        0.949598        0.253437 
        3.70712        0.943741        0.250737 
        3.72284         0.93667        0.248067 
        3.73853        0.929537        0.245439 
        3.75422        0.926108        0.242849 
        3.76993        0.918207        0.240294 
        3.78564        0.913267        0.237777 
        3.80137         0.90878        0.235291 
        3.81707        0.901531        0.232846 
        3.83279        0.896478        0.230434 
        3.84853        0.890855        0.228052 
        3.86424        0.881778        0.225708 
        3.87992        0.882125          0.2234 
        3.89561        0.875037        0.221125 
        3.91134        0.867736        0.218876 
        3.92704        0.863102        0.216661 
        3.94273        0.857977        0.214479 
        3.95845        0.853654        0.212323 
        3.97418        0.849074        0.210197 
        3.98988        0.843083        0.208102 
        4.00554        0.836337        0.206041 
        4.02125        0.831325        0.204002 
        4.03698        0.825447        0.201987 
        4.05268        0.819893        0.200005 
        4.06839        0.813501        0.198047 
         4.0841        0.806661        0.196116 
        4.09983        0.801889        0.194208 
        4.11555        0.796452        0.192326 
        4.13124        0.788678        0.190474 
        4.14693        0.786283        0.188645 
        4.16266        0.777177        0.186835 
        4.17839        0.772795         0.18505 
        4.19408         0.77092        0.183293 
        4.20977        0.763946        0.181558 
        4.22551        0.760951         0.17984 
        4.24123        0.753474        0.178147 
        4.25691        0.748324         0.17648 
        4.27259         0.74532        0.174834 
        4.28831        0.742229        0.173205 
        4.30404        0.738119        0.171596 
        4.31974          0.7306        0.170011 
        4.33543        0.727608        0.168446 
        4.35116        0.723299        0.166897 
        4.36688        0.717448        0.165368 
        4.38255        0.715484        0.163864 
        4.39825        0.711601        0.162376 
        4.41398        0.706828        0.160903 
         4.4297        0.705363        0.159449 
        4.44541        0.698428        0.158014 
        4.46111        0.696256        0.156598 
        4.47683        0.693859        0.155198 
        4.49251        0.690085        0.153817 
        4.50819        0.686626        0.152454 
         4.5239        0.683399        0.151105 
        4.53962        0.676675        0.149771 
        4.55535        0.677735        0.148453 
        4.57106        0.673355        0.147152 
        4.58678         0.67119        0.145866 
         4.6025         0.66728        0.144596 
        4.61821        0.665315         0.14334 
        4.63391        0.664177        0.142101 
         4.6496        0.660117        0.140878 
        4.66532        0.656996        0.139666 
        4.68103        0.654921         0.13847 
        4.69673        0.651215        0.137288 
        4.71241         0.65002        0.136122 
        4.72811        0.647915        0.134967 
        4.74384        0.646616        0.133824 
        4.75955        0.644806        0.132696 
        4.77525        0.640445        0.131581 
        4.79096        0.639203        0.130478 
        4.80669        0.636401        0.129387 
         4.8224        0.634111         0.12831 
        4.83809        0.631607        0.127246 
        4.85379        0.632059        0.126193 
         4.8695        0.629329        0.125152 
        4.88521        0.628067        0.124122 
        4.90093        0.625212        0.123104 
        4.91663          0.6238        0.122098 
        4.93234        0.622066        0.121103 
        4.94807         0.62131        0.120118 
        4.96377        0.620342        0.119145 
        4.97943        0.618225        0.118185 
        4.99514        0.616054        0.117234 
        5.01086        0.615117        0.116292 
        5.02654        0.614679        0.115363 
        5.04227        0.611709        0.114441 
          5.058        0.612446        0.113529 
        5.07371        0.609771        0.112629 
        5.08942        0.610358        0.111738 
        5.10513        0.608725        0.110856 
        5.12084        0.606368        0.109984 
        5.13656        0.606502        0.109121 
        5.15225         0.60576        0.108269 
        5.16796        0.604647        0.107425 
        5.18369        0.602885        0.106589 
         5.1994         0.60303        0.105763 
        5.21509          0.6015        0.104947 
        5.23079        0.600214        0.104138 
        5.24649         0.60078        0.103338 
        5.26217        0.600794        0.102548 
        5.27788        0.600948        0.101764 
        5.29359        0.599822        0.100989 
        5.30933        0.598813         0.10022 
        5.32504        0.597062        0.099461 
        5.34073        0.597583       0.0987104 
        5.35646        0.597149        0.097966 
        5.37218        0.598402       0.0972291 
        5.38789        0.595483        0.096501 
        5.40357        0.595658       0.0957812 
        5.41929         0.59535        0.095067 
        5.43502        0.595257       0.0943601 
         5.4507        0.595766       0.0936619 
        5.46639        0.594262       0.0929708 
        5.48212        0.595175        0.092285 
        5.49786        0.594984       0.0916052 
        5.51353        0.594416       0.0909357 
        5.52921        0.593789       0.0902721 
        5.54495        0.594125       0.0896132 
        5.56066        0.593833       0.0889616 
        5.57637        0.593707       0.0883165 
        5.59207        0.594606       0.0876784 
        5.60778        0.593791       0.0870463 
        5.62346        0.594167       0.0864213 
        5.63916        0.592967       0.0858018 
        5.65487        0.593126       0.0851881 
         5.6706        0.593448       0.0845796 
        5.68633         0.59385       0.0839768 
        5.70203        0.594586       0.0833811 
        5.71773        0.593574       0.0827913 
        5.73344        0.594924       0.0822069 
        5.74916        0.593548       0.0816275 
        5.76486        0.595784       0.0810545 
        5.78054        0.593634       0.0804879 
        5.79626        0.593546       0.0799251 
          5.812        0.593925       0.0793671 
         5.8277         0.59454        0.078816 
        5.84339        0.594363       0.0782701 
        5.85911        0.595769       0.0777284 
        5.87484        0.594845       0.0771918 
        5.89053        0.595452       0.0766614 
        5.90623        0.596472       0.0761357 
        5.92195        0.595493        0.075614 
        5.93767         0.59695       0.0750975 
        5.95336        0.596194       0.0745866 
        5.96905        0.595551       0.0740806 
        5.98476        0.595506       0.0735786 
        6.00048        0.596708       0.0730811 
        6.01617        0.596518       0.0725888 
        6.03185        0.596768       0.0721017 
        6.04756         0.59689       0.0716178 
        6.06331        0.598459       0.0711374 
        6.07903        0.598755       0.0706623 
        6.09473        0.597697        0.070192 
        6.11044        0.596849       0.0697256 
        6.12616        0.599028       0.0692634 
        6.14186        0.597416       0.0688059 
        6.15755        0.598658       0.0683525 
        6.17326        0.599607       0.0679029 
        6.18898        0.599223       0.0674571 
        6.20467        0.600029        0.067016 
        6.22036        0.600227       0.0665789 
         6.2361         0.59942       0.0661446 
         6.2518        0.599792       0.0657148 
        6.26748        0.599839       0.0652897 
        6.28319        0.599825       0.0648672 
        6.29893         0.60203       0.0644481 
        6.31463        0.600712       0.0640334 
        6.33033        0.599766       0.0636225 
        6.34604        0.601338       0.0632149 
        6.36177         0.60105       0.0628104 
        6.37747        0.602251       0.0624102 
