# k  (h/Mpc)    Pcb(k)  (Mpc/h)^3    Pcb_linear(k) (Mpc/h)^3   ShotnoiseSubtracted = true
      0.0200456         20121.4         20464.8 
      0.0350414         16047.1         15619.7 
      0.0492313         11599.9         11902.7 
      0.0637834         9382.07         9930.21 
      0.0800726         7271.04         7754.28 
       0.096163         5937.12         5781.53 
       0.111083         4983.07         4791.65 
       0.126058         4095.83         4205.74 
       0.142273         3525.99         3453.41 
       0.158546         2929.31          2785.1 
        0.17375         2654.44         2433.44 
       0.188953         2504.21         2180.23 
       0.204907         2143.27          1874.5 
       0.220756         1939.32         1602.81 
        0.23588         1743.35         1434.26 
         0.2514         1579.26         1299.65 
       0.267535         1520.76         1151.16 
       0.283568         1355.74         1018.16 
       0.299022         1296.68         923.597 
       0.314451         1346.38         845.563 
       0.330372            1191         766.131 
       0.346141         1093.94         694.495 
       0.361624         1049.89          637.42 
       0.377134         1005.34         588.402 
       0.392932         961.913         541.275 
       0.408854         919.509         497.833 
       0.424564         900.032          460.89 
       0.440253         834.396         428.459 
       0.455999         797.939          398.32 
       0.471626         810.187          370.85 
        0.48727         765.667         346.285 
       0.502856         731.014          324.28 
       0.518488          712.19         303.973 
       0.534347         679.744         284.966 
       0.550082         649.039         267.801 
       0.565732         639.756          252.21 
       0.581496         625.555         237.734 
       0.597222          610.98         224.367 
       0.612804         597.165         212.153 
       0.628434         571.373         200.846 
       0.644267         554.358         190.222 
       0.660051         547.647         180.391 
       0.675724         535.984         171.316 
       0.691403         520.121         162.864 
       0.707174         502.989         154.938 
       0.722871         494.773         147.574 
        0.73838         486.657         140.769 
       0.754018         472.968         134.343 
       0.769845         465.735         128.248 
        0.78569           455.7         122.526 
       0.801365         439.701         117.209 
       0.817031         435.333         112.211 
       0.832809         428.481         107.473 
       0.848511         419.832          103.03 
       0.864097           410.6         98.8685 
       0.879701         407.004         94.9332 
       0.895507         390.977         91.1658 
       0.911279         385.727         87.6109 
        0.92691         380.192         84.2752 
       0.942635         376.472         81.0951 
       0.958396          362.82         78.0726 
       0.974128         357.948           75.21 
       0.989692         345.579         72.5195 
        1.00528         343.884          69.957 
        1.02113          336.45         67.4785 
        1.03692         330.863         65.1295 
        1.05264         324.822         62.9034 
        1.06832         318.796          60.785 
        1.08405         315.734         58.7588 
        1.09979         309.053          56.824 
        1.11537          299.92         54.9956 
        1.13105          296.77         53.2369 
        1.14679         291.376         51.5484 
        1.16256         288.545         49.9301 
        1.17828         283.523         48.3866 
        1.19395         275.873         46.9137 
         1.2097          274.63         45.4947 
        1.22537         268.613         44.1413 
          1.241         263.452         42.8471 
        1.25666         260.061         41.6016 
        1.27241         255.604         40.3998 
        1.28819         250.191         39.2435 
        1.30392         248.814         38.1359 
        1.31957         241.571         37.0759 
        1.33529         238.659         36.0525 
        1.35108           236.3         35.0636 
        1.36674         230.176         34.1189 
         1.3824         228.103         33.2099 
        1.39811          224.89          32.331 
        1.41389         218.343         31.4806 
        1.42964         216.093         30.6622 
        1.44531         212.841          29.877 
        1.46101         209.343         29.1175 
        1.47667         206.292         28.3868 
        1.49229         202.969         27.6831 
        1.50793          200.18         27.0024 
        1.52367         196.973         26.3403 
        1.53953         192.128         25.6959 
        1.55526         191.185         25.0783 
        1.57092         188.767         24.4835 
        1.58662         184.429         23.9065 
        1.60235         182.356         23.3471 
        1.61809         179.603         22.8053 
        1.63369         176.007         22.2855 
        1.64941         173.707         21.7781 
        1.66519         170.972         21.2848 
        1.68085         167.946         20.8102 
        1.69652         165.937           20.35 
        1.71228         163.299          19.901 
        1.72806         160.829         19.4653 
        1.74368         159.132         19.0469 
        1.75933         157.479           18.64 
        1.77505         154.776         18.2431 
        1.79081         151.606         17.8571 
         1.8065         149.948         17.4838 
        1.82218         146.769         17.1216 
        1.83797         145.419         16.7671 
        1.85367         143.288         16.4246 
        1.86928         140.533         16.0937 
        1.88497         139.299         15.7702 
        1.90073         137.529         15.4543 
        1.91647          134.62         15.1474 
        1.93218         133.149         14.8494 
        1.94787         130.878         14.5599 
        1.96363         130.269         14.2769 
        1.97935         128.076         14.0021 
        1.99499         126.357          13.736 
        2.01064         123.404         13.4765 
         2.0264         122.462          13.222 
        2.04216         120.888         12.9742 
        2.05781         118.312         12.7343 
        2.07353          117.38         12.4996 
        2.08928         115.817         12.2703 
        2.10499         114.343         12.0474 
        2.12065         112.856         11.8307 
        2.13633         111.128         11.6191 
        2.15211         109.229         11.4113 
        2.16785         107.948         11.2092 
        2.18349         106.451         11.0132 
        2.19916         105.151         10.8215 
        2.21489         103.947         10.6337 
        2.23063          102.24         10.4503 
         2.2463         100.786          10.272 
        2.26194          99.675         10.0983 
        2.27765         98.0063         9.92768 
        2.29341         97.1073         9.76058 
        2.30914         96.1153         9.59767 
        2.32486         93.8815         9.43856 
        2.34061         93.0086         9.28279 
        2.35635         92.2687         9.13067 
        2.37203         90.4594         8.98248 
        2.38768          89.723         8.83787 
        2.40339         88.1387         8.69593 
        2.41914         87.2256         8.55676 
        2.43483         86.2693         8.42113 
         2.4505         85.1535         8.28866 
        2.46622         83.7812         8.15859 
        2.48195         82.8719         8.03129 
        2.49759         81.6065         7.90738 
        2.51328         80.9123         7.78575 
        2.52906         79.6862         7.66592 
        2.54479         78.6594         7.54904 
        2.56049         77.5771         7.43483 
        2.57618         76.4488         7.32307 
        2.59189         76.1421         7.21344 
        2.60758         74.6454         7.10623 
        2.62325         74.2452         7.00131 
        2.63898         73.2137         6.89815 
        2.65468         72.2313         6.79727 
        2.67044         71.1492         6.69798 
        2.68618         70.3735          6.6009 
        2.70184          69.437         6.50613 
        2.71755         68.6998         6.41297 
        2.73329         67.5335          6.3215 
        2.74897         67.0518          6.2321 
        2.76462         66.2299         6.14463 
        2.78034         65.1754         6.05847 
        2.79607         64.4413         5.97387 
        2.81179         63.9435         5.89097 
        2.82749         62.9321         5.80974 
        2.84321         62.1982         5.72995 
        2.85893         61.3524         5.65168 
        2.87462         60.6885           5.575 
        2.89033         60.0133         5.49967 
        2.90605         59.4755         5.42566 
        2.92176         58.6248         5.35305 
        2.93747         58.0349         5.28181 
        2.95318         57.1489         5.21184 
        2.96891         56.6789          5.1431 
        2.98456         55.9939         5.07591 
        3.00023          55.227         5.00981 
        3.01596         54.8469         4.94469 
        3.03164         54.0838          4.8809 
        3.04738         53.6218         4.81805 
         3.0631         52.8413         4.75633 
        3.07883         52.3672         4.69568 
        3.09456         51.6321          4.6361 
        3.11026         51.0439         4.57764 
        3.12596         50.5432         4.52019 
        3.14163         49.9629         4.46386 
        3.15734         49.3778         4.40836 
        3.17308         48.8891         4.35366 
        3.18879         48.2583         4.30004 
        3.20447         47.8175         4.24739 
         3.2202         47.1719         4.19547 
         3.2359         46.6987          4.1445 
        3.25157         46.2881          4.0945 
        3.26729         45.7223         4.04516 
        3.28304         45.1095         3.99655 
        3.29877         44.6892         3.94879 
        3.31446         44.2521         3.90192 
        3.33014         43.8213         3.85585 
        3.34585         43.3039         3.81044 
        3.36158         42.9383          3.7657 
        3.37727         42.3608         3.72182 
        3.39294         42.0429         3.67867 
        3.40867         41.5658         3.63605 
        3.42439         41.0153         3.59413 
        3.44008         40.5351         3.55295 
        3.45578         40.3001         3.51238 
        3.47153         39.8238         3.47236 
        3.48724         39.3951         3.43302 
        3.50292         38.9663         3.39439 
        3.51859         38.5846         3.35637 
        3.53431         38.0212         3.31881 
        3.55007         37.6419         3.28173 
        3.56577         37.2925         3.24536 
        3.58146         36.8303         3.20956 
        3.59719         36.4732         3.17421 
        3.61292         36.0863         3.13941 
        3.62859         35.8264         3.10526 
        3.64429         35.5265         3.07155 
        3.66003         35.0947         3.03823 
        3.67578         34.7755         3.00542 
        3.69146         34.3848         2.97322 
        3.70712         34.1066         2.94155 
        3.72284         33.7878         2.91022 
        3.73853         33.3828          2.8794 
        3.75422         33.0281         2.84901 
        3.76993         32.7261         2.81903 
        3.78564         32.4616          2.7895 
        3.80137         32.1428         2.76034 
        3.81707         31.7357         2.73166 
        3.83279         31.4212         2.70336 
        3.84853         31.0688         2.67541 
        3.86424          30.801         2.64791 
        3.87992         30.5449         2.62084 
        3.89561         30.2799         2.59415 
        3.91134         29.9974         2.56777 
        3.92704         29.6102         2.54178 
        3.94273         29.3879         2.51619 
        3.95845         29.1231         2.49089 
        3.97418          28.804         2.46594 
        3.98988         28.5373         2.44136 
        4.00554         28.2581         2.41719 
        4.02125          28.015         2.39327 
        4.03698         27.7344         2.36963 
        4.05268         27.6025         2.34637 
        4.06839         27.2236          2.3234 
         4.0841         27.0094         2.30075 
        4.09983         26.7347         2.27837 
        4.11555          26.493         2.25629 
        4.13124          26.167         2.23456 
        4.14693         25.9651          2.2131 
        4.16266         25.6622         2.19187 
        4.17839         25.5012         2.17094 
        4.19408         25.2902         2.15032 
        4.20977          24.998         2.12996 
        4.22551         24.8197         2.10981 
        4.24123         24.5884         2.08995 
        4.25691         24.3349         2.07039 
        4.27259         24.1553         2.05108 
        4.28831         23.9159         2.03198 
        4.30404         23.7388          2.0131 
        4.31974         23.4995         1.99449 
        4.33543          23.264         1.97614 
        4.35116         23.0392         1.95797 
        4.36688         22.8683         1.94003 
        4.38255         22.7111         1.92239 
        4.39825         22.3932         1.90493 
        4.41398         22.2476         1.88764 
         4.4297         22.0736         1.87059 
        4.44541         21.9418         1.85376 
        4.46111         21.7038         1.83714 
        4.47683         21.4846         1.82071 
        4.49251         21.3148         1.80452 
        4.50819         21.1265         1.78853 
         4.5239         20.8789         1.77271 
        4.53962         20.7675         1.75706 
        4.55535         20.5215         1.74159 
        4.57106         20.3814         1.72633 
        4.58678         20.2432         1.71124 
         4.6025          20.076         1.69634 
        4.61821         19.8782         1.68161 
        4.63391         19.6544         1.66708 
         4.6496         19.5429         1.65272 
        4.66532         19.4053         1.63851 
        4.68103         19.1747         1.62447 
        4.69673         19.0241         1.61061 
        4.71241         18.8759         1.59693 
        4.72811         18.7196         1.58338 
        4.74384         18.5623         1.56997 
        4.75955         18.4321         1.55673 
        4.77525         18.2836         1.54366 
        4.79096         18.1065         1.53072 
        4.80669          17.968         1.51792 
         4.8224          17.807         1.50528 
        4.83809          17.629          1.4928 
        4.85379         17.4948         1.48045 
         4.8695         17.3555         1.46823 
        4.88521         17.1678         1.45615 
        4.90093         17.0983         1.44421 
        4.91663         16.9587         1.43241 
        4.93234         16.7729         1.42073 
        4.94807         16.6512         1.40917 
        4.96377         16.5533         1.39776 
        4.97943         16.3775          1.3865 
        4.99514         16.2651         1.37534 
        5.01086          16.152         1.36429 
        5.02654         16.0018         1.35339 
        5.04227         15.8722         1.34258 
          5.058         15.7111         1.33188 
        5.07371         15.5838         1.32131 
        5.08942         15.4815         1.31086 
        5.10513         15.3938         1.30052 
        5.12084         15.2594         1.29029 
        5.13656         15.1207         1.28017 
        5.15225         15.0145         1.27017 
        5.16796         14.8809         1.26026 
        5.18369         14.7376         1.25046 
         5.1994         14.6351         1.24077 
        5.21509         14.5267         1.23119 
        5.23079         14.4254          1.2217 
        5.24649         14.3181         1.21232 
        5.26217         14.1946         1.20305 
        5.27788         14.1017         1.19386 
        5.29359         13.9865         1.18476 
        5.30933         13.8477         1.17574 
        5.32504         13.7483         1.16684 
        5.34073         13.6516         1.15803 
        5.35646         13.5404          1.1493 
        5.37218         13.4376         1.14065 
        5.38789         13.3168         1.13211 
        5.40357         13.2653         1.12367 
        5.41929         13.1378         1.11529 
        5.43502         13.0165         1.10699 
         5.4507         12.9185          1.0988 
        5.46639         12.8199          1.0907 
        5.48212         12.7328         1.08265 
        5.49786         12.6284         1.07468 
        5.51353         12.5901         1.06682 
        5.52921         12.4397         1.05904 
        5.54495         12.3857         1.05131 
        5.56066         12.2497         1.04366 
        5.57637         12.1706         1.03609 
        5.59207          12.089         1.02861 
        5.60778         12.0096         1.02119 
        5.62346          11.906         1.01386 
        5.63916         11.8029         1.00659 
        5.65487          11.715        0.999392 
         5.6706         11.6258        0.992254 
        5.68633         11.5781        0.985182 
        5.70203         11.4744        0.978194 
        5.71773          11.398        0.971274 
        5.73344         11.3161        0.964418 
        5.74916         11.2327        0.957621 
        5.76486         11.1329        0.950899 
        5.78054         11.0633        0.944252 
        5.79626         10.9656        0.937649 
          5.812         10.9033        0.931102 
         5.8277         10.8374        0.924637 
        5.84339         10.7414        0.918234 
        5.85911         10.6658        0.911878 
        5.87484         10.5931        0.905583 
        5.89053         10.5139        0.899361 
        5.90623         10.4455        0.893193 
        5.92195         10.3543        0.887073 
        5.93767         10.2783        0.881013 
        5.95336         10.2136        0.875019 
        5.96905         10.1364        0.869084 
        5.98476         10.0987        0.863195 
        6.00048         9.99693        0.857358 
        6.01617         9.92243        0.851583 
        6.03185         9.84759        0.845868 
        6.04756         9.78632        0.840191 
        6.06331         9.73396        0.834555 
        6.07903         9.64595        0.828982 
        6.09473         9.59159        0.823464 
        6.11044         9.49038        0.817992 
        6.12616         9.44592         0.81257 
        6.14186         9.37798        0.807203 
        6.15755         9.31327        0.801884 
        6.17326         9.24744        0.796609 
        6.18898         9.17105        0.791379 
        6.20467         9.10369        0.786205 
        6.22036         9.04479        0.781077 
         6.2361         8.97733        0.775981 
         6.2518         8.93092        0.770939 
        6.26748          8.8679        0.765953 
        6.28319         8.82325        0.760996 
        6.29893         8.75431        0.756079 
        6.31463         8.70583        0.751214 
        6.33033         8.61762        0.746393 
        6.34604         8.56768        0.741611 
        6.36177         8.51331        0.736866 
        6.37747         8.44513        0.732171 
