# k  (h/Mpc)    Pcb(k)  (Mpc/h)^3    Pcb_linear(k) (Mpc/h)^3   ShotnoiseSubtracted = true
      0.0200456          7579.8         7682.09 
      0.0350414         5987.13         5863.35 
      0.0492313         4434.66         4468.06 
      0.0637834         3613.59         3727.61 
      0.0800726         2813.15         2910.81 
       0.096163         2226.03         2170.27 
       0.111083         1867.47         1798.69 
       0.126058         1556.68         1578.75 
       0.142273         1303.44         1296.34 
       0.158546         1083.48         1045.47 
        0.17375         964.578         913.467 
       0.188953         878.895         818.416 
       0.204907         737.803         703.652 
       0.220756         662.537         601.666 
        0.23588         594.393         538.393 
         0.2514         533.423         487.864 
       0.267535         508.823         432.122 
       0.283568          444.33         382.198 
       0.299022         422.355           346.7 
       0.314451         417.565         317.408 
       0.330372         360.188         287.591 
       0.346141          333.89           260.7 
       0.361624         317.064         239.275 
       0.377134          292.71         220.875 
       0.392932         285.234         203.184 
       0.408854         269.536         186.877 
       0.424564         258.638         173.009 
       0.440253         233.588         160.835 
       0.455999         221.632         149.522 
       0.471626         217.646          139.21 
        0.48727         208.819         129.989 
       0.502856         190.724         121.728 
       0.518488         189.387         114.106 
       0.534347         176.808         106.971 
       0.550082         172.785         100.527 
       0.565732         169.899         94.6746 
       0.581496         157.486         89.2406 
       0.597222         154.016         84.2229 
       0.612804         149.279         79.6381 
       0.628434         144.664         75.3936 
       0.644267          137.59         71.4058 
       0.660051         133.456         67.7153 
       0.675724         132.007         64.3088 
       0.691403         128.421         61.1359 
       0.707174         124.155         58.1606 
       0.722871         121.874         55.3963 
        0.73838         119.208         52.8419 
       0.754018         111.893         50.4296 
       0.769845         111.336         48.1418 
        0.78569         108.222         45.9938 
       0.801365         105.062          43.998 
       0.817031         101.599         42.1219 
       0.832809          99.804         40.3434 
       0.848511          97.505         38.6755 
       0.864097         95.7722         37.1134 
       0.879701         94.0663         35.6361 
       0.895507         90.5239         34.2219 
       0.911279         89.2677         32.8874 
        0.92691         86.5199         31.6353 
       0.942635         84.8137         30.4415 
       0.958396         84.2495          29.307 
       0.974128         82.2841         28.2324 
       0.989692         80.4663         27.2224 
        1.00528         78.8915         26.2605 
        1.02113         77.0671         25.3301 
        1.03692         76.7813         24.4483 
        1.05264         75.3527         23.6127 
        1.06832         72.8774         22.8175 
        1.08405         72.1782         22.0569 
        1.09979         71.5635         21.3306 
        1.11537         69.5463         20.6443 
        1.13105         68.1672         19.9841 
        1.14679         67.2537         19.3503 
        1.16256         66.0109         18.7428 
        1.17828         65.3007         18.1634 
        1.19395         63.4911         17.6105 
         1.2097         63.6718         17.0778 
        1.22537         62.0795         16.5698 
          1.241          61.453          16.084 
        1.25666         59.7096         15.6164 
        1.27241          59.556         15.1653 
        1.28819          58.574         14.7313 
        1.30392         57.5531         14.3155 
        1.31957         57.1789         13.9176 
        1.33529         56.1846         13.5334 
        1.35108         55.2792         13.1622 
        1.36674         54.5578         12.8076 
         1.3824         53.6636         12.4664 
        1.39811         52.7622         12.1364 
        1.41389         51.9525         11.8172 
        1.42964         51.5172           11.51 
        1.44531         50.4982         11.2152 
        1.46101         50.1258         10.9302 
        1.47667         49.3848         10.6558 
        1.49229         48.6842         10.3917 
        1.50793          48.119         10.1362 
        1.52367         47.5035         9.88764 
        1.53953         46.9066         9.64575 
        1.55526         46.2639          9.4139 
        1.57092         45.7179         9.19062 
        1.58662         45.0686         8.97405 
        1.60235         44.5038         8.76405 
        1.61809         43.8228         8.56066 
        1.63369         43.2757         8.36553 
        1.64941         42.7673         8.17509 
        1.66519         42.0152         7.98989 
        1.68085         41.6868         7.81175 
        1.69652         40.9023         7.63898 
        1.71228         40.7453         7.47046 
        1.72806         39.9782         7.30688 
        1.74368         39.5628         7.14984 
        1.75933         39.2048         6.99711 
        1.77505         38.9079         6.84811 
        1.79081         38.2913          6.7032 
         1.8065         37.6235         6.56309 
        1.82218          37.071         6.42711 
        1.83797         36.7958         6.29405 
        1.85367         36.2765         6.16548 
        1.86928         36.2726         6.04128 
        1.88497         35.3885         5.91982 
        1.90073         35.0802         5.80125 
        1.91647         34.8814         5.68603 
        1.93218          34.732         5.57418 
        1.94787         34.1513          5.4655 
        1.96363         33.4976         5.35929 
        1.97935         33.2748         5.25611 
        1.99499         32.9571         5.15623 
        2.01064         32.4692          5.0588 
         2.0264         32.1219         4.96328 
        2.04216         31.8706         4.87026 
        2.05781          31.447         4.78021 
        2.07353         31.0955         4.69212 
        2.08928         30.8297         4.60605 
        2.10499         30.5454         4.52237 
        2.12065         30.1293         4.44101 
        2.13633         29.8743         4.36159 
        2.15211         29.3309         4.28359 
        2.16785         29.0796         4.20772 
        2.18349          28.768         4.13415 
        2.19916         28.4692         4.06219 
        2.21489         28.1752          3.9917 
        2.23063         28.0098         3.92284 
         2.2463         27.6733          3.8559 
        2.26194            27.3          3.7907 
        2.27765         26.9881         3.72666 
        2.29341         26.7121         3.66393 
        2.30914         26.4366         3.60278 
        2.32486         26.1244         3.54305 
        2.34061         25.9278         3.48458 
        2.35635         25.5867         3.42748 
        2.37203         25.3795         3.37185 
        2.38768         25.1874         3.31757 
        2.40339         24.9797         3.26428 
        2.41914         24.6275         3.21204 
        2.43483         24.5183         3.16113 
         2.4505         24.0501          3.1114 
        2.46622         23.8073         3.06258 
        2.48195         23.5857         3.01479 
        2.49759         23.2393         2.96828 
        2.51328         23.1388         2.92262 
        2.52906          22.948         2.87764 
        2.54479          22.662         2.83377 
        2.56049         22.5827         2.79089 
        2.57618         22.3257         2.74894 
        2.59189         21.9216         2.70779 
        2.60758         21.8339         2.66754 
        2.62325         21.5451         2.62816 
        2.63898         21.3786         2.58943 
        2.65468         21.1859         2.55157 
        2.67044         20.8976         2.51429 
        2.68618         20.6808         2.47785 
        2.70184         20.4726         2.44227 
        2.71755         20.3138         2.40731 
        2.73329         20.0631         2.37297 
        2.74897         19.9478         2.33941 
        2.76462         19.7627         2.30657 
        2.78034          19.462         2.27423 
        2.79607         19.3019         2.24247 
        2.81179         19.1334         2.21136 
        2.82749         18.9518         2.18087 
        2.84321         18.8153         2.15091 
        2.85893         18.5315         2.12153 
        2.87462         18.4186         2.09275 
        2.89033         18.2627         2.06447 
        2.90605         18.0221         2.03669 
        2.92176         17.7918         2.00943 
        2.93747         17.6789         1.98269 
        2.95318          17.553         1.95642 
        2.96891         17.3073         1.93062 
        2.98456         17.2566          1.9054 
        3.00023         16.9683         1.88059 
        3.01596         16.8223         1.85614 
        3.03164         16.6605          1.8322 
        3.04738         16.5131          1.8086 
         3.0631         16.3968         1.78543 
        3.07883         16.2299         1.76267 
        3.09456         16.0923          1.7403 
        3.11026         15.9462         1.71836 
        3.12596         15.7463         1.69679 
        3.14163         15.6184         1.67565 
        3.15734         15.4803         1.65481 
        3.17308         15.3749         1.63428 
        3.18879         15.1192         1.61415 
        3.20447         15.0634         1.59439 
         3.2202         14.9056          1.5749 
         3.2359         14.7905         1.55577 
        3.25157         14.6717           1.537 
        3.26729         14.4953         1.51848 
        3.28304          14.419         1.50023 
        3.29877         14.3459          1.4823 
        3.31446         14.1407         1.46471 
        3.33014         14.0156         1.44741 
        3.34585         13.8802         1.43037 
        3.36158          13.755         1.41357 
        3.37727         13.6028          1.3971 
        3.39294          13.516          1.3809 
        3.40867         13.3725          1.3649 
        3.42439          13.268         1.34917 
        3.44008          13.156         1.33371 
        3.45578         13.0074         1.31848 
        3.47153         12.9058         1.30346 
        3.48724         12.8237         1.28869 
        3.50292          12.713         1.27419 
        3.51859          12.586         1.25991 
        3.53431         12.4438         1.24582 
        3.55007         12.3512          1.2319 
        3.56577         12.2696         1.21825 
        3.58146         12.1285         1.20481 
        3.59719         12.0277         1.19154 
        3.61292         11.9345         1.17847 
        3.62859          11.807         1.16565 
        3.64429         11.7199           1.153 
        3.66003         11.6128         1.14049 
        3.67578         11.5209         1.12818 
        3.69146         11.4518         1.11609 
        3.70712         11.3025          1.1042 
        3.72284         11.2264         1.09244 
        3.73853          11.121         1.08087 
        3.75422         11.0033         1.06946 
        3.76993         10.9137         1.05821 
        3.78564         10.8365         1.04712 
        3.80137         10.7251         1.03618 
        3.81707         10.6523         1.02541 
        3.83279         10.5723         1.01479 
        3.84853         10.4543          1.0043 
        3.86424         10.3694        0.993975 
        3.87992         10.3032        0.983813 
        3.89561         10.2109        0.973792 
        3.91134         10.1308         0.96389 
        3.92704         10.0427        0.954137 
        3.94273         9.96142        0.944528 
        3.95845         9.85923        0.935033 
        3.97418         9.77469        0.925667 
        3.98988          9.7236        0.916441 
        4.00554         9.62204        0.907365 
        4.02125         9.53841        0.898386 
        4.03698         9.46586        0.889515 
        4.05268         9.40266        0.880783 
        4.06839         9.29422        0.872161 
         4.0841         9.22364        0.863657 
        4.09983         9.15162        0.855255 
        4.11555         9.06225        0.846967 
        4.13124         8.99675        0.838811 
        4.14693         8.89452        0.830756 
        4.16266         8.84521        0.822787 
        4.17839         8.75789        0.814928 
        4.19408         8.70705        0.807188 
        4.20977         8.60322        0.799546 
        4.22551         8.55236        0.791984 
        4.24123          8.4984        0.784527 
        4.25691         8.41005        0.777186 
        4.27259         8.33841        0.769937 
        4.28831         8.26098        0.762765 
        4.30404         8.23672        0.755677 
        4.31974         8.13295        0.748695 
        4.33543          8.0886        0.741805 
        4.35116         7.99129        0.734984 
        4.36688         7.94582        0.728252 
        4.38255         7.88725        0.721628 
        4.39825          7.7986        0.715073 
        4.41398         7.74325        0.708585 
         4.4297         7.68588        0.702185 
        4.44541         7.62953        0.695865 
        4.46111         7.55631        0.689627 
        4.47683         7.51908        0.683461 
        4.49251         7.44512        0.677383 
        4.50819         7.39247         0.67138 
         4.5239         7.32988         0.66544 
        4.53962         7.25992        0.659565 
        4.55535         7.21602        0.653758 
        4.57106          7.1534        0.648029 
        4.58678         7.11216        0.642368 
         4.6025         7.04563        0.636772 
        4.61821         6.98642        0.631244 
        4.63391         6.94012        0.625788 
         4.6496         6.88324        0.620399 
        4.66532         6.83415        0.615064 
        4.68103         6.76632        0.609795 
        4.69673         6.72434        0.604592 
        4.71241         6.65819        0.599455 
        4.72811         6.60661        0.594369 
        4.74384         6.59005        0.589335 
        4.75955         6.52917        0.584367 
        4.77525         6.48373        0.579459 
        4.79096         6.44338        0.574601 
        4.80669         6.36482        0.569797 
         4.8224         6.32721        0.565052 
        4.83809         6.29081        0.560367 
        4.85379         6.23471        0.555731 
         4.8695         6.21025        0.551144 
        4.88521         6.13418        0.546611 
        4.90093         6.09011        0.542128 
        4.91663         6.05416        0.537699 
        4.93234         6.00635        0.533314 
        4.94807          5.9502        0.528975 
        4.96377         5.91385        0.524693 
        4.97943         5.85045        0.520467 
        4.99514         5.81839        0.516276 
        5.01086          5.7897        0.512129 
        5.02654         5.73876        0.508037 
        5.04227          5.7053        0.503977 
          5.058          5.6455         0.49996 
        5.07371         5.63893        0.495995 
        5.08942         5.57801        0.492072 
        5.10513         5.53849        0.488191 
        5.12084         5.49371        0.484349 
        5.13656         5.44297         0.48055 
        5.15225         5.40652        0.476798 
        5.16796         5.36663        0.473079 
        5.18369          5.3382        0.469397 
         5.1994         5.29352         0.46576 
        5.21509         5.25577        0.462166 
        5.23079         5.23032        0.458604 
        5.24649         5.17283        0.455083 
        5.26217         5.16136        0.451602 
        5.27788         5.10376        0.448151 
        5.29359         5.08643        0.444736 
        5.30933         5.03999        0.441352 
        5.32504         5.00147        0.438008 
        5.34073         4.97234        0.434702 
        5.35646         4.93413        0.431424 
        5.37218         4.90227        0.428179 
        5.38789         4.86201        0.424973 
        5.40357         4.82064        0.421802 
        5.41929         4.78564        0.418658 
        5.43502          4.7577        0.415544 
         5.4507         4.73511         0.41247 
        5.46639         4.69452        0.409426 
        5.48212         4.67495        0.406406 
        5.49786         4.63781        0.403412 
        5.51353         4.60845        0.400464 
        5.52921          4.5671        0.397542 
        5.54495         4.53799         0.39464 
        5.56066         4.50151         0.39177 
        5.57637         4.47663         0.38893 
        5.59207         4.44518        0.386119 
        5.60778         4.41483        0.383336 
        5.62346         4.38297        0.380583 
        5.63916          4.3552        0.377855 
        5.65487         4.32443        0.375152 
         5.6706         4.30349        0.372473 
        5.68633         4.26682        0.369818 
        5.70203         4.23776        0.367195 
        5.71773         4.21354        0.364598 
        5.73344         4.17667        0.362024 
        5.74916         4.16127        0.359473 
        5.76486         4.12268        0.356949 
        5.78054         4.10948        0.354454 
        5.79626         4.06706        0.351975 
          5.812         4.04725        0.349518 
         5.8277         4.02519        0.347091 
        5.84339         3.99375        0.344687 
        5.85911         3.96558        0.342301 
        5.87484         3.93396        0.339939 
        5.89053         3.92134        0.337603 
        5.90623         3.88881        0.335288 
        5.92195         3.87407         0.33299 
        5.93767         3.83757        0.330715 
        5.95336          3.8217        0.328465 
        5.96905          3.7977        0.326237 
        5.98476         3.77351        0.324027 
        6.00048         3.74286        0.321836 
        6.01617         3.71455        0.319668 
        6.03185         3.69449        0.317523 
        6.04756         3.66792        0.315392 
        6.06331         3.64805        0.313276 
        6.07903         3.62648        0.311184 
        6.09473         3.60327        0.309113 
        6.11044         3.57346        0.307059 
        6.12616         3.56162        0.305023 
        6.14186         3.53707        0.303008 
        6.15755         3.51162        0.301012 
        6.17326         3.49386        0.299032 
        6.18898         3.46073        0.297068 
        6.20467         3.44292        0.295126 
        6.22036         3.42215        0.293201 
         6.2361         3.40989        0.291288 
         6.2518         3.38791        0.289396 
        6.26748         3.36106        0.287524 
        6.28319         3.34382        0.285663 
        6.29893         3.32607        0.283818 
        6.31463          3.3019        0.281991 
        6.33033         3.28614        0.280182 
        6.34604         3.26341        0.278387 
        6.36177         3.24682        0.276605 
        6.37747         3.23512        0.274843 
