# k  (h/Mpc)    Pcb(k)  (Mpc/h)^3    Pcb_linear(k) (Mpc/h)^3   ShotnoiseSubtracted = true
      0.0200456         6591.77         6720.65 
      0.0350414         4977.35         5097.41 
      0.0492313         3735.58         3753.79 
      0.0637834         3246.92         3199.82 
      0.0800726          2664.1         2643.18 
       0.096163         1902.23         1943.21 
       0.111083         1498.42         1537.33 
       0.126058         1389.42         1379.11 
       0.142273         1229.54         1211.16 
       0.158546         1017.69         968.546 
        0.17375         817.141         804.772 
       0.188953         780.305         731.321 
       0.204907         743.948         665.892 
       0.220756          632.12         572.204 
        0.23588         552.599         493.253 
         0.2514         486.779          446.76 
       0.267535         468.949         411.701 
       0.283568         428.389         368.908 
       0.299022         395.478         328.046 
       0.314451         364.742          298.72 
       0.330372         339.289         276.654 
       0.346141          307.94         254.353 
       0.361624         293.938         231.879 
       0.377134         276.607         213.028 
       0.392932          255.62         197.991 
       0.408854          246.15         184.131 
       0.424564         236.653         170.589 
       0.440253         223.743         158.298 
       0.455999         211.491         147.879 
       0.471626         195.652         138.678 
        0.48727         191.185         129.917 
       0.502856         183.464         121.773 
       0.518488         179.227         114.455 
       0.534347         171.079         107.813 
       0.550082         159.321          101.69 
       0.565732         154.576         95.9912 
       0.581496         148.177          90.702 
       0.597222         143.862         85.8916 
       0.612804         137.334         81.4772 
       0.628434         134.648         77.3416 
       0.644267         130.222         73.4339 
       0.660051         127.504         69.8247 
       0.675724         123.823         66.4989 
       0.691403         120.183         63.3918 
       0.707174         115.741         60.4672 
       0.722871         113.794         57.7404 
        0.73838         111.716         55.2126 
       0.754018         106.625         52.8185 
       0.769845         104.742         50.5417 
        0.78569         102.219         48.3986 
       0.801365         99.3427         46.4027 
       0.817031          96.161         44.5225 
       0.832809         95.1465         42.7364 
       0.848511          91.518         41.0584 
       0.864097         89.1397          39.484 
       0.879701         88.4637         37.9923 
       0.895507         86.5714         36.5617 
       0.911279         85.3791         35.2092 
        0.92691         82.9642         33.9378 
       0.942635         80.8065         32.7233 
       0.958396         80.4758         31.5669 
       0.974128         78.4623         30.4696 
       0.989692         76.7432         29.4363 
        1.00528         75.3365         28.4503 
        1.02113         73.6943         27.4948 
        1.03692         72.0921         26.5876 
        1.05264         71.5057         25.7261 
        1.06832         69.9442         24.9049 
        1.08405         69.1169          24.118 
        1.09979         68.1911         23.3652 
        1.11537         65.7691         22.6525 
        1.13105         66.1855         21.9659 
        1.14679         64.9918         21.3056 
        1.16256         63.7366         20.6716 
        1.17828         62.2581         20.0659 
        1.19395         61.7982          19.487 
         1.2097         60.5326         18.9283 
        1.22537         60.2951         18.3947 
          1.241         58.9026         17.8836 
        1.25666         57.7664          17.391 
        1.27241         57.4554         16.9149 
        1.28819         56.0379         16.4562 
        1.30392         55.2361         16.0161 
        1.31957         54.9533         15.5944 
        1.33529         54.3117         15.1866 
        1.35108         53.6634          14.792 
        1.36674         52.7931         14.4144 
         1.3824         51.5673         14.0507 
        1.39811         51.4829         13.6985 
        1.41389         50.6302         13.3572 
        1.42964          49.851         13.0283 
        1.44531         49.4122         12.7123 
        1.46101         48.2528         12.4063 
        1.47667         48.2342         12.1114 
        1.49229         47.8093          11.827 
        1.50793         46.8225         11.5517 
        1.52367         46.4029         11.2834 
        1.53953         45.9902          11.022 
        1.55526         45.1768         10.7712 
        1.57092         44.8561         10.5293 
        1.58662         44.2304         10.2943 
        1.60235         43.7866         10.0662 
        1.61809         43.0787         9.84502 
        1.63369         42.5183         9.63255 
        1.64941         41.9307         9.42492 
        1.66519         41.5856         9.22277 
        1.68085         41.1783         9.02807 
        1.69652         40.7337         8.83903 
        1.71228         40.4412         8.65442 
        1.72806         39.8074         8.47501 
        1.74368         39.3719         8.30257 
        1.75933         38.9071         8.13466 
        1.77505          38.638         7.97068 
        1.79081         38.0124           7.811 
         1.8065         37.6806         7.65644 
        1.82218         37.3393         7.50627 
        1.83797         36.8905         7.35916 
        1.85367         36.3859         7.21687 
        1.86928         36.0731         7.07925 
        1.88497         35.5271         6.94453 
        1.90073         35.4924         6.81287 
        1.91647         34.9496         6.68479 
        1.93218         34.6328         6.56032 
        1.94787         34.2722         6.43926 
        1.96363         34.0402         6.32082 
        1.97935         33.6469         6.20564 
        1.99499         33.2143         6.09404 
        2.01064         32.9294         5.98505 
         2.0264         32.4181         5.87809 
        2.04216         32.1038         5.77383 
        2.05781         31.8824          5.6728 
        2.07353         31.5167         5.57386 
        2.08928          31.498          5.4771 
        2.10499         31.0517         5.38293 
        2.12065         30.5532         5.29129 
        2.13633         30.4072         5.20174 
        2.15211         29.8524         5.11371 
        2.16785          29.714         5.02799 
        2.18349         29.5509         4.94481 
        2.19916         29.2181         4.86336 
        2.21489         28.8341          4.7835 
        2.23063         28.6303         4.70541 
         2.2463         28.4566         4.62944 
        2.26194         28.1555         4.55536 
        2.27765         27.8246         4.48255 
        2.29341         27.4723         4.41115 
        2.30914         27.3925         4.34149 
        2.32486         27.0779         4.27339 
        2.34061         26.7806         4.20666 
        2.35635         26.4382         4.14143 
        2.37203         26.2681         4.07783 
        2.38768         26.0685         4.01572 
        2.40339         25.9048          3.9547 
        2.41914         25.5584         3.89481 
        2.43483         25.2537          3.8364 
         2.4505         25.0517         3.77931 
        2.46622         24.7908         3.72319 
        2.48195         24.5681         3.66823 
        2.49759         24.3263         3.61468 
        2.51328         24.1121         3.56208 
        2.52906         23.9486         3.51021 
        2.54479         23.6504         3.45958 
        2.56049         23.3714         3.41006 
        2.57618         23.2441         3.36156 
        2.59189         23.0734         3.31395 
        2.60758         22.8845         3.26735 
        2.62325         22.6477         3.22172 
        2.63898         22.4928         3.17681 
        2.65468         22.3218         3.13286 
        2.67044         22.0132         3.08956 
        2.68618         21.8614          3.0472 
        2.70184         21.6926         3.00581 
        2.71755         21.4364          2.9651 
        2.73329         21.2944         2.92509 
        2.74897          21.013         2.88595 
        2.76462         21.0951         2.84763 
        2.78034         20.7691         2.80986 
        2.79607         20.5419         2.77274 
        2.81179         20.4071         2.73635 
        2.82749         20.2735         2.70066 
        2.84321         20.0471         2.66557 
        2.85893         19.8655         2.63113 
        2.87462         19.6829         2.59736 
        2.89033         19.4977         2.56416 
        2.90605         19.4032         2.53152 
        2.92176         19.1263         2.49947 
        2.93747         19.0139           2.468 
        2.95318         18.8426         2.43708 
        2.96891         18.6387         2.40668 
        2.98456         18.5022         2.37693 
        3.00023          18.396         2.34766 
        3.01596         18.2132         2.31879 
        3.03164         18.0596          2.2905 
        3.04738          17.871          2.2626 
         3.0631         17.7372         2.23518 
        3.07883         17.5708         2.20823 
        3.09456         17.4374         2.18172 
        3.11026         17.2594          2.1557 
        3.12596         17.1006         2.13012 
        3.14163         17.0507         2.10501 
        3.15734         16.8058         2.08025 
        3.17308          16.691         2.05584 
        3.18879          16.563         2.03189 
        3.20447         16.3985         2.00836 
         3.2202          16.264         1.98514 
         3.2359          16.141         1.96233 
        3.25157         16.0584         1.93994 
        3.26729         15.8354         1.91783 
        3.28304           15.75         1.89603 
        3.29877         15.5785          1.8746 
        3.31446         15.4536         1.85356 
        3.33014         15.3016         1.83286 
        3.34585         15.2115         1.81245 
        3.36158         15.0971         1.79232 
        3.37727         14.9488         1.77257 
        3.39294         14.8301         1.75313 
        3.40867         14.6823         1.73392 
        3.42439         14.5842         1.71502 
        3.44008          14.494         1.69643 
        3.45578          14.382         1.67811 
        3.47153         14.2597         1.66003 
        3.48724         14.1357         1.64224 
        3.50292         13.9632         1.62477 
        3.51859         13.8999         1.60755 
        3.53431         13.7906         1.59054 
        3.55007         13.6963         1.57374 
        3.56577         13.5682         1.55724 
        3.58146         13.4714           1.541 
        3.59719         13.3117         1.52495 
        3.61292         13.2391         1.50913 
        3.62859         13.0931         1.49361 
        3.64429         13.0103         1.47828 
        3.66003         12.8846         1.46311 
        3.67578         12.8034         1.44817 
        3.69146         12.6919          1.4335 
        3.70712         12.5795         1.41906 
        3.72284          12.502         1.40476 
        3.73853         12.4033         1.39069 
        3.75422         12.3114         1.37682 
        3.76993         12.1798         1.36312 
        3.78564         12.0689         1.34961 
        3.80137         11.9897         1.33627 
        3.81707         11.8965         1.32314 
        3.83279         11.8093         1.31018 
        3.84853         11.6978         1.29737 
        3.86424         11.6056         1.28476 
        3.87992         11.5084         1.27234 
        3.89561         11.4324         1.26008 
        3.91134         11.3766         1.24797 
        3.92704         11.2435         1.23603 
        3.94273         11.1778         1.22425 
        3.95845         11.0843         1.21262 
        3.97418           10.98         1.20113 
        3.98988         10.8943         1.18981 
        4.00554         10.8003         1.17867 
        4.02125         10.7367         1.16764 
        4.03698          10.643         1.15674 
        4.05268         10.5789           1.146 
        4.06839         10.4498         1.13539 
         4.0841         10.4148         1.12492 
        4.09983         10.3257         1.11457 
        4.11555         10.2426         1.10436 
        4.13124         10.1573         1.09431 
        4.14693         10.0745         1.08437 
        4.16266         10.0049         1.07453 
        4.17839         9.93826         1.06483 
        4.19408         9.86421         1.05527 
        4.20977          9.7675         1.04582 
        4.22551         9.70395         1.03646 
        4.24123         9.63243         1.02724 
        4.25691         9.54286         1.01815 
        4.27259         9.48594         1.00917 
        4.28831         9.41127         1.00028 
        4.30404         9.33535        0.991492 
        4.31974         9.25069        0.982829 
        4.33543         9.15898        0.974277 
        4.35116         9.11997        0.965806 
        4.36688         9.05916        0.957441 
        4.38255         8.97714        0.949208 
        4.39825         8.88671        0.941055 
        4.41398         8.85807        0.932982 
         4.4297         8.77687        0.925014 
        4.44541         8.69503        0.917142 
        4.46111         8.65811        0.909368 
        4.47683         8.56254         0.90168 
        4.49251         8.53617        0.894098 
        4.50819         8.46012        0.886606 
         4.5239         8.39552         0.87919 
        4.53962         8.31689        0.871851 
        4.55535         8.26506        0.864593 
        4.57106         8.19512         0.85743 
        4.58678         8.13364        0.850346 
         4.6025         8.07984        0.843343 
        4.61821          8.0056         0.83642 
        4.63391          7.9493        0.829585 
         4.6496         7.89862         0.82283 
        4.66532         7.85393        0.816141 
        4.68103         7.76762         0.80953 
        4.69673         7.72733           0.803 
        4.71241         7.67791        0.796549 
        4.72811         7.58454        0.790159 
        4.74384          7.5474        0.783832 
        4.75955         7.48605        0.777584 
        4.77525         7.46259         0.77141 
        4.79096         7.38179        0.765295 
        4.80669         7.33718        0.759245 
         4.8224         7.29718        0.753268 
        4.83809         7.22711        0.747362 
        4.85379          7.1594        0.741517 
         4.8695         7.11942         0.73573 
        4.88521         7.06862        0.730008 
        4.90093         7.01793        0.724347 
        4.91663         6.96443        0.718752 
        4.93234         6.91299        0.713211 
        4.94807         6.87755        0.707726 
        4.96377         6.82991        0.702309 
        4.97943         6.77769         0.69696 
        4.99514         6.72637        0.691655 
        5.01086         6.66883        0.686401 
        5.02654         6.62867        0.681216 
        5.04227         6.56937         0.67607 
          5.058         6.54015        0.670975 
        5.07371         6.47996        0.665944 
        5.08942         6.44304        0.660964 
        5.10513         6.39584        0.656035 
        5.12084         6.37074        0.651155 
        5.13656         6.31294        0.646326 
        5.15225         6.27252        0.641554 
        5.16796         6.22303        0.636824 
        5.18369         6.18226        0.632137 
         5.1994         6.13443        0.627507 
        5.21509         6.10072        0.622928 
        5.23079         6.06015         0.61839 
        5.24649         6.01089        0.613902 
        5.26217         5.97691        0.609461 
        5.27788         5.92587        0.605059 
        5.29359         5.89532          0.6007 
        5.30933         5.85859        0.596378 
        5.32504         5.81577        0.592106 
        5.34073         5.77693        0.587881 
        5.35646           5.724         0.58369 
        5.37218          5.6938        0.579539 
        5.38789          5.6631        0.575436 
        5.40357         5.60811        0.571378 
        5.41929         5.57884         0.56735 
        5.43502         5.55035        0.563362 
         5.4507         5.50504        0.559421 
        5.46639         5.46017        0.555518 
        5.48212         5.42688        0.551644 
        5.49786         5.38992        0.547803 
        5.51353         5.36196        0.544017 
        5.52921         5.32527        0.540264 
        5.54495         5.28223        0.536536 
        5.56066         5.24961        0.532848 
        5.57637         5.22105        0.529195 
        5.59207         5.18275         0.52558 
        5.60778         5.15159        0.521998 
        5.62346         5.11814        0.518455 
        5.63916         5.08327        0.514941 
        5.65487         5.04057        0.511459 
         5.6706         5.00526        0.508005 
        5.68633         4.98216        0.504582 
        5.70203         4.94631        0.501199 
        5.71773         4.92343        0.497847 
        5.73344         4.89308        0.494525 
        5.74916         4.85315         0.49123 
        5.76486         4.82122         0.48797 
        5.78054         4.79422        0.484745 
        5.79626         4.76075         0.48154 
          5.812         4.72842        0.478362 
         5.8277         4.70598        0.475222 
        5.84339         4.67277         0.47211 
        5.85911         4.63747        0.469021 
        5.87484         4.61284         0.46596 
        5.89053         4.59596        0.462933 
        5.90623         4.55101        0.459932 
        5.92195         4.52862        0.456952 
        5.93767         4.50535        0.454001 
        5.95336         4.46657        0.451081 
        5.96905         4.43674        0.448189 
        5.98476         4.40958        0.445317 
        6.00048         4.38153        0.442471 
        6.01617         4.36361        0.439653 
        6.03185         4.32817        0.436864 
        6.04756         4.31549        0.434092 
        6.06331         4.27632        0.431339 
        6.07903         4.25442        0.428616 
        6.09473          4.2303        0.425919 
        6.11044         4.19665        0.423243 
        6.12616         4.17858        0.420591 
        6.14186         4.14389        0.417965 
        6.15755         4.12805        0.415361 
        6.17326          4.1019        0.412778 
        6.18898         4.07611        0.410216 
        6.20467         4.04958         0.40768 
        6.22036         4.02724        0.405167 
         6.2361         3.99956        0.402668 
         6.2518         3.98564        0.400194 
        6.26748         3.95596        0.397747 
        6.28319          3.9317        0.395314 
        6.29893         3.89914          0.3929 
        6.31463          3.8807        0.390509 
        6.33033         3.85497         0.38814 
        6.34604         3.83045        0.385789 
        6.36177         3.80191        0.383456 
        6.37747         3.78788        0.381146 
