# k  (h/Mpc)    Pcb(k)  (Mpc/h)^3    Pcb_linear(k) (Mpc/h)^3   ShotnoiseSubtracted = true
      0.0200456           14691         15039.9 
      0.0350414         10959.9         11407.3 
      0.0492313         8262.09         8400.46 
      0.0637834         7263.01         7160.76 
      0.0800726         5933.76         5915.06 
       0.096163         4186.12         4348.64 
       0.111083         3319.43         3440.33 
       0.126058         3093.34         3086.26 
       0.142273         2734.01         2710.41 
       0.158546         2357.71         2167.47 
        0.17375          1878.6         1800.97 
       0.188953         1831.94         1636.59 
       0.204907         1746.32         1490.17 
       0.220756         1511.04         1280.51 
        0.23588          1337.3         1103.83 
         0.2514         1166.68         999.787 
       0.267535         1162.67         921.328 
       0.283568         1060.56         825.565 
       0.299022         997.033         734.122 
       0.314451         949.837         668.493 
       0.330372         876.731         619.112 
       0.346141         818.225         569.206 
       0.361624         786.723         518.912 
       0.377134         732.965         476.726 
       0.392932         707.286         443.076 
       0.408854         684.795          412.06 
       0.424564         644.648         381.754 
       0.440253         631.701         354.249 
       0.455999         600.126         330.932 
       0.471626         569.229         310.341 
        0.48727          552.57         290.736 
       0.502856         537.459         272.511 
       0.518488         532.168         256.133 
       0.534347         498.248         241.272 
       0.550082         477.912         227.569 
       0.565732         478.615         214.815 
       0.581496         451.636         202.978 
       0.597222         444.948         192.213 
       0.612804         432.289         182.335 
       0.628434         417.674          173.08 
       0.644267          406.36         164.335 
       0.660051         396.507         156.258 
       0.675724         392.581         148.815 
       0.691403         380.855         141.862 
       0.707174         367.555         135.317 
       0.722871         363.565         129.215 
        0.73838         358.872         123.558 
       0.754018         348.199           118.2 
       0.769845         338.253         113.105 
        0.78569         337.754         108.309 
       0.801365         327.108         103.843 
       0.817031         317.645         99.6351 
       0.832809         315.106         95.6382 
       0.848511         307.144          91.883 
       0.864097         302.615         88.3596 
       0.879701         298.432         85.0215 
       0.895507         291.958         81.8199 
       0.911279         282.965         78.7933 
        0.92691         282.132          75.948 
       0.942635         276.449         73.2303 
       0.958396          272.68         70.6424 
       0.974128         267.463         68.1867 
       0.989692         262.545         65.8743 
        1.00528         259.039         63.6678 
        1.02113         256.979         61.5296 
        1.03692         250.345         59.4992 
        1.05264         246.038         57.5715 
        1.06832         241.952         55.7337 
        1.08405         237.551         53.9726 
        1.09979         235.295          52.288 
        1.11537         230.082         50.6932 
        1.13105         226.322         49.1566 
        1.14679         226.384         47.6789 
        1.16256         221.762         46.2601 
        1.17828         217.099         44.9047 
        1.19395         214.553         43.6091 
         1.2097         213.763          42.359 
        1.22537         208.756         41.1648 
          1.241         207.244          40.021 
        1.25666         202.909         38.9186 
        1.27241         200.111         37.8533 
        1.28819         198.012         36.8267 
        1.30392         195.115         35.8419 
        1.31957         194.358         34.8981 
        1.33529         189.586         33.9854 
        1.35108         187.161         33.1024 
        1.36674         186.275         32.2575 
         1.3824         182.472         31.4435 
        1.39811         182.877         30.6552 
        1.41389         178.448         29.8915 
        1.42964         175.306         29.1555 
        1.44531         173.048         28.4483 
        1.46101         171.867         27.7635 
        1.47667         168.257         27.1036 
        1.49229         166.378         26.4673 
        1.50793         165.154          25.851 
        1.52367         163.469         25.2507 
        1.53953         160.072         24.6658 
        1.55526         158.124         24.1044 
        1.57092         156.522          23.563 
        1.58662         154.094         23.0373 
        1.60235         152.826         22.5268 
        1.61809         150.854         22.0318 
        1.63369         148.851         21.5563 
        1.64941         146.804         21.0917 
        1.66519          144.83         20.6393 
        1.68085         143.752         20.2036 
        1.69652         140.434         19.7805 
        1.71228         140.164         19.3674 
        1.72806         138.271         18.9659 
        1.74368         137.066           18.58 
        1.75933         134.881         18.2042 
        1.77505         133.173         17.8373 
        1.79081         132.071         17.4799 
         1.8065         130.188         17.1341 
        1.82218         128.062          16.798 
        1.83797           126.4         16.4688 
        1.85367         125.214         16.1504 
        1.86928         124.044         15.8424 
        1.88497         121.427         15.5409 
        1.90073         121.192         15.2462 
        1.91647         119.161         14.9596 
        1.93218         117.953         14.6811 
        1.94787         116.739         14.4102 
        1.96363          115.22         14.1451 
        1.97935         113.113         13.8874 
        1.99499          112.38         13.6376 
        2.01064         111.127         13.3937 
         2.0264         109.546         13.1543 
        2.04216         108.568          12.921 
        2.05781         107.295         12.6949 
        2.07353         105.714         12.4735 
        2.08928         104.443          12.257 
        2.10499         102.935         12.0462 
        2.12065         102.595         11.8412 
        2.13633         101.319         11.6408 
        2.15211         100.053         11.4438 
        2.16785         98.3247         11.2519 
        2.18349         97.0817         11.0658 
        2.19916         96.6776         10.8835 
        2.21489         95.1741         10.7048 
        2.23063         93.8873         10.5301 
         2.2463         93.2493           10.36 
        2.26194         92.8039         10.1943 
        2.27765         90.8588         10.0313 
        2.29341         89.9887         9.87155 
        2.30914         88.5839         9.71564 
        2.32486          87.973         9.56324 
        2.34061         87.0964         9.41391 
        2.35635         85.9291         9.26794 
        2.37203         84.5534         9.12562 
        2.38768         83.9125         8.98662 
        2.40339         83.1071         8.85006 
        2.41914         81.8965         8.71605 
        2.43483         81.7202         8.58534 
         2.4505         80.2962         8.45756 
        2.46622         79.4877         8.33198 
        2.48195         78.4759         8.20898 
        2.49759         77.6171         8.08915 
        2.51328         76.9234         7.97144 
        2.52906         76.1251         7.85536 
        2.54479         75.2599         7.74205 
        2.56049         74.1384         7.63123 
        2.57618         73.5544         7.52271 
        2.59189         72.6115         7.41617 
        2.60758         71.9779         7.31188 
        2.62325         71.4232         7.20975 
        2.63898         70.3385         7.10925 
        2.65468         69.7761          7.0109 
        2.67044         68.8196         6.91401 
        2.68618         68.6641         6.81921 
        2.70184         67.7462         6.72658 
        2.71755         67.3876         6.63547 
        2.73329         65.9821         6.54593 
        2.74897         65.3784         6.45836 
        2.76462         64.7361         6.37261 
        2.78034         64.0666         6.28808 
        2.79607         63.3375         6.20501 
        2.81179         62.6068         6.12357 
        2.82749         62.0958         6.04369 
        2.84321         61.5244         5.96517 
        2.85893         60.7138         5.88809 
        2.87462         59.9582         5.81252 
        2.89033         59.5164         5.73823 
        2.90605         58.6964         5.66519 
        2.92176         58.2498         5.59347 
        2.93747         57.6391         5.52305 
        2.95318         56.8978         5.45384 
        2.96891         56.1524         5.38581 
        2.98456         55.9426         5.31925 
        3.00023         55.2519         5.25373 
        3.01596         54.8628         5.18913 
        3.03164         53.9933         5.12582 
        3.04738          53.673         5.06339 
         3.0631         53.0765         5.00203 
        3.07883         52.5744          4.9417 
        3.09456         52.2619         4.88239 
        3.11026         51.4482         4.82416 
        3.12596         50.9563          4.7669 
        3.14163         50.4398         4.71071 
        3.15734         49.8018         4.65531 
        3.17308          49.555         4.60068 
        3.18879          49.112         4.54708 
        3.20447         48.3502         4.49443 
         3.2202          48.031         4.44246 
         3.2359         47.5452         4.39142 
        3.25157         47.0488         4.34131 
        3.26729         46.6086         4.29184 
        3.28304         45.9984         4.24305 
        3.29877         45.6652          4.1951 
        3.31446         45.2786           4.148 
        3.33014          44.951         4.10168 
        3.34585         44.4369           4.056 
        3.36158         43.9989         4.01096 
        3.37727         43.4523         3.96676 
        3.39294         43.1426         3.92327 
        3.40867         42.5475         3.88028 
        3.42439         42.2042         3.83797 
        3.44008         42.0678         3.79638 
        3.45578         41.3913         3.75538 
        3.47153         40.9942         3.71491 
        3.48724          40.691         3.67511 
        3.50292         40.4165           3.636 
        3.51859         39.8597         3.59748 
        3.53431         39.5462         3.55941 
        3.55007         39.2363          3.5218 
        3.56577         38.8696         3.48489 
        3.58146         38.4414         3.44853 
        3.59719         38.1337         3.41262 
        3.61292         37.8081         3.37723 
        3.62859         37.3822         3.34249 
        3.64429         36.9532         3.30817 
        3.66003         36.6812         3.27424 
        3.67578         36.4079         3.24081 
        3.69146          36.137         3.20797 
        3.70712         35.6605         3.17565 
        3.72284          35.473         3.14366 
        3.73853          35.189         3.11218 
        3.75422         34.7229         3.08112 
        3.76993         34.5478         3.05046 
        3.78564         34.2248         3.02024 
        3.80137         33.8703         2.99039 
        3.81707         33.5653           2.961 
        3.83279         33.3076         2.93199 
        3.84853         33.0554         2.90333 
        3.86424         32.7319         2.87511 
        3.87992         32.3715         2.84732 
        3.89561         32.0853         2.81989 
        3.91134         31.8346         2.79278 
        3.92704         31.5271         2.76605 
        3.94273         31.2865         2.73971 
        3.95845         30.9082         2.71367 
        3.97418         30.8106         2.68796 
        3.98988         30.3731         2.66263 
        4.00554         30.1892          2.6377 
        4.02125         29.9483         2.61301 
        4.03698         29.6094         2.58861 
        4.05268         29.4605         2.56459 
        4.06839         29.1172         2.54085 
         4.0841         28.9732         2.51742 
        4.09983         28.7288         2.49426 
        4.11555         28.4826         2.47141 
        4.13124         28.1737          2.4489 
        4.14693         27.9283         2.42667 
        4.16266         27.6604         2.40466 
        4.17839         27.4894         2.38294 
        4.19408         27.2079         2.36154 
        4.20977         27.0163         2.34039 
        4.22551         26.7138         2.31946 
        4.24123         26.5015         2.29881 
        4.25691         26.3103         2.27848 
        4.27259         26.0439         2.25838 
        4.28831          25.873         2.23849 
        4.30404         25.6172         2.21882 
        4.31974         25.5347         2.19943 
        4.33543         25.2148         2.18029 
        4.35116         25.0736         2.16134 
        4.36688         24.8639         2.14262 
        4.38255         24.6493         2.12419 
        4.39825         24.4433         2.10595 
        4.41398         24.2192         2.08788 
         4.4297         24.0296         2.07005 
        4.44541         23.8353         2.05244 
        4.46111         23.6138         2.03504 
        4.47683          23.433         2.01783 
        4.49251         23.2587         2.00087 
        4.50819         23.0889          1.9841 
         4.5239         22.8705         1.96751 
        4.53962         22.7066         1.95108 
        4.55535         22.5237         1.93484 
        4.57106         22.3508         1.91881 
        4.58678         22.1403         1.90296 
         4.6025         21.9279         1.88728 
        4.61821         21.8165         1.87179 
        4.63391         21.5987          1.8565 
         4.6496         21.4662         1.84138 
        4.66532          21.254         1.82641 
        4.68103         21.0983         1.81162 
        4.69673         20.9406           1.797 
        4.71241          20.841         1.78256 
        4.72811         20.6047         1.76826 
        4.74384         20.4754         1.75411 
        4.75955         20.2865         1.74013 
        4.77525         20.1524         1.72631 
        4.79096         19.9963         1.71262 
        4.80669         19.8869         1.69908 
         4.8224         19.6939         1.68571 
        4.83809         19.4727         1.67249 
        4.85379          19.403         1.65941 
         4.8695         19.2645         1.64646 
        4.88521         19.0903         1.63366 
        4.90093         18.9386         1.62099 
        4.91663         18.7571         1.60847 
        4.93234         18.6511         1.59607 
        4.94807          18.508         1.58379 
        4.96377         18.3461         1.57167 
        4.97943          18.227          1.5597 
        4.99514         18.0935         1.54783 
        5.01086         17.9212         1.53607 
        5.02654         17.8106         1.52447 
        5.04227         17.7024         1.51295 
          5.058         17.5244         1.50155 
        5.07371         17.4468         1.49029 
        5.08942         17.2991         1.47915 
        5.10513         17.1739         1.46812 
        5.12084         17.0554         1.45719 
        5.13656         16.8968         1.44639 
        5.15225         16.7732         1.43571 
        5.16796         16.6222         1.42512 
        5.18369         16.5184         1.41464 
         5.1994         16.4364         1.40427 
        5.21509         16.3032         1.39403 
        5.23079         16.1659         1.38387 
        5.24649         16.0596         1.37383 
        5.26217         15.9466         1.36389 
        5.27788         15.7873         1.35404 
        5.29359         15.6933         1.34428 
        5.30933         15.5432         1.33461 
        5.32504         15.4781         1.32505 
        5.34073         15.3539          1.3156 
        5.35646          15.266         1.30622 
        5.37218         15.1261         1.29693 
        5.38789         15.0534         1.28775 
        5.40357         14.9196         1.27866 
        5.41929         14.8003         1.26965 
        5.43502         14.7195         1.26072 
         5.4507         14.6165         1.25191 
        5.46639         14.4917         1.24317 
        5.48212         14.4006          1.2345 
        5.49786         14.3011         1.22591 
        5.51353         14.1915         1.21743 
        5.52921         14.0962         1.20904 
        5.54495         14.0071         1.20069 
        5.56066         13.8987         1.19244 
        5.57637         13.7959         1.18426 
        5.59207         13.6905         1.17617 
        5.60778         13.6199         1.16816 
        5.62346          13.525         1.16023 
        5.63916         13.4263         1.15237 
        5.65487         13.3137         1.14457 
         5.6706         13.2466         1.13684 
        5.68633         13.1327         1.12919 
        5.70203         13.0425         1.12161 
        5.71773         12.9618         1.11411 
        5.73344         12.8605         1.10668 
        5.74916         12.7779          1.0993 
        5.76486         12.7013         1.09201 
        5.78054         12.5872         1.08479 
        5.79626         12.5037         1.07762 
          5.812          12.449         1.07051 
         5.8277         12.3509         1.06348 
        5.84339         12.2698         1.05652 
        5.85911         12.1733          1.0496 
        5.87484         12.1024         1.04275 
        5.89053         12.0231         1.03598 
        5.90623         11.9222         1.02926 
        5.92195         11.8445          1.0226 
        5.93767         11.7646         1.01599 
        5.95336         11.6733         1.00946 
        5.96905         11.6063         1.00298 
        5.98476         11.5492        0.996558 
        6.00048         11.4482        0.990188 
        6.01617         11.3691        0.983882 
        6.03185         11.2979         0.97764 
        6.04756         11.2207        0.971438 
        6.06331         11.1495        0.965277 
        6.07903         11.0668        0.959183 
        6.09473         11.0015        0.953147 
        6.11044         10.9264        0.947159 
        6.12616         10.8525        0.941225 
        6.14186         10.7774        0.935347 
        6.15755         10.7281         0.92952 
        6.17326         10.6407         0.92374 
        6.18898         10.5633        0.918006 
        6.20467         10.4929        0.912332 
        6.22036         10.4102        0.906707 
         6.2361          10.328        0.901114 
         6.2518         10.2965        0.895579 
        6.26748         10.2134        0.890103 
        6.28319         10.1655        0.884658 
        6.29893         10.0942        0.879254 
        6.31463         10.0284        0.873906 
        6.33033          9.9756        0.868604 
        6.34604         9.91323        0.863343 
        6.36177          9.8294        0.858121 
        6.37747         9.76146        0.852952 
