# k  (h/Mpc)    Pcb(k)  (Mpc/h)^3    Pcb_linear(k) (Mpc/h)^3   ShotnoiseSubtracted = true
      0.0200456         1285.14         1306.19 
      0.0350414         982.724         990.709 
      0.0492313         731.673         729.569 
      0.0637834          627.42         621.903 
      0.0800726         516.077         513.715 
       0.096163         375.623         377.674 
       0.111083         296.152         298.788 
       0.126058         269.333         268.038 
       0.142273         237.046         235.396 
       0.158546         191.026         188.242 
        0.17375         156.362         156.412 
       0.188953         144.273         142.136 
       0.204907         134.937          129.42 
       0.220756         114.248         111.211 
        0.23588         98.9296         95.8662 
         0.2514         88.5631         86.8302 
       0.267535         82.2481         80.0162 
       0.283568         74.2834         71.6992 
       0.299022         66.9921         63.7575 
       0.314451         59.9185         58.0578 
       0.330372         56.0521         53.7691 
       0.346141         51.4512         49.4348 
       0.361624         47.5413         45.0669 
       0.377134         44.4467          41.403 
       0.392932         39.6924         38.4805 
       0.408854          38.312         35.7869 
       0.424564         35.7846         33.1548 
       0.440253         33.0459         30.7661 
       0.455999         31.2694          28.741 
       0.471626         29.4635         26.9527 
        0.48727          27.793         25.2501 
       0.502856         25.9979         23.6672 
       0.518488         24.9003         22.2448 
       0.534347         23.8528         20.9541 
       0.550082         21.8864          19.764 
       0.565732         20.3178         18.6564 
       0.581496         19.9613         17.6284 
       0.597222         19.2167         16.6935 
       0.612804          17.941         15.8355 
       0.628434         17.3167         15.0318 
       0.644267         16.6932         14.2723 
       0.660051         15.7974         13.5708 
       0.675724         15.0324         12.9244 
       0.691403         14.5591         12.3205 
       0.707174         13.9116         11.7521 
       0.722871         13.3714         11.2222 
        0.73838         12.8954         10.7309 
       0.754018          12.462         10.2655 
       0.769845         11.9006         9.82304 
        0.78569         11.5456         9.40652 
       0.801365         11.0823          9.0186 
       0.817031         10.7577         8.65318 
       0.832809         10.4515         8.30605 
       0.848511          9.8572         7.97992 
       0.864097         9.58435         7.67392 
       0.879701         9.29517         7.38401 
       0.895507         8.91811         7.10595 
       0.911279         8.79789         6.84309 
        0.92691         8.49796         6.59598 
       0.942635         8.13292         6.35995 
       0.958396         7.88935          6.1352 
       0.974128         7.70237         5.92193 
       0.989692         7.59092          5.7211 
        1.00528         7.28465         5.52947 
        1.02113         7.01899         5.34376 
        1.03692           6.908         5.16743 
        1.05264         6.69208         5.00001 
        1.06832         6.54919          4.8404 
        1.08405         6.27786         4.68745 
        1.09979         6.15495         4.54114 
        1.11537         6.03282         4.40264 
        1.13105         5.87937         4.26919 
        1.14679         5.74326         4.14085 
        1.16256         5.57701         4.01762 
        1.17828         5.47682         3.89991 
        1.19395         5.32759          3.7874 
         1.2097         5.14286         3.67882 
        1.22537         5.03543         3.57511 
          1.241         4.94687         3.47577 
        1.25666         4.91361         3.38003 
        1.27241         4.72229         3.28751 
        1.28819         4.61315         3.19835 
        1.30392         4.54504         3.11282 
        1.31957         4.45169         3.03086 
        1.33529         4.34528         2.95159 
        1.35108         4.25038          2.8749 
        1.36674         4.17828         2.80152 
         1.3824         4.03924         2.73082 
        1.39811         3.98155         2.66237 
        1.41389         3.92089         2.59604 
        1.42964         3.84319         2.53212 
        1.44531         3.77538          2.4707 
        1.46101         3.70478         2.41122 
        1.47667         3.59876         2.35391 
        1.49229         3.57204         2.29865 
        1.50793         3.47895         2.24513 
        1.52367         3.45326         2.19299 
        1.53953         3.34943         2.14219 
        1.55526         3.28908         2.09343 
        1.57092         3.24716         2.04642 
        1.58662         3.18474         2.00076 
        1.60235         3.12596         1.95642 
        1.61809         3.07456         1.91343 
        1.63369         3.03384         1.87214 
        1.64941         2.97165         1.83178 
        1.66519         2.93352         1.79249 
        1.68085         2.85875         1.75465 
        1.69652          2.8194         1.71791 
        1.71228         2.78446         1.68203 
        1.72806           2.723         1.64716 
        1.74368         2.69014         1.61365 
        1.75933         2.63871         1.58101 
        1.77505         2.60245         1.54914 
        1.79081         2.56021         1.51811 
         1.8065         2.52113         1.48807 
        1.82218         2.49402         1.45888 
        1.83797         2.46721         1.43029 
        1.85367         2.43162         1.40264 
        1.86928         2.39309         1.37589 
        1.88497          2.3416         1.34971 
        1.90073         2.30402         1.32412 
        1.91647         2.28292         1.29922 
        1.93218          2.2573         1.27503 
        1.94787         2.21546          1.2515 
        1.96363         2.18469         1.22848 
        1.97935         2.14952          1.2061 
        1.99499         2.11116         1.18441 
        2.01064         2.09169         1.16323 
         2.0264         2.08193         1.14244 
        2.04216         2.04432         1.12217 
        2.05781         2.01394         1.10254 
        2.07353         1.99247         1.08331 
        2.08928         1.96197          1.0645 
        2.10499          1.9388          1.0462 
        2.12065         1.92604         1.02839 
        2.13633         1.88914         1.01099 
        2.15211         1.86218        0.993876 
        2.16785          1.8392        0.977217 
        2.18349         1.82265         0.96105 
        2.19916         1.78883         0.94522 
        2.21489         1.76817        0.929699 
        2.23063         1.74854        0.914522 
         2.2463         1.73702        0.899756 
        2.26194         1.70131        0.885358 
        2.27765         1.68461        0.871206 
        2.29341         1.67231        0.857331 
        2.30914         1.65799        0.843791 
        2.32486         1.63586        0.830555 
        2.34061         1.61054        0.817586 
        2.35635         1.58835        0.804908 
        2.37203         1.57792        0.792548 
        2.38768         1.56177        0.780476 
        2.40339          1.5474        0.768616 
        2.41914         1.52739        0.756978 
        2.43483          1.5094        0.745625 
         2.4505          1.4886        0.734528 
        2.46622         1.47487        0.723621 
        2.48195         1.46727        0.712939 
        2.49759         1.44736        0.702532 
        2.51328         1.42457        0.692309 
        2.52906         1.41487        0.682228 
        2.54479         1.40266        0.672387 
        2.56049          1.3836        0.662763 
        2.57618         1.37373        0.653338 
        2.59189          1.3595        0.644084 
        2.60758          1.3427        0.635027 
        2.62325         1.33074        0.626158 
        2.63898         1.32138        0.617429 
        2.65468         1.30625        0.608887 
        2.67044         1.29178        0.600473 
        2.68618         1.27567        0.592239 
        2.70184         1.26395        0.584195 
        2.71755         1.25244        0.576282 
        2.73329           1.243        0.568506 
        2.74897         1.23118          0.5609 
        2.76462         1.21796        0.553453 
        2.78034         1.21022        0.546111 
        2.79607         1.19656        0.538897 
        2.81179         1.18236        0.531824 
        2.82749         1.17743        0.524887 
        2.84321         1.16725        0.518067 
        2.85893         1.15283        0.511373 
        2.87462         1.14516         0.50481 
        2.89033         1.13046        0.498358 
        2.90605         1.12325        0.492014 
        2.92176          1.1116        0.485785 
        2.93747         1.10409         0.47967 
        2.95318         1.09424        0.473659 
        2.96891         1.08458         0.46775 
        2.98456         1.07981         0.46197 
        3.00023         1.06728         0.45628 
        3.01596         1.06024        0.450669 
        3.03164         1.05116         0.44517 
        3.04738         1.03521        0.439748 
         3.0631          1.0321         0.43442 
        3.07883         1.02343         0.42918 
        3.09456         1.01377         0.42403 
        3.11026         1.00635        0.418972 
        3.12596         0.99782        0.413999 
        3.14163         0.98951        0.409119 
        3.15734        0.987051        0.404308 
        3.17308        0.973742        0.399563 
        3.18879        0.966137        0.394908 
        3.20447        0.959061        0.390336 
         3.2202         0.95379        0.385822 
         3.2359        0.946805        0.381389 
        3.25157        0.936678        0.377037 
        3.26729         0.93491        0.372741 
        3.28304        0.922501        0.368504 
        3.29877        0.915123        0.364339 
        3.31446        0.910387        0.360249 
        3.33014        0.905486        0.356226 
        3.34585        0.897881        0.352259 
        3.36158        0.889085        0.348347 
        3.37727        0.886301        0.344507 
        3.39294        0.880479         0.34073 
        3.40867        0.873768        0.336997 
        3.42439        0.864095        0.333322 
        3.44008        0.862661         0.32971 
        3.45578        0.856501         0.32615 
        3.47153        0.847924        0.322635 
        3.48724        0.844914        0.319179 
        3.50292        0.840716        0.315782 
        3.51859        0.832485        0.312436 
        3.53431        0.829151         0.30913 
        3.55007        0.825087        0.305864 
        3.56577        0.816896        0.302658 
        3.58146        0.810746        0.299501 
        3.59719        0.809292        0.296381 
        3.61292        0.803249        0.293308 
        3.62859        0.794051        0.290291 
        3.64429        0.794087        0.287311 
        3.66003        0.786363        0.284364 
        3.67578        0.780285         0.28146 
        3.69146        0.776925        0.278608 
        3.70712        0.770465        0.275801 
        3.72284        0.767711        0.273023 
        3.73853        0.761042        0.270289 
        3.75422        0.755348        0.267591 
        3.76993        0.754333        0.264929 
        3.78564        0.748456        0.262304 
        3.80137         0.74299        0.259711 
        3.81707        0.741463        0.257159 
        3.83279        0.733501         0.25464 
        3.84853        0.728763         0.25215 
        3.86424        0.725234          0.2497 
        3.87992        0.721494        0.247286 
        3.89561        0.717069        0.244904 
        3.91134          0.7128        0.242549 
        3.92704        0.706059        0.240228 
        3.94273         0.70475         0.23794 
        3.95845        0.701089        0.235679 
        3.97418        0.694445        0.233446 
        3.98988        0.690478        0.231246 
        4.00554        0.685357         0.22908 
        4.02125         0.68043        0.226937 
        4.03698        0.674091        0.224818 
        4.05268        0.669146        0.222731 
        4.06839        0.664395        0.220669 
         4.0841        0.659208        0.218635 
        4.09983        0.654181        0.216623 
        4.11555        0.648396        0.214638 
        4.13124        0.643552        0.212684 
        4.14693        0.639034        0.210753 
        4.16266        0.634158        0.208841 
        4.17839        0.629783        0.206955 
        4.19408        0.625997        0.205096 
        4.20977        0.622729         0.20326 
        4.22551        0.617559        0.201442 
        4.24123        0.612344        0.199649 
        4.25691         0.60968        0.197883 
        4.27259          0.6051        0.196137 
        4.28831        0.601982         0.19441 
        4.30404        0.596519        0.192702 
        4.31974        0.593604        0.191018 
        4.33543        0.590288        0.189356 
        4.35116        0.587686         0.18771 
        4.36688        0.583308        0.186084 
        4.38255        0.581333        0.184484 
        4.39825        0.576295        0.182899 
        4.41398        0.573463         0.18133 
         4.4297        0.570355        0.179781 
        4.44541        0.567476        0.178251 
        4.46111        0.565697         0.17674 
        4.47683        0.562672        0.175246 
        4.49251        0.558776        0.173773 
        4.50819          0.5549        0.172317 
         4.5239        0.554988        0.170875 
        4.53962        0.551074        0.169449 
        4.55535        0.549915        0.168038 
        4.57106        0.546584        0.166646 
        4.58678        0.544091        0.165269 
         4.6025        0.541239        0.163908 
        4.61821        0.539033        0.162563 
        4.63391        0.537262        0.161234 
         4.6496        0.533893        0.159921 
        4.66532        0.532522        0.158621 
        4.68103        0.530649        0.157336 
        4.69673        0.529134        0.156067 
        4.71241        0.527037        0.154813 
        4.72811        0.525343        0.153571 
        4.74384        0.523951        0.152342 
        4.75955        0.522082        0.151128 
        4.77525        0.519788        0.149927 
        4.79096        0.518923        0.148739 
        4.80669        0.516822        0.147563 
         4.8224        0.515464        0.146401 
        4.83809        0.514044        0.145254 
        4.85379         0.51304        0.144118 
         4.8695        0.511628        0.142993 
        4.88521        0.509817        0.141881 
        4.90093        0.509997        0.140781 
        4.91663        0.508116        0.139693 
        4.93234        0.505919        0.138616 
        4.94807        0.506051         0.13755 
        4.96377        0.504822        0.136497 
        4.97943         0.50452        0.135458 
        4.99514        0.502753        0.134427 
        5.01086        0.503015        0.133406 
        5.02654        0.501387        0.132398 
        5.04227        0.499976        0.131398 
          5.058        0.499604        0.130408 
        5.07371        0.498293         0.12943 
        5.08942        0.498806        0.128462 
        5.10513        0.497358        0.127504 
        5.12084        0.497334        0.126555 
        5.13656        0.497038        0.125617 
        5.15225        0.496578        0.124689 
        5.16796        0.497429         0.12377 
        5.18369         0.49685        0.122859 
         5.1994        0.496651        0.121959 
        5.21509        0.496237        0.121069 
        5.23079        0.495539        0.120187 
        5.24649        0.495789        0.119315 
        5.26217        0.494817        0.118452 
        5.27788        0.495559        0.117596 
        5.29359        0.495148        0.116749 
        5.30933        0.495119        0.115909 
        5.32504        0.494714        0.115079 
        5.34073        0.494984        0.114258 
        5.35646        0.495285        0.113443 
        5.37218        0.495438        0.112637 
        5.38789        0.495625        0.111839 
        5.40357        0.496256         0.11105 
        5.41929        0.494743        0.110268 
        5.43502         0.49597        0.109492 
         5.4507        0.496393        0.108726 
        5.46639        0.497623        0.107968 
        5.48212        0.496251        0.107215 
        5.49786        0.496296        0.106468 
        5.51353        0.497968        0.105733 
        5.52921        0.497259        0.105003 
        5.54495        0.497904        0.104279 
        5.56066        0.499547        0.103562 
        5.57637        0.498663        0.102852 
        5.59207        0.499726        0.102149 
        5.60778        0.500213        0.101453 
        5.62346        0.499475        0.100764 
        5.63916         0.50051        0.100082 
        5.65487        0.501846       0.0994047 
         5.6706        0.501578       0.0987335 
        5.68633        0.503523       0.0980682 
        5.70203        0.504224       0.0974106 
        5.71773        0.504844       0.0967592 
        5.73344        0.504542       0.0961134 
        5.74916        0.504669       0.0954731 
        5.76486        0.506764       0.0948395 
        5.78054         0.50673       0.0942127 
        5.79626        0.506552       0.0935898 
          5.812        0.508658       0.0929721 
         5.8277        0.508762       0.0923618 
        5.84339        0.509177       0.0917571 
        5.85911         0.50994       0.0911567 
        5.87484         0.51075       0.0905618 
        5.89053        0.511919       0.0899735 
        5.90623        0.511984       0.0893902 
        5.92195         0.51328       0.0888111 
        5.93767        0.513683       0.0882375 
        5.95336        0.513008         0.08767 
        5.96905         0.51493       0.0871078 
        5.98476        0.515683       0.0865498 
        6.00048        0.517515       0.0859965 
        6.01617         0.51716       0.0854489 
        6.03185        0.517426       0.0849068 
        6.04756        0.519826       0.0843681 
        6.06331        0.520279        0.083833 
        6.07903        0.521798       0.0833038 
        6.09473        0.521694       0.0827796 
        6.11044        0.523936       0.0822596 
        6.12616        0.523469       0.0817441 
        6.14186        0.524545       0.0812336 
        6.15755        0.525759       0.0807276 
        6.17326        0.525632       0.0802256 
        6.18898        0.527038       0.0797276 
        6.20467        0.529423       0.0792348 
        6.22036        0.526984       0.0787463 
         6.2361        0.527846       0.0782606 
         6.2518        0.528367       0.0777799 
        6.26748        0.530033       0.0773043 
        6.28319        0.532062       0.0768314 
        6.29893        0.532276       0.0763621 
        6.31463        0.533444       0.0758976 
        6.33033        0.532911       0.0754371 
        6.34604        0.533573       0.0749802 
        6.36177        0.534293       0.0745266 
        6.37747        0.537149       0.0740778 
