# k  (h/Mpc)    Pcb(k)  (Mpc/h)^3    Pcb_linear(k) (Mpc/h)^3   ShotnoiseSubtracted = true
      0.0200456         324.231         329.292 
      0.0350414         249.076         249.758 
      0.0492313         184.693         183.925 
      0.0637834         157.533         156.782 
      0.0800726         129.604         129.508 
       0.096163         95.1852         95.2117 
       0.111083          75.201         75.3247 
       0.126058          67.696         67.5724 
       0.142273         59.3889         59.3434 
       0.158546         47.7223         47.4559 
        0.17375         39.3915         39.4314 
       0.188953         35.9251         35.8325 
       0.204907         33.1311         32.6268 
       0.220756         28.2441         28.0363 
        0.23588         24.4044         24.1679 
         0.2514         21.9636         21.8899 
       0.267535         20.2385         20.1721 
       0.283568         18.1928         18.0754 
       0.299022         16.2685         16.0733 
       0.314451          14.627         14.6364 
       0.330372         13.6167         13.5552 
       0.346141         12.5176         12.4625 
       0.361624          11.474         11.3614 
       0.377134         10.6109         10.4377 
       0.392932         9.61831         9.70096 
       0.408854         9.14216         9.02189 
       0.424564         8.43095         8.35835 
       0.440253         7.82749         7.75614 
       0.455999         7.36704         7.24562 
       0.471626         6.93033         6.79479 
        0.48727         6.45371         6.36556 
       0.502856         6.03033         5.96652 
       0.518488         5.74857         5.60794 
       0.534347         5.45818         5.28254 
       0.550082         5.04756         4.98252 
       0.565732         4.69351         4.70329 
       0.581496         4.53948         4.44413 
       0.597222         4.32052         4.20843 
       0.612804         4.06176         3.99214 
       0.628434          3.9029         3.78951 
       0.644267         3.69027         3.59805 
       0.660051           3.494          3.4212 
       0.675724         3.33792         3.25825 
       0.691403          3.2057         3.10601 
       0.707174          3.0386         2.96272 
       0.722871         2.89532         2.82911 
        0.73838         2.79233         2.70526 
       0.754018           2.692         2.58795 
       0.769845         2.55941         2.47639 
        0.78569         2.45762         2.37139 
       0.801365         2.34937         2.27359 
       0.817031         2.26503         2.18147 
       0.832809         2.17314         2.09396 
       0.848511         2.07314         2.01174 
       0.864097         1.98742          1.9346 
       0.879701         1.91449         1.86151 
       0.895507         1.85461         1.79141 
       0.911279         1.79909         1.72515 
        0.92691          1.7286         1.66285 
       0.942635         1.66283         1.60335 
       0.958396         1.59895         1.54669 
       0.974128         1.54721         1.49292 
       0.989692         1.50467         1.44229 
        1.00528            1.45         1.39398 
        1.02113         1.39042         1.34716 
        1.03692         1.36056         1.30271 
        1.05264         1.31248          1.2605 
        1.06832         1.27529         1.22027 
        1.08405         1.21933         1.18171 
        1.09979         1.18665         1.14482 
        1.11537         1.15962         1.10991 
        1.13105         1.12611         1.07626 
        1.14679         1.09842         1.04391 
        1.16256         1.05269         1.01285 
        1.17828         1.02588         0.98317 
        1.19395        0.993778        0.954804 
         1.2097        0.957968        0.927433 
        1.22537          0.9413        0.901286 
          1.241         0.91467        0.876244 
        1.25666        0.900076        0.852107 
        1.27241        0.863204        0.828782 
        1.28819        0.839994        0.806306 
        1.30392        0.823115        0.784744 
        1.31957        0.801538         0.76408 
        1.33529        0.778548        0.744098 
        1.35108        0.757365        0.724763 
        1.36674        0.731172        0.706265 
         1.3824        0.722855        0.688442 
        1.39811        0.700774        0.671184 
        1.41389        0.685543        0.654462 
        1.42964        0.671473        0.638348 
        1.44531        0.649242        0.622864 
        1.46101        0.638813         0.60787 
        1.47667        0.614681        0.593422 
        1.49229        0.607526         0.57949 
        1.50793        0.589527        0.565998 
        1.52367        0.578808        0.552855 
        1.53953        0.563329        0.540047 
        1.55526        0.552094        0.527755 
        1.57092        0.536541        0.515902 
        1.58662        0.527622        0.504391 
        1.60235         0.51687        0.493215 
        1.61809         0.50047        0.482377 
        1.63369        0.497186        0.471966 
        1.64941         0.48243        0.461793 
        1.66519        0.471438        0.451888 
        1.68085        0.458886        0.442349 
        1.69652        0.450623        0.433086 
        1.71228        0.443427        0.424041 
        1.72806         0.43079         0.41525 
        1.74368        0.425994        0.406801 
        1.75933        0.414828        0.398574 
        1.77505        0.406329         0.39054 
        1.79081        0.399536        0.382716 
         1.8065        0.387649        0.375143 
        1.82218          0.3829        0.367785 
        1.83797        0.374143        0.360577 
        1.85367        0.369254        0.353605 
        1.86928        0.361383        0.346863 
        1.88497        0.354313        0.340261 
        1.90073        0.346504         0.33381 
        1.91647        0.341005        0.327535 
        1.93218        0.333075        0.321436 
        1.94787        0.327542        0.315505 
        1.96363         0.32147        0.309701 
        1.97935        0.313719        0.304058 
        1.99499         0.30946         0.29859 
        2.01064        0.304003         0.29325 
         2.0264        0.296734        0.288009 
        2.04216        0.294501        0.282901 
        2.05781        0.287692         0.27795 
        2.07353        0.280968        0.273103 
        2.08928        0.276012        0.268362 
        2.10499        0.271815        0.263748 
        2.12065        0.268822        0.259258 
        2.13633        0.262925         0.25487 
        2.15211        0.259214        0.250557 
        2.16785        0.253848        0.246357 
        2.18349        0.247924        0.242281 
        2.19916         0.24626         0.23829 
        2.21489         0.24099        0.234378 
        2.23063        0.237922        0.230551 
         2.2463        0.233251        0.226829 
        2.26194        0.228501        0.223199 
        2.27765        0.224972        0.219631 
        2.29341        0.222118        0.216134 
        2.30914        0.217951         0.21272 
        2.32486        0.214286        0.209383 
        2.34061        0.210863        0.206114 
        2.35635        0.207301        0.202918 
        2.37203        0.203931        0.199802 
        2.38768        0.200758        0.196758 
        2.40339        0.197939        0.193768 
        2.41914        0.195144        0.190834 
        2.43483         0.19159        0.187972 
         2.4505        0.187797        0.185175 
        2.46622        0.185023        0.182425 
        2.48195        0.182374        0.179732 
        2.49759        0.180961        0.177109 
        2.51328        0.177912        0.174531 
        2.52906        0.174864         0.17199 
        2.54479        0.171564        0.169509 
        2.56049        0.168945        0.167083 
        2.57618        0.166436        0.164707 
        2.59189        0.164619        0.162374 
        2.60758         0.16267        0.160091 
        2.62325        0.159374        0.157855 
        2.63898        0.157452        0.155654 
        2.65468        0.154458        0.153501 
        2.67044        0.152957         0.15138 
        2.68618        0.150808        0.149304 
        2.70184        0.148252        0.147276 
        2.71755        0.145657        0.145281 
        2.73329        0.144368        0.143321 
        2.74897        0.142748        0.141403 
        2.76462        0.139966        0.139526 
        2.78034        0.138212        0.137675 
        2.79607        0.135963        0.135856 
        2.81179        0.134996        0.134073 
        2.82749        0.132742        0.132324 
        2.84321        0.130719        0.130605 
        2.85893        0.129346        0.128917 
        2.87462        0.127998        0.127263 
        2.89033        0.125927        0.125636 
        2.90605        0.123757        0.124037 
        2.92176        0.122664        0.122467 
        2.93747        0.120686        0.120925 
        2.95318        0.119157         0.11941 
        2.96891         0.11772         0.11792 
        2.98456        0.116381        0.116463 
        3.00023        0.114721        0.115028 
        3.01596        0.113434        0.113614 
        3.03164        0.112317        0.112228 
        3.04738         0.11034        0.110861 
         3.0631        0.109122        0.109517 
        3.07883        0.107686        0.108197 
        3.09456        0.106369        0.106898 
        3.11026        0.105047        0.105623 
        3.12596         0.10397        0.104369 
        3.14163        0.102616        0.103139 
        3.15734        0.101558        0.101926 
        3.17308        0.100451         0.10073 
        3.18879       0.0989991       0.0995566 
        3.20447       0.0978837       0.0984038 
         3.2202        0.097109       0.0972659 
         3.2359        0.095801       0.0961483 
        3.25157        0.094525       0.0950512 
        3.26729       0.0934034       0.0939681 
        3.28304       0.0927947          0.0929 
        3.29877       0.0914899         0.09185 
        3.31446       0.0906292       0.0908189 
        3.33014       0.0900373       0.0898046 
        3.34585       0.0886679       0.0888046 
        3.36158       0.0876691       0.0878184 
        3.37727       0.0869011       0.0868505 
        3.39294       0.0860298       0.0858983 
        3.40867       0.0848803       0.0849571 
        3.42439       0.0841644       0.0840307 
        3.44008        0.083028       0.0831202 
        3.45578       0.0825817       0.0822226 
        3.47153       0.0814987       0.0813364 
        3.48724       0.0810194       0.0804651 
        3.50292       0.0799105       0.0796087 
        3.51859       0.0789978       0.0787654 
        3.53431       0.0784419       0.0779318 
        3.55007       0.0776661       0.0771084 
        3.56577       0.0770455       0.0763003 
        3.58146       0.0763682       0.0755042 
        3.59719       0.0758717       0.0747179 
        3.61292       0.0749612       0.0739432 
        3.62859       0.0740397       0.0731825 
        3.64429       0.0734901       0.0724311 
        3.66003       0.0727152       0.0716882 
        3.67578       0.0721696       0.0709561 
        3.69146       0.0713671       0.0702371 
        3.70712       0.0711303       0.0695296 
        3.72284       0.0704873       0.0688292 
        3.73853       0.0697017       0.0681399 
        3.75422       0.0693554       0.0674599 
        3.76993        0.068397       0.0667887 
        3.78564       0.0679936        0.066127 
        3.80137       0.0673407       0.0654733 
        3.81707       0.0667916       0.0648299 
        3.83279        0.066417       0.0641948 
        3.84853       0.0658105       0.0635672 
        3.86424        0.065324       0.0629494 
        3.87992       0.0646395       0.0623408 
        3.89561       0.0641004       0.0617404 
        3.91134       0.0635784       0.0611467 
        3.92704       0.0630399       0.0605616 
        3.94273       0.0624275       0.0599849 
        3.95845       0.0621458       0.0594147 
        3.97418       0.0614429       0.0588519 
        3.98988       0.0609163       0.0582972 
        4.00554       0.0604145       0.0577513 
        4.02125       0.0595634       0.0572109 
        4.03698       0.0586677       0.0566767 
        4.05268       0.0580417       0.0561506 
        4.06839       0.0572341       0.0556308 
         4.0841       0.0563499       0.0551179 
        4.09983       0.0555983       0.0546108 
        4.11555       0.0548165       0.0541104 
        4.13124       0.0540899       0.0536177 
        4.14693       0.0532369       0.0531309 
        4.16266       0.0526442        0.052649 
        4.17839       0.0520481       0.0521734 
        4.19408       0.0514847       0.0517049 
        4.20977       0.0507629        0.051242 
        4.22551       0.0500009       0.0507837 
        4.24123       0.0495476       0.0503316 
        4.25691         0.04892       0.0498863 
        4.27259       0.0483981       0.0494463 
        4.28831       0.0478758       0.0490108 
        4.30404       0.0474757       0.0485802 
        4.31974       0.0470424       0.0481557 
        4.33543       0.0466017       0.0477367 
        4.35116       0.0461313       0.0473217 
        4.36688       0.0457705       0.0469118 
        4.38255       0.0452893       0.0465084 
        4.39825       0.0449762       0.0461089 
        4.41398       0.0448499       0.0457134 
         4.4297       0.0444729        0.045323 
        4.44541       0.0441188       0.0449372 
        4.46111       0.0438057       0.0445564 
        4.47683       0.0436816       0.0441797 
        4.49251       0.0432402       0.0438082 
        4.50819       0.0430852       0.0434411 
         4.5239       0.0428257       0.0430777 
        4.53962       0.0427287       0.0427181 
        4.55535       0.0425876       0.0423625 
        4.57106       0.0424433       0.0420115 
        4.58678       0.0420943       0.0416645 
         4.6025       0.0421191       0.0413213 
        4.61821       0.0421025       0.0409821 
        4.63391       0.0420388       0.0406472 
         4.6496       0.0418417       0.0403162 
        4.66532       0.0418825       0.0399885 
        4.68103       0.0418396       0.0396646 
        4.69673       0.0418044       0.0393446 
        4.71241       0.0418765       0.0390285 
        4.72811       0.0417827       0.0387154 
        4.74384       0.0418731       0.0384054 
        4.75955       0.0418978       0.0380993 
        4.77525       0.0420085       0.0377968 
        4.79096       0.0420703       0.0374972 
        4.80669       0.0422311       0.0372008 
         4.8224       0.0424056       0.0369079 
        4.83809       0.0425271       0.0366185 
        4.85379       0.0426956       0.0363321 
         4.8695       0.0429073       0.0360486 
        4.88521        0.043012       0.0357683 
        4.90093       0.0433509       0.0354909 
        4.91663       0.0435436       0.0352167 
        4.93234       0.0436638       0.0349452 
        4.94807       0.0438504       0.0346765 
        4.96377       0.0443233        0.034411 
        4.97943       0.0447664        0.034149 
        4.99514       0.0448382        0.033889 
        5.01086       0.0452891       0.0336316 
        5.02654       0.0454643       0.0333776 
        5.04227       0.0459017       0.0331254 
          5.058       0.0463981       0.0328758 
        5.07371       0.0465681       0.0326293 
        5.08942       0.0471302       0.0323853 
        5.10513       0.0478118       0.0321438 
        5.12084       0.0480789       0.0319047 
        5.13656       0.0486298        0.031668 
        5.15225       0.0493016       0.0314343 
        5.16796       0.0496072       0.0312025 
        5.18369       0.0500758       0.0309729 
         5.1994        0.050855        0.030746 
        5.21509       0.0513994       0.0305216 
        5.23079        0.051995       0.0302993 
        5.24649       0.0526303       0.0300794 
        5.26217       0.0533821       0.0298618 
        5.27788        0.053992       0.0296461 
        5.29359       0.0548629       0.0294325 
        5.30933       0.0554733       0.0292207 
        5.32504       0.0562557       0.0290114 
        5.34073       0.0571269       0.0288045 
        5.35646       0.0579658       0.0285991 
        5.37218       0.0585969       0.0283957 
        5.38789       0.0599123       0.0281947 
        5.40357       0.0605777       0.0279958 
        5.41929       0.0615415       0.0277985 
        5.43502       0.0621148       0.0276031 
         5.4507         0.06326         0.02741 
        5.46639        0.064416       0.0272188 
        5.48212       0.0654495       0.0270289 
        5.49786       0.0666074       0.0268407 
        5.51353       0.0678401       0.0266552 
        5.52921       0.0686227       0.0264714 
        5.54495       0.0699544       0.0262887 
        5.56066       0.0713215        0.026108 
        5.57637       0.0723122        0.025929 
        5.59207       0.0738067       0.0257519 
        5.60778        0.075078       0.0255764 
        5.62346       0.0765901       0.0254027 
        5.63916         0.07769       0.0252306 
        5.65487       0.0790762         0.02506 
         5.6706        0.080265       0.0248908 
        5.68633        0.082415       0.0247231 
        5.70203       0.0834174       0.0245573 
        5.71773       0.0851928        0.024393 
        5.73344       0.0867062       0.0242302 
        5.74916        0.088774       0.0240688 
        5.76486       0.0903359       0.0239091 
        5.78054       0.0917188       0.0237511 
        5.79626       0.0935371        0.023594 
          5.812       0.0957446       0.0234383 
         5.8277       0.0968435       0.0232845 
        5.84339       0.0988536        0.023132 
        5.85911         0.10135       0.0229806 
        5.87484        0.103029       0.0228307 
        5.89053         0.10511       0.0226824 
        5.90623        0.107725       0.0225353 
        5.92195        0.109942       0.0223893 
        5.93767        0.112124       0.0222447 
        5.95336        0.114004       0.0221017 
        5.96905        0.116915       0.0219599 
        5.98476        0.118846       0.0218192 
        6.00048        0.120846       0.0216798 
        6.01617        0.124233       0.0215417 
        6.03185        0.126403        0.021405 
        6.04756        0.129264       0.0212692 
        6.06331        0.131485       0.0211343 
        6.07903        0.134199       0.0210009 
        6.09473         0.13722       0.0208688 
        6.11044        0.140791       0.0207377 
        6.12616        0.143201       0.0206077 
        6.14186        0.146645        0.020479 
        6.15755        0.149087       0.0203515 
        6.17326        0.152653       0.0202249 
        6.18898        0.156057       0.0200994 
        6.20467        0.159236       0.0199751 
        6.22036        0.162212        0.019852 
         6.2361        0.165376       0.0197295 
         6.2518        0.169096       0.0196083 
        6.26748        0.171722       0.0194884 
        6.28319        0.176107       0.0193692 
        6.29893        0.180067       0.0192509 
        6.31463        0.183487       0.0191338 
        6.33033        0.187149       0.0190177 
        6.34604        0.191881       0.0189025 
        6.36177        0.194598       0.0187882 
        6.37747         0.19982        0.018675 
