# k  (h/Mpc)    Pcb(k)  (Mpc/h)^3    Pcb_linear(k) (Mpc/h)^3   ShotnoiseSubtracted = true
      0.0200456         4209.44         4286.09 
      0.0350414          3193.5         3250.87 
      0.0492313         2390.83         2393.98 
      0.0637834         2068.19         2040.69 
      0.0800726         1699.04         1685.68 
       0.096163         1220.79         1239.28 
       0.111083         961.159         980.432 
       0.126058         886.337         879.527 
       0.142273         783.499         772.418 
       0.158546         640.345          617.69 
        0.17375         517.344         513.243 
       0.188953         488.108         466.399 
       0.204907         463.562         424.672 
       0.220756         392.153         364.923 
        0.23588         341.471         314.571 
         0.2514          302.59         284.921 
       0.267535         287.141         262.562 
       0.283568         261.678         235.271 
       0.299022         239.538         209.211 
       0.314451         217.266         190.508 
       0.330372          202.99         176.436 
       0.346141         184.738         162.213 
       0.361624         174.311         147.881 
       0.377134         164.501         135.858 
       0.392932         148.691         126.268 
       0.408854         143.673          117.43 
       0.424564          137.73         108.793 
       0.440253         128.231         100.954 
       0.455999         121.347         94.3096 
       0.471626         112.637         88.4415 
        0.48727         109.416         82.8546 
       0.502856         103.988         77.6607 
       0.518488          100.36         72.9933 
       0.534347         96.5274          68.758 
       0.550082         89.2716         64.8529 
       0.565732         85.0483         61.2183 
       0.581496         82.4285         57.8451 
       0.597222         79.9617         54.7773 
       0.612804         75.5646          51.962 
       0.628434         73.7673         49.3246 
       0.644267          71.761         46.8324 
       0.660051          69.177         44.5306 
       0.675724         66.2574         42.4096 
       0.691403          64.319         40.4281 
       0.707174         62.5864         38.5629 
       0.722871         60.4257         36.8239 
        0.73838         58.9467         35.2118 
       0.754018         56.3083         33.6849 
       0.769845         55.1154         32.2329 
        0.78569         53.5737         30.8662 
       0.801365         51.8358         29.5933 
       0.817031          50.697         28.3942 
       0.832809         49.8914         27.2551 
       0.848511         47.1785          26.185 
       0.864097         46.3539         25.1809 
       0.879701          45.703         24.2296 
       0.895507         44.9654         23.3172 
       0.911279         43.6681         22.4546 
        0.92691         42.5595         21.6438 
       0.942635         41.1665         20.8693 
       0.958396         40.7896         20.1318 
       0.974128         39.6357          19.432 
       0.989692         39.1671          18.773 
        1.00528         38.3221         18.1442 
        1.02113         37.0269         17.5348 
        1.03692         36.4234         16.9562 
        1.05264          35.777         16.4068 
        1.06832         35.0991         15.8831 
        1.08405         34.4068         15.3812 
        1.09979         33.7293         14.9011 
        1.11537         32.9377         14.4466 
        1.13105         32.6954         14.0087 
        1.14679         32.2708         13.5876 
        1.16256         31.2617         13.1833 
        1.17828         31.0387          12.797 
        1.19395         30.2354         12.4278 
         1.2097         30.0569         12.0715 
        1.22537         29.4027         11.7312 
          1.241         28.9757         11.4053 
        1.25666         28.2113         11.0911 
        1.27241         27.9184         10.7875 
        1.28819         27.2793         10.4949 
        1.30392         27.0999         10.2143 
        1.31957         26.8376         9.94532 
        1.33529         26.5231         9.68523 
        1.35108         25.8914         9.43357 
        1.36674         25.5149          9.1928 
         1.3824         25.0282         8.96081 
        1.39811          24.772         8.73618 
        1.41389         24.5466         8.51853 
        1.42964         24.2092         8.30879 
        1.44531         24.0195         8.10725 
        1.46101         23.3644         7.91208 
        1.47667         23.1185         7.72403 
        1.49229         22.9068         7.54269 
        1.50793         22.5943         7.36707 
        1.52367          22.369           7.196 
        1.53953         22.0684          7.0293 
        1.55526         21.7078          6.8693 
        1.57092         21.4506         6.71502 
        1.58662          21.204          6.5652 
        1.60235         20.9271         6.41972 
        1.61809         20.6966         6.27866 
        1.63369         20.4376         6.14315 
        1.64941         20.0889         6.01074 
        1.66519         19.9909         5.88181 
        1.68085         19.7159         5.75765 
        1.69652         19.4471         5.63709 
        1.71228         19.2365         5.51935 
        1.72806         19.1245         5.40493 
        1.74368         18.8334         5.29496 
        1.75933          18.606         5.18787 
        1.77505         18.3908         5.08329 
        1.79081         18.1436         4.98146 
         1.8065         18.0655         4.88289 
        1.82218         17.7438         4.78712 
        1.83797         17.6039          4.6933 
        1.85367         17.3876         4.60255 
        1.86928         17.3224         4.51479 
        1.88497         17.0118         4.42887 
        1.90073         16.9655          4.3449 
        1.91647         16.7754         4.26322 
        1.93218         16.6335         4.18384 
        1.94787          16.427         4.10663 
        1.96363         16.3068          4.0311 
        1.97935         16.0922         3.95765 
        1.99499         15.8906         3.88647 
        2.01064         15.7162         3.81696 
         2.0264         15.5845         3.74875 
        2.04216          15.439         3.68226 
        2.05781         15.1977         3.61782 
        2.07353         15.1123         3.55473 
        2.08928         14.9725         3.49302 
        2.10499         14.8781         3.43296 
        2.12065         14.6568         3.37452 
        2.13633         14.6087          3.3174 
        2.15211         14.4214         3.26126 
        2.16785         14.3798          3.2066 
        2.18349         14.2625         3.15355 
        2.19916         14.0503         3.10161 
        2.21489         13.9338         3.05068 
        2.23063          13.798         3.00087 
         2.2463         13.6392         2.95242 
        2.26194         13.5349         2.90518 
        2.27765         13.4746         2.85874 
        2.29341         13.3177         2.81321 
        2.30914         13.1311         2.76878 
        2.32486         13.1051         2.72535 
        2.34061         12.9673         2.68279 
        2.35635         12.8748         2.64119 
        2.37203         12.7555         2.60063 
        2.38768         12.5947         2.56102 
        2.40339         12.4672          2.5221 
        2.41914         12.3494         2.48392 
        2.43483         12.3209         2.44666 
         2.4505         12.2313         2.41025 
        2.46622         12.0823         2.37446 
        2.48195         12.0049         2.33941 
        2.49759         11.9104         2.30526 
        2.51328         11.7707         2.27171 
        2.52906         11.6871         2.23863 
        2.54479         11.5903         2.20634 
        2.56049         11.4878         2.17476 
        2.57618         11.4551         2.14384 
        2.59189         11.2917         2.11347 
        2.60758         11.2551         2.08375 
        2.62325         11.1527         2.05465 
        2.63898         10.9966         2.02601 
        2.65468         10.9087         1.99798 
        2.67044         10.8552         1.97037 
        2.68618         10.7662         1.94335 
        2.70184         10.6671         1.91695 
        2.71755         10.5624         1.89099 
        2.73329         10.4874         1.86547 
        2.74897         10.3972         1.84052 
        2.76462         10.3737         1.81608 
        2.78034         10.2385         1.79199 
        2.79607         10.1706         1.76832 
        2.81179          10.102          1.7451 
        2.82749          10.036         1.72234 
        2.84321         9.98314         1.69997 
        2.85893         9.87485           1.678 
        2.87462         9.77814         1.65646 
        2.89033         9.70207         1.63529 
        2.90605         9.62178         1.61447 
        2.92176          9.5501         1.59404 
        2.93747         9.47286         1.57397 
        2.95318         9.46289         1.55425 
        2.96891         9.35588         1.53486 
        2.98456         9.27385         1.51589 
        3.00023         9.18718         1.49722 
        3.01596         9.16067         1.47881 
        3.03164         9.08075         1.46076 
        3.04738         9.04205         1.44297 
         3.0631         8.92765         1.42549 
        3.07883         8.84523          1.4083 
        3.09456         8.81422         1.39139 
        3.11026          8.7461          1.3748 
        3.12596         8.68312         1.35848 
        3.14163         8.59195         1.34247 
        3.15734          8.5387         1.32668 
        3.17308         8.48752         1.31111 
        3.18879         8.40087         1.29584 
        3.20447         8.36481         1.28083 
         3.2202          8.2793         1.26602 
         3.2359         8.25671         1.25147 
        3.25157         8.18452         1.23719 
        3.26729         8.14466          1.2231 
        3.28304         8.04986         1.20919 
        3.29877         7.98189         1.19553 
        3.31446         7.94471         1.18211 
        3.33014         7.89657          1.1689 
        3.34585         7.82683         1.15589 
        3.36158         7.78561         1.14305 
        3.37727           7.729         1.13045 
        3.39294         7.68703         1.11806 
        3.40867          7.6027         1.10581 
        3.42439         7.57296         1.09375 
        3.44008         7.50896          1.0819 
        3.45578         7.45578         1.07022 
        3.47153         7.40755         1.05868 
        3.48724         7.36813         1.04734 
        3.50292         7.30135         1.03619 
        3.51859         7.24645         1.02522 
        3.53431         7.19014         1.01437 
        3.55007          7.1505         1.00365 
        3.56577         7.12428         0.99313 
        3.58146         7.06633        0.982769 
        3.59719         7.01126        0.972534 
        3.61292         6.97225         0.96245 
        3.62859         6.90266        0.952548 
        3.64429         6.86752        0.942769 
        3.66003         6.81383        0.933099 
        3.67578         6.77011         0.92357 
        3.69146         6.69605        0.914212 
        3.70712         6.67952        0.905002 
        3.72284          6.6302        0.895887 
        3.73853         6.59132        0.886914 
        3.75422         6.53793        0.878063 
        3.76993         6.50865        0.869326 
        3.78564         6.44387        0.860714 
        3.80137         6.41105        0.852205 
        3.81707         6.36293        0.843831 
        3.83279         6.32871        0.835564 
        3.84853         6.25364        0.827396 
        3.86424         6.22329        0.819355 
        3.87992          6.1935        0.811433 
        3.89561         6.15327        0.803618 
        3.91134         6.10105         0.79589 
        3.92704         6.04847        0.788275 
        3.94273         6.02468        0.780768 
        3.95845         6.00049        0.773346 
        3.97418          5.9491         0.76602 
        3.98988         5.91385        0.758801 
        4.00554         5.87512        0.751695 
        4.02125         5.83409        0.744661 
        4.03698         5.77081        0.737708 
        4.05268         5.74054         0.73086 
        4.06839         5.71743        0.724095 
         4.0841         5.65751        0.717419 
        4.09983         5.61889        0.710819 
        4.11555         5.57903        0.704306 
        4.13124         5.53535        0.697893 
        4.14693         5.49648        0.691555 
        4.16266         5.47381        0.685283 
        4.17839         5.43527        0.679093 
        4.19408         5.39125        0.672995 
        4.20977         5.35151         0.66697 
        4.22551          5.3206        0.661005 
        4.24123          5.2883         0.65512 
        4.25691         5.24986        0.649324 
        4.27259         5.22769        0.643597 
        4.28831         5.18459        0.637928 
        4.30404         5.14626        0.632323 
        4.31974         5.10748        0.626799 
        4.33543         5.05479        0.621344 
        4.35116         5.03338        0.615942 
        4.36688         4.99692        0.610608 
        4.38255         4.96793        0.605357 
        4.39825         4.95051        0.600157 
        4.41398         4.92485        0.595009 
         4.4297         4.88705        0.589927 
        4.44541         4.84544        0.584907 
        4.46111         4.81291        0.579949 
        4.47683         4.78057        0.575046 
        4.49251         4.75061         0.57021 
        4.50819          4.7214        0.565432 
         4.5239         4.70967        0.560703 
        4.53962         4.66952        0.556022 
        4.55535         4.63588        0.551394 
        4.57106         4.60511        0.546825 
        4.58678         4.56618        0.542308 
         4.6025         4.54987        0.537841 
        4.61821         4.52213        0.533426 
        4.63391         4.49503        0.529067 
         4.6496         4.47119        0.524759 
        4.66532         4.41809        0.520493 
        4.68103          4.3982        0.516277 
        4.69673          4.3729        0.512112 
        4.71241         4.33948        0.507998 
        4.72811         4.31455        0.503923 
        4.74384         4.29779        0.499888 
        4.75955         4.26589        0.495904 
        4.77525         4.23888        0.491966 
        4.79096         4.20221        0.488066 
        4.80669         4.17966        0.484208 
         4.8224         4.16111        0.480396 
        4.83809         4.13041        0.476629 
        4.85379          4.1005        0.472902 
         4.8695         4.07722        0.469211 
        4.88521         4.05524        0.465562 
        4.90093          4.0277        0.461952 
        4.91663         4.00863        0.458384 
        4.93234         3.98382         0.45485 
        4.94807         3.95765        0.451351 
        4.96377         3.93362        0.447897 
        4.97943         3.90595        0.444486 
        4.99514         3.87697        0.441102 
        5.01086         3.85307        0.437752 
        5.02654         3.83379        0.434445 
        5.04227         3.81464        0.431163 
          5.058         3.79673        0.427914 
        5.07371         3.76877        0.424705 
        5.08942         3.74793        0.421529 
        5.10513         3.72774        0.418386 
        5.12084          3.7057        0.415273 
        5.13656         3.68466        0.412194 
        5.15225         3.65686        0.409151 
        5.16796         3.62504        0.406134 
        5.18369         3.61824        0.403145 
         5.1994         3.59271        0.400192 
        5.21509         3.56746        0.397272 
        5.23079         3.54645        0.394378 
        5.24649         3.53321        0.391515 
        5.26217         3.51098        0.388683 
        5.27788         3.48075        0.385876 
        5.29359         3.46416        0.383096 
        5.30933         3.44965        0.380339 
        5.32504         3.41762        0.377615 
        5.34073         3.40497        0.374921 
        5.35646          3.3853        0.372248 
        5.37218         3.36497        0.369601 
        5.38789         3.34867        0.366984 
        5.40357         3.32647        0.364396 
        5.41929         3.30434        0.361827 
        5.43502         3.28504        0.359283 
         5.4507         3.26528         0.35677 
        5.46639         3.24509        0.354281 
        5.48212         3.23403        0.351811 
        5.49786         3.21239        0.349361 
        5.51353         3.19289        0.346947 
        5.52921         3.17994        0.344553 
        5.54495         3.15967        0.342176 
        5.56066         3.13952        0.339823 
        5.57637         3.11705        0.337494 
        5.59207         3.10473        0.335188 
        5.60778         3.08296        0.332904 
        5.62346         3.06496        0.330644 
        5.63916         3.04701        0.328403 
        5.65487         3.03523        0.326183 
         5.6706         3.01602         0.32398 
        5.68633         3.00068        0.321797 
        5.70203         2.98283        0.319639 
        5.71773         2.96485        0.317502 
        5.73344         2.94276        0.315383 
        5.74916         2.92922        0.313281 
        5.76486          2.9156        0.311202 
        5.78054         2.90186        0.309146 
        5.79626         2.89077        0.307102 
          5.812          2.8604        0.305075 
         5.8277         2.85128        0.303072 
        5.84339         2.83589        0.301088 
        5.85911         2.82385        0.299118 
        5.87484         2.80535        0.297166 
        5.89053          2.7937        0.295235 
        5.90623         2.77402        0.293321 
        5.92195         2.75888        0.291421 
        5.93767         2.74577        0.289539 
        5.95336         2.72587        0.287677 
        5.96905         2.71394        0.285832 
        5.98476         2.69527        0.284001 
        6.00048         2.68506        0.282185 
        6.01617         2.67156        0.280388 
        6.03185         2.65336         0.27861 
        6.04756         2.64363        0.276842 
        6.06331         2.62167        0.275086 
        6.07903         2.61021         0.27335 
        6.09473          2.6011         0.27163 
        6.11044         2.58304        0.269923 
        6.12616         2.56828        0.268232 
        6.14186         2.55994        0.266557 
        6.15755         2.54595        0.264896 
        6.17326         2.52926        0.263249 
        6.18898         2.51953        0.261615 
        6.20467         2.50515        0.259998 
        6.22036         2.49153        0.258395 
         6.2361         2.47316        0.256801 
         6.2518         2.46369        0.255224 
        6.26748         2.45629        0.253663 
        6.28319         2.43679        0.252111 
        6.29893         2.43011        0.250571 
        6.31463         2.41481        0.249047 
        6.33033         2.40059        0.247536 
        6.34604         2.39193        0.246037 
        6.36177         2.38093        0.244549 
        6.37747         2.36189        0.243076 
