# k  (h/Mpc)    Pcb(k)  (Mpc/h)^3    Pcb_linear(k) (Mpc/h)^3   ShotnoiseSubtracted = true
      0.0200456         10528.8         10756.7 
      0.0350414         7899.34         8158.61 
      0.0492313         5944.15         6008.09 
      0.0637834         5198.23         5121.44 
      0.0800726         4255.93         4230.51 
       0.096163         3017.43         3110.19 
       0.111083         2382.83         2460.56 
       0.126058         2218.74         2207.32 
       0.142273         1963.11         1938.51 
       0.158546         1658.57          1550.2 
        0.17375         1324.16         1288.07 
       0.188953         1280.92         1170.51 
       0.204907         1222.72         1065.79 
       0.220756         1048.55         915.835 
        0.23588         922.321          789.47 
         0.2514         806.848         715.057 
       0.267535         792.805         658.943 
       0.283568         724.257         590.452 
       0.299022         675.429         525.051 
       0.314451         636.166         478.113 
       0.330372          588.81         442.795 
       0.346141         538.874         407.102 
       0.361624         517.968         371.131 
       0.377134         483.785         340.959 
       0.392932          460.61         316.892 
       0.408854         443.294         294.709 
       0.424564         422.597         273.034 
       0.440253         408.783         253.362 
       0.455999          386.04         236.686 
       0.471626          360.21         221.959 
        0.48727         352.007         207.938 
       0.502856         340.564         194.903 
       0.518488         336.897         183.189 
       0.534347         317.342          172.56 
       0.550082         299.311         162.759 
       0.565732          296.28         153.638 
       0.581496         281.516         145.172 
       0.597222         275.212         137.473 
       0.612804         265.637         130.407 
       0.628434         257.008         123.788 
       0.644267         248.903         117.534 
       0.660051         245.898         111.757 
       0.675724         241.456         106.434 
       0.691403         234.737         101.461 
       0.707174         224.875         96.7802 
       0.722871         223.241         92.4158 
        0.73838         218.856           88.37 
       0.754018         212.455         84.5381 
       0.769845         206.591         80.8939 
        0.78569         204.586         77.4639 
       0.801365         199.075         74.2693 
       0.817031         192.718           71.26 
       0.832809         189.869         68.4013 
       0.848511         185.748         65.7156 
       0.864097          182.79         63.1956 
       0.879701         178.909         60.8082 
       0.895507         174.385         58.5184 
       0.911279          171.24         56.3537 
        0.92691         169.704         54.3187 
       0.942635         166.367          52.375 
       0.958396         165.826         50.5241 
       0.974128          161.02         48.7678 
       0.989692         157.205          47.114 
        1.00528         154.602         45.5358 
        1.02113         153.797         44.0065 
        1.03692           148.1         42.5544 
        1.05264         146.941         41.1757 
        1.06832         143.971         39.8613 
        1.08405         142.164         38.6017 
        1.09979         141.494         37.3969 
        1.11537         136.914         36.2563 
        1.13105         136.659         35.1573 
        1.14679         135.535         34.1004 
        1.16256         133.356         33.0856 
        1.17828         130.257         32.1163 
        1.19395         128.928         31.1897 
         1.2097         126.468         30.2956 
        1.22537         126.039         29.4414 
          1.241         123.218         28.6234 
        1.25666         121.037          27.835 
        1.27241         119.636          27.073 
        1.28819         118.018         26.3388 
        1.30392         116.759         25.6345 
        1.31957         115.041         24.9595 
        1.33529         112.836         24.3067 
        1.35108         111.542         23.6751 
        1.36674         110.369         23.0709 
         1.3824         108.435         22.4887 
        1.39811          107.52         21.9249 
        1.41389         105.892         21.3787 
        1.42964         104.667         20.8523 
        1.44531         102.123         20.3465 
        1.46101          101.44         19.8567 
        1.47667         100.613         19.3847 
        1.49229         98.7742         18.9297 
        1.50793         98.0249         18.4889 
        1.52367         96.9254         18.0596 
        1.53953         95.4129         17.6412 
        1.55526         94.3744         17.2397 
        1.57092         93.8478         16.8525 
        1.58662         91.9598         16.4765 
        1.60235          91.329         16.1114 
        1.61809         90.0253         15.7573 
        1.63369         88.7171         15.4173 
        1.64941         87.9394          15.085 
        1.66519         86.4102         14.7614 
        1.68085         85.5894         14.4498 
        1.69652          84.032         14.1472 
        1.71228         83.6454         13.8517 
        1.72806         82.6559         13.5646 
        1.74368         81.7051         13.2886 
        1.75933         80.7357         13.0198 
        1.77505         79.9951         12.7574 
        1.79081         78.6992         12.5018 
         1.8065         78.1682         12.2544 
        1.82218          76.864         12.0141 
        1.83797         76.3907         11.7786 
        1.85367          75.258         11.5509 
        1.86928         74.9379         11.3306 
        1.88497         73.6035          11.115 
        1.90073         72.6547         10.9043 
        1.91647          72.165         10.6993 
        1.93218         71.1507         10.5001 
        1.94787         70.4013         10.3063 
        1.96363         69.3838         10.1167 
        1.97935         69.0424         9.93238 
        1.99499         67.9513         9.75374 
        2.01064         67.6523         9.57931 
         2.0264         66.1745         9.40811 
        2.04216         65.6464         9.24124 
        2.05781         64.9373         9.07954 
        2.07353         64.1734         8.92118 
        2.08928         63.4045         8.76631 
        2.10499         63.1128         8.61559 
        2.12065         62.3653         8.46892 
        2.13633          61.869         8.32559 
        2.15211          61.424         8.18469 
        2.16785         60.3017          8.0475 
        2.18349         59.9142         7.91436 
        2.19916         59.2518           7.784 
        2.21489         58.7865         7.65619 
        2.23063         57.9634          7.5312 
         2.2463         57.5154          7.4096 
        2.26194         56.4135         7.29103 
        2.27765         55.9175         7.17449 
        2.29341         55.4697         7.06023 
        2.30914         54.6764         6.94872 
        2.32486         53.9917         6.83973 
        2.34061         53.5467         6.73292 
        2.35635         53.0587         6.62852 
        2.37203         52.3033         6.52673 
        2.38768          51.913         6.42732 
        2.40339         51.4658         6.32964 
        2.41914         51.1232          6.2338 
        2.43483         50.3588         6.14032 
         2.4505         49.8239         6.04893 
        2.46622         49.4017         5.95911 
        2.48195         48.9098         5.87114 
        2.49759         48.2347         5.78544 
        2.51328         47.5947         5.70125 
        2.52906          47.392         5.61823 
        2.54479         46.6369         5.53719 
        2.56049         46.1203         5.45793 
        2.57618         45.7098         5.38032 
        2.59189         45.1929         5.30411 
        2.60758         44.9363         5.22953 
        2.62325         44.3921         5.15649 
        2.63898           43.95          5.0846 
        2.65468          43.363         5.01426 
        2.67044         42.9102         4.94497 
        2.68618         42.5686         4.87716 
        2.70184         42.1253         4.81092 
        2.71755         41.8677         4.74576 
        2.73329          41.229         4.68172 
        2.74897         40.8144         4.61908 
        2.76462         40.2994         4.55775 
        2.78034         40.0975         4.49729 
        2.79607         39.5703         4.43789 
        2.81179         39.2886         4.37963 
        2.82749         38.8906         4.32251 
        2.84321         38.4421         4.26635 
        2.85893         37.9817         4.21122 
        2.87462         37.5914         4.15717 
        2.89033         37.3399         4.10404 
        2.90605         36.9779          4.0518 
        2.92176         36.7174          4.0005 
        2.93747         36.2518         3.95014 
        2.95318         35.8387         3.90064 
        2.96891         35.5055         3.85198 
        2.98456          35.106         3.80438 
        3.00023         34.7888         3.75752 
        3.01596         34.4503         3.71132 
        3.03164         34.2233         3.66603 
        3.04738         33.9591         3.62138 
         3.0631         33.5213          3.5775 
        3.07883         33.1981         3.53435 
        3.09456          32.874         3.49194 
        3.11026         32.5395         3.45029 
        3.12596         32.3077         3.40933 
        3.14163         31.9056         3.36915 
        3.15734         31.6332         3.32952 
        3.17308         31.2929         3.29045 
        3.18879         31.0074         3.25212 
        3.20447         30.7347         3.21446 
         3.2202         30.4085         3.17729 
         3.2359         30.1101         3.14079 
        3.25157         30.0058         3.10495 
        3.26729         29.7025         3.06957 
        3.28304         29.2647         3.03467 
        3.29877         28.9754         3.00038 
        3.31446         28.7754         2.96669 
        3.33014           28.53         2.93356 
        3.34585          28.296         2.90089 
        3.36158         27.9751         2.86868 
        3.37727         27.7008         2.83706 
        3.39294         27.5089         2.80596 
        3.40867         27.3048         2.77521 
        3.42439         26.9544         2.74495 
        3.44008         26.6993         2.71521 
        3.45578          26.561         2.68589 
        3.47153         26.1775         2.65694 
        3.48724         25.9409         2.62848 
        3.50292          25.762          2.6005 
        3.51859         25.4861         2.57295 
        3.53431         25.3049         2.54572 
        3.55007          25.027         2.51883 
        3.56577         24.8177         2.49243 
        3.58146         24.6779         2.46642 
        3.59719          24.339         2.44074 
        3.61292          24.111         2.41543 
        3.62859         23.8939         2.39058 
        3.64429         23.6912         2.36604 
        3.66003         23.5488         2.34177 
        3.67578          23.277         2.31786 
        3.69146         23.0596         2.29437 
        3.70712         22.8059         2.27126 
        3.72284         22.7692         2.24838 
        3.73853         22.4215         2.22586 
        3.75422         22.2385         2.20365 
        3.76993         22.1052         2.18172 
        3.78564         21.8494         2.16011 
        3.80137         21.6929         2.13875 
        3.81707         21.4738         2.11774 
        3.83279         21.3381         2.09699 
        3.84853         21.0826         2.07649 
        3.86424          20.946         2.05631 
        3.87992         20.7371         2.03643 
        3.89561         20.5548         2.01681 
        3.91134         20.3743         1.99742 
        3.92704         20.2596         1.97831 
        3.94273         20.0368         1.95947 
        3.95845         19.8405         1.94084 
        3.97418         19.7115         1.92246 
        3.98988         19.5083         1.90434 
        4.00554         19.3796         1.88651 
        4.02125         19.1942         1.86885 
        4.03698         19.0593          1.8514 
        4.05268         18.8228         1.83422 
        4.06839         18.6824         1.81724 
         4.0841         18.5692         1.80048 
        4.09983         18.3433         1.78392 
        4.11555         18.2489         1.76757 
        4.13124         18.1115         1.75148 
        4.14693          17.897         1.73557 
        4.16266         17.7675         1.71983 
        4.17839         17.6315          1.7043 
        4.19408         17.4064         1.68899 
        4.20977         17.3326         1.67387 
        4.22551         17.2251          1.6589 
        4.24123         17.0566         1.64413 
        4.25691         16.9232         1.62959 
        4.27259         16.7504         1.61521 
        4.28831         16.5617         1.60099 
        4.30404         16.5016         1.58692 
        4.31974         16.3297         1.57306 
        4.33543         16.2026         1.55937 
        4.35116         16.0946         1.54581 
        4.36688         15.9725         1.53242 
        4.38255         15.8314         1.51924 
        4.39825         15.6807          1.5062 
        4.41398         15.5981         1.49327 
         4.4297         15.4147         1.48052 
        4.44541         15.3171         1.46792 
        4.46111         15.1761         1.45548 
        4.47683         15.0674         1.44317 
        4.49251         14.9794         1.43104 
        4.50819         14.8217         1.41905 
         4.5239         14.7311         1.40718 
        4.53962         14.5703         1.39543 
        4.55535           14.48         1.38382 
        4.57106         14.3631         1.37235 
        4.58678          14.239         1.36101 
         4.6025         14.1205          1.3498 
        4.61821         14.0275         1.33872 
        4.63391         13.9146         1.32778 
         4.6496         13.7979         1.31697 
        4.66532         13.6714         1.30627 
        4.68103         13.5573         1.29568 
        4.69673         13.4715         1.28523 
        4.71241         13.3598         1.27491 
        4.72811         13.2462         1.26468 
        4.74384         13.1703         1.25455 
        4.75955         13.0476         1.24455 
        4.77525         12.9455         1.23467 
        4.79096         12.8712         1.22488 
        4.80669         12.7612          1.2152 
         4.8224         12.6228         1.20563 
        4.83809         12.5541         1.19618 
        4.85379         12.4679         1.18683 
         4.8695         12.3649         1.17756 
        4.88521         12.2679         1.16841 
        4.90093         12.1827         1.15935 
        4.91663         12.0947         1.15039 
        4.93234         11.9956         1.14152 
        4.94807         11.9163         1.13274 
        4.96377         11.7928         1.12407 
        4.97943         11.7003         1.11551 
        4.99514         11.6348         1.10702 
        5.01086         11.5735         1.09861 
        5.02654         11.4965         1.09031 
        5.04227         11.3747         1.08208 
          5.058         11.2768         1.07392 
        5.07371         11.2204         1.06587 
        5.08942          11.117          1.0579 
        5.10513         11.0548         1.05001 
        5.12084         10.9492          1.0422 
        5.13656         10.8963         1.03447 
        5.15225         10.7914         1.02683 
        5.16796          10.717         1.01926 
        5.18369         10.6499         1.01176 
         5.1994         10.5475         1.00435 
        5.21509         10.4801        0.997021 
        5.23079         10.4208        0.989758 
        5.24649         10.3431        0.982574 
        5.26217         10.2603        0.975466 
        5.27788         10.1745         0.96842 
        5.29359         10.1109        0.961443 
        5.30933         10.0109        0.954526 
        5.32504         9.97733        0.947689 
        5.34073         9.91468        0.940927 
        5.35646         9.81726        0.934219 
        5.37218         9.75605        0.927576 
        5.38789          9.6911        0.921008 
        5.40357         9.62605        0.914513 
        5.41929         9.55795        0.908067 
        5.43502         9.46072        0.901683 
         5.4507         9.40733        0.895376 
        5.46639         9.34928        0.889129 
        5.48212         9.27415        0.882928 
        5.49786         9.23308         0.87678 
        5.51353         9.15554        0.870721 
        5.52921         9.09107        0.864714 
        5.54495         9.02267        0.858747 
        5.56066         8.95315        0.852844 
        5.57637         8.89004        0.846997 
        5.59207         8.85341        0.841212 
        5.60778         8.77962        0.835478 
        5.62346         8.71116        0.829807 
        5.63916         8.66284        0.824184 
        5.65487         8.59979         0.81861 
         5.6706         8.52515        0.813082 
        5.68633         8.45777        0.807604 
        5.70203          8.4309        0.802188 
        5.71773          8.3472        0.796824 
        5.73344         8.29717        0.791506 
        5.74916         8.24774        0.786232 
        5.76486         8.20509        0.781015 
        5.78054          8.1331        0.775853 
        5.79626         8.06064        0.770724 
          5.812         8.01336        0.765637 
         5.8277          7.9638        0.760611 
        5.84339         7.90666        0.755631 
        5.85911         7.85642        0.750686 
        5.87484         7.81615        0.745788 
        5.89053         7.77227        0.740943 
        5.90623         7.69901        0.736139 
        5.92195         7.65121         0.73137 
        5.93767         7.60283        0.726647 
        5.95336         7.55107        0.721974 
        5.96905         7.49819        0.717344 
        5.98476         7.45033        0.712748 
        6.00048         7.40758        0.708192 
        6.01617          7.3558        0.703682 
        6.03185         7.29673        0.699218 
        6.04756         7.25907        0.694782 
        6.06331         7.19248        0.690375 
        6.07903         7.15346        0.686017 
        6.09473         7.11355          0.6817 
        6.11044         7.07014        0.677418 
        6.12616         7.02995        0.673173 
        6.14186         6.97477        0.668969 
        6.15755         6.92905        0.664802 
        6.17326         6.88927        0.660668 
        6.18898         6.83066        0.656567 
        6.20467          6.7848        0.652509 
        6.22036         6.74079        0.648485 
         6.2361         6.69782        0.644486 
         6.2518         6.66397        0.640527 
        6.26748         6.62576         0.63661 
        6.28319         6.56979        0.632716 
        6.29893         6.52711        0.628851 
        6.31463         6.49719        0.625026 
        6.33033         6.44909        0.621234 
        6.34604         6.41429        0.617471 
        6.36177         6.37695        0.613736 
        6.37747         6.32693        0.610039 
