# k  (h/Mpc)    Pcb(k)  (Mpc/h)^3    Pcb_linear(k) (Mpc/h)^3   ShotnoiseSubtracted = true
      0.0200456         14175.9         14390.2 
      0.0350414         9710.03         9385.16 
      0.0492313         6304.78          6339.2 
      0.0637834          5061.1         5221.12 
      0.0800726          3971.5         4149.36 
       0.096163         3011.53         2864.28 
       0.111083         2360.23         2195.98 
       0.126058         1977.79         1970.46 
       0.142273         1722.35         1692.54 
       0.158546         1384.48         1298.06 
        0.17375         1187.67         1060.47 
       0.188953         1105.68         965.774 
       0.204907         946.677         868.569 
       0.220756         844.327         726.264 
        0.23588         742.222         617.126 
         0.2514          660.48         558.775 
       0.267535         641.143         511.506 
       0.283568         558.312          450.12 
       0.299022         529.368         395.344 
       0.314451         534.443         358.945 
       0.330372         457.097         330.946 
       0.346141         421.875         300.829 
       0.361624         401.469         271.498 
       0.377134         375.148         248.241 
       0.392932         361.364         229.774 
       0.408854         344.094         212.122 
       0.424564         331.604          194.96 
       0.440253          299.37          179.95 
       0.455999         284.895         167.399 
       0.471626         285.713         156.167 
        0.48727         269.741         145.419 
       0.502856         247.702         135.592 
       0.518488          247.71         126.933 
       0.534347           230.4         119.036 
       0.550082         222.416         111.744 
       0.565732         221.169          104.99 
       0.581496         208.553         98.8142 
       0.597222         202.589         93.2072 
       0.612804         195.896         88.0713 
       0.628434         189.651         83.2678 
       0.644267         180.493         78.7635 
       0.660051         177.595         74.6315 
       0.675724         174.042         70.8277 
       0.691403         170.056         67.2846 
       0.707174         163.555         63.9626 
       0.722871         160.587          60.877 
        0.73838           158.7         58.0271 
       0.754018         150.265         55.3374 
       0.769845         150.131         52.7886 
        0.78569         145.409         50.3977 
       0.801365          140.63         48.1784 
       0.817031         137.988         46.0945 
       0.832809         135.113         44.1213 
       0.848511         131.596          42.273 
       0.864097         128.647         40.5438 
       0.879701         127.409         38.9103 
       0.895507         124.128         37.3479 
       0.911279         120.363          35.875 
        0.92691         118.062         34.4941 
       0.942635         115.911         33.1785 
       0.958396         114.218         31.9291 
       0.974128         111.918         30.7466 
       0.989692         108.488         29.6359 
        1.00528         107.626         28.5786 
        1.02113          104.78         27.5564 
        1.03692         103.639         26.5883 
        1.05264         102.184         25.6712 
        1.06832         100.007         24.7989 
        1.08405         98.1115          23.965 
        1.09979         97.3337          23.169 
        1.11537         94.9397         22.4172 
        1.13105         93.6107         21.6943 
        1.14679         92.0769         21.0006 
        1.16256         90.1865          20.336 
        1.17828         89.3066         19.7025 
        1.19395          87.357         19.0981 
         1.2097         86.2405         18.5161 
        1.22537         84.8537         17.9612 
          1.241         83.7884         17.4308 
        1.25666         81.7053         16.9205 
        1.27241         80.3923         16.4284 
        1.28819         79.7643          15.955 
        1.30392         78.5501         15.5017 
        1.31957         77.3191         15.0681 
        1.33529         76.0647         14.6496 
        1.35108         75.5143         14.2453 
        1.36674         74.1173         13.8592 
         1.3824         73.5883         13.4878 
        1.39811          71.972         13.1289 
        1.41389         70.9164         12.7816 
        1.42964         69.6275         12.4475 
        1.44531         69.2103         12.1271 
        1.46101         68.2833         11.8172 
        1.47667         67.4545         11.5191 
        1.49229         66.6198         11.2322 
        1.50793          65.522         10.9547 
        1.52367         64.9015         10.6848 
        1.53953         64.2177         10.4222 
        1.55526         62.8427         10.1705 
        1.57092         62.5142         9.92825 
        1.58662          61.719          9.6933 
        1.60235         60.9074         9.46551 
        1.61809          59.772         9.24493 
        1.63369         59.1642         9.03335 
        1.64941         58.8687          8.8269 
        1.66519          57.542         8.62616 
        1.68085         56.6945         8.43311 
        1.69652          55.938         8.24591 
        1.71228         55.2114         8.06335 
        1.72806          55.064         7.88617 
        1.74368         53.9523         7.71611 
        1.75933          53.506         7.55073 
        1.77505         52.9661         7.38942 
        1.79081         52.0728         7.23256 
         1.8065           51.67         7.08092 
        1.82218         50.7513         6.93377 
        1.83797         50.1421          6.7898 
        1.85367         49.5731         6.65071 
        1.86928         48.9977         6.51637 
        1.88497         48.4674           6.385 
        1.90073         47.7545         6.25678 
        1.91647         47.4438          6.1322 
        1.93218         46.7456         6.01128 
        1.94787         46.1558          5.8938 
        1.96363         45.5739         5.77899 
        1.97935         45.0776         5.66749 
        1.99499         44.5391         5.55956 
        2.01064          44.003         5.45429 
         2.0264         43.6221         5.35108 
        2.04216         42.9758          5.2506 
        2.05781         42.4037         5.15334 
        2.07353          41.919         5.05819 
        2.08928         41.5691         4.96524 
        2.10499         41.0125         4.87488 
        2.12065         40.6301         4.78704 
        2.13633         40.2333         4.70129 
        2.15211         39.7478         4.61709 
        2.16785         39.0251         4.53519 
        2.18349         38.6364         4.45579 
        2.19916         38.2965         4.37813 
        2.21489          38.004         4.30206 
        2.23063         37.5283         4.22775 
         2.2463         37.0512         4.15553 
        2.26194         36.7973         4.08518 
        2.27765         36.2644         4.01609 
        2.29341         35.7571         3.94843 
        2.30914         35.2857         3.88246 
        2.32486         35.0066         3.81804 
        2.34061         34.6426         3.75498 
        2.35635         34.2094         3.69339 
        2.37203         33.6652         3.63341 
        2.38768         33.6074         3.57487 
        2.40339         33.1518         3.51742 
        2.41914         32.8715          3.4611 
        2.43483         32.3543         3.40621 
         2.4505         32.2168          3.3526 
        2.46622         31.7845         3.29996 
        2.48195         31.4019         3.24845 
        2.49759         31.0652         3.19831 
        2.51328         30.7844         3.14911 
        2.52906         30.5162         3.10062 
        2.54479         30.3078         3.05334 
        2.56049         29.6896         3.00714 
        2.57618         29.4858         2.96193 
        2.59189         29.2571         2.91758 
        2.60758         28.7413         2.87422 
        2.62325         28.7714         2.83178 
        2.63898         28.3227         2.79006 
        2.65468         27.9398         2.74926 
        2.67044         27.8566         2.70911 
        2.68618         27.5013         2.66985 
        2.70184         27.1145         2.63152 
        2.71755         26.8807         2.59385 
        2.73329         26.5975         2.55686 
        2.74897         26.3374         2.52072 
        2.76462         25.9969         2.48535 
        2.78034         25.8467         2.45051 
        2.79607         25.5373         2.41631 
        2.81179         25.2487          2.3828 
        2.82749         25.0886         2.34996 
        2.84321         24.7413          2.3177 
        2.85893         24.5097         2.28606 
        2.87462         24.2729         2.25506 
        2.89033         24.0322         2.22461 
        2.90605         23.7882          2.1947 
        2.92176         23.6685         2.16535 
        2.93747         23.3976         2.13655 
        2.95318         23.1956         2.10827 
        2.96891         22.9007         2.08049 
        2.98456         22.7498         2.05333 
        3.00023         22.4975         2.02662 
        3.01596         22.2033          2.0003 
        3.03164         21.9728         1.97452 
        3.04738         21.8104         1.94912 
         3.0631         21.6267         1.92418 
        3.07883         21.3333         1.89967 
        3.09456         21.1292         1.87559 
        3.11026         20.8826         1.85197 
        3.12596         20.7291         1.82875 
        3.14163         20.5257         1.80599 
        3.15734          20.351         1.78356 
        3.17308         20.0823         1.76146 
        3.18879         19.9714         1.73979 
        3.20447         19.7889         1.71852 
         3.2202         19.5408         1.69754 
         3.2359          19.323         1.67695 
        3.25157         19.1787         1.65674 
        3.26729         19.0934         1.63681 
        3.28304         18.7716         1.61717 
        3.29877         18.6584         1.59787 
        3.31446         18.5009         1.57894 
        3.33014         18.2568         1.56032 
        3.34585         18.1173         1.54198 
        3.36158         17.9426          1.5239 
        3.37727         17.7544         1.50617 
        3.39294         17.6376         1.48874 
        3.40867         17.4399         1.47152 
        3.42439          17.304         1.45459 
        3.44008          17.102         1.43795 
        3.45578          16.969         1.42156 
        3.47153         16.8212         1.40539 
        3.48724         16.6651          1.3895 
        3.50292         16.5156         1.37389 
        3.51859         16.3637         1.35853 
        3.53431         16.1932         1.34336 
        3.55007         16.0627         1.32838 
        3.56577         15.8827         1.31369 
        3.58146         15.7441         1.29922 
        3.59719          15.607         1.28495 
        3.61292         15.5066         1.27089 
        3.62859         15.2803         1.25709 
        3.64429          15.112         1.24347 
        3.66003         15.0966         1.23001 
        3.67578         14.8987         1.21676 
        3.69146         14.8226         1.20375 
        3.70712         14.6367         1.19096 
        3.72284         14.4732          1.1783 
        3.73853         14.3953         1.16585 
        3.75422          14.238         1.15357 
        3.76993         14.1035         1.14146 
        3.78564         14.0018         1.12953 
        3.80137         13.8819         1.11775 
        3.81707          13.731         1.10617 
        3.83279         13.6341         1.09473 
        3.84853          13.442         1.08344 
        3.86424         13.3809         1.07234 
        3.87992         13.2912          1.0614 
        3.89561         13.1175         1.05062 
        3.91134           13.08         1.03996 
        3.92704         12.9638         1.02946 
        3.94273         12.7998         1.01912 
        3.95845         12.7207          1.0089 
        3.97418         12.5872        0.998825 
        3.98988         12.4806        0.988896 
        4.00554         12.3741        0.979129 
        4.02125         12.2393        0.969466 
        4.03698         12.1354        0.959918 
        4.05268         12.0323         0.95052 
        4.06839         11.9118        0.941241 
         4.0841         11.8391        0.932089 
        4.09983          11.737        0.923046 
        4.11555         11.6246        0.914126 
        4.13124         11.5317        0.905349 
        4.14693         11.4763        0.896679 
        4.16266         11.3718        0.888103 
        4.17839         11.2435        0.879644 
        4.19408         11.1339        0.871314 
        4.20977         11.0634        0.863088 
        4.22551         10.9693        0.854949 
        4.24123         10.8384        0.846923 
        4.25691          10.753        0.839022 
        4.27259         10.6908        0.831219 
        4.28831         10.6365          0.8235 
        4.30404         10.5044        0.815871 
        4.31974         10.4395        0.808356 
        4.33543         10.3278        0.800939 
        4.35116         10.2422        0.793598 
        4.36688         10.1281        0.786351 
        4.38255         10.0826        0.779222 
        4.39825         10.0004        0.772165 
        4.41398         9.89788        0.765182 
         4.4297         9.82802        0.758293 
        4.44541         9.73215        0.751489 
        4.46111         9.66728        0.744774 
        4.47683         9.56722        0.738137 
        4.49251          9.4868        0.731594 
        4.50819         9.39903        0.725131 
         4.5239         9.33548        0.718738 
        4.53962         9.26663        0.712413 
        4.55535         9.19073        0.706162 
        4.57106         9.13074        0.699994 
        4.58678         9.04092        0.693899 
         4.6025         8.96294        0.687875 
        4.61821         8.88569        0.681923 
        4.63391         8.82418        0.676049 
         4.6496         8.74079        0.670247 
        4.66532         8.69698        0.664504 
        4.68103         8.60238        0.658831 
        4.69673         8.55323        0.653229 
        4.71241         8.46772        0.647698 
        4.72811         8.41149        0.642222 
        4.74384         8.34444        0.636802 
        4.75955         8.25864        0.631453 
        4.77525         8.22133        0.626169 
        4.79096         8.15802        0.620938 
        4.80669         8.09288        0.615764 
         4.8224         8.02099        0.610656 
        4.83809          7.9686         0.60561 
        4.85379         7.88857        0.600619 
         4.8695         7.82713        0.595679 
        4.88521         7.75815        0.590797 
        4.90093         7.72171         0.58597 
        4.91663         7.63106          0.5812 
        4.93234         7.60917        0.576478 
        4.94807         7.52389        0.571806 
        4.96377         7.46681        0.567194 
        4.97943         7.41386        0.562643 
        4.99514         7.35767         0.55813 
        5.01086         7.29613        0.553663 
        5.02654         7.24724        0.549256 
        5.04227         7.18317        0.544884 
          5.058         7.13808        0.540558 
        5.07371         7.07693        0.536287 
        5.08942          7.0267        0.532061 
        5.10513         6.98907        0.527881 
        5.12084         6.93163        0.523743 
        5.13656         6.87464        0.519651 
        5.15225         6.81535        0.515609 
        5.16796         6.76817        0.511604 
        5.18369         6.71467        0.507637 
         5.1994         6.68074         0.50372 
        5.21509         6.62054        0.499848 
        5.23079         6.55979        0.496011 
        5.24649         6.53227        0.492218 
        5.26217         6.47516        0.488467 
        5.27788         6.42964         0.48475 
        5.29359         6.38299        0.481071 
        5.30933         6.34368        0.477425 
        5.32504         6.29711        0.473823 
        5.34073          6.2372        0.470261 
        5.35646         6.19145         0.46673 
        5.37218         6.16062        0.463233 
        5.38789         6.11894        0.459779 
        5.40357         6.06393        0.456363 
        5.41929         6.02134        0.452974 
        5.43502         5.98019         0.44962 
         5.4507         5.93946        0.446307 
        5.46639         5.88795        0.443027 
        5.48212         5.84704        0.439773 
        5.49786         5.80354        0.436547 
        5.51353         5.76665         0.43337 
        5.52921         5.73297        0.430221 
        5.54495         5.70673        0.427094 
        5.56066         5.63223        0.424002 
        5.57637         5.61198         0.42094 
        5.59207         5.57593        0.417912 
        5.60778         5.52451        0.414912 
        5.62346         5.49192        0.411945 
        5.63916         5.45432        0.409005 
        5.65487         5.42544        0.406092 
         5.6706         5.37452        0.403204 
        5.68633         5.35317        0.400343 
        5.70203         5.30716        0.397516 
        5.71773         5.28265        0.394716 
        5.73344         5.23073        0.391942 
        5.74916         5.18497        0.389192 
        5.76486         5.15316        0.386472 
        5.78054         5.12656        0.383782 
        5.79626         5.09463         0.38111 
          5.812           5.051        0.378461 
         5.8277         5.01798        0.375845 
        5.84339         4.98919        0.373253 
        5.85911         4.94668        0.370681 
        5.87484         4.92161        0.368134 
        5.89053         4.88861        0.365616 
        5.90623         4.85473         0.36312 
        5.92195         4.82851        0.360643 
        5.93767         4.78358         0.35819 
        5.95336         4.75814        0.355764 
        5.96905         4.72899        0.353362 
        5.98476         4.69787        0.350978 
        6.00048         4.65803        0.348616 
        6.01617         4.63769        0.346279 
        6.03185          4.6021        0.343965 
        6.04756         4.57151        0.341668 
        6.06331         4.54765        0.339386 
        6.07903         4.50772         0.33713 
        6.09473         4.48276        0.334897 
        6.11044         4.46149        0.332681 
        6.12616         4.42525        0.330486 
        6.14186         4.40289        0.328314 
        6.15755         4.36908         0.32616 
        6.17326         4.34204        0.324025 
        6.18898         4.31695        0.321907 
        6.20467          4.2838        0.319812 
        6.22036         4.25831        0.317736 
         6.2361         4.23847        0.315673 
         6.2518         4.20614        0.313632 
        6.26748         4.18044        0.311613 
        6.28319         4.15092        0.309606 
        6.29893         4.12831        0.307615 
        6.31463         4.10252        0.305645 
        6.33033         4.08168        0.303693 
        6.34604         4.04683        0.301756 
        6.36177         4.03018        0.299835 
        6.37747         3.99189        0.297934 
