# k  (h/Mpc)    Pcb(k)  (Mpc/h)^3    Pcb_linear(k) (Mpc/h)^3   ShotnoiseSubtracted = true
      0.0200456         20056.3         20386.9 
      0.0350414         13806.3         13296.1 
      0.0492313         8886.34         8980.87 
      0.0637834         7121.92         7396.87 
      0.0800726         5577.21         5878.48 
       0.096163         4296.16         4057.88 
       0.111083         3376.59         3111.09 
       0.126058         2812.38          2791.6 
       0.142273         2467.15         2397.85 
       0.158546         1985.96         1838.99 
        0.17375         1727.59         1502.39 
       0.188953          1626.9         1368.23 
       0.204907         1394.18         1230.52 
       0.220756         1251.39         1028.91 
        0.23588         1104.98         874.295 
         0.2514         988.313         791.628 
       0.267535         957.558         724.661 
       0.283568         841.984         637.694 
       0.299022         799.112         560.092 
       0.314451          824.45         508.525 
       0.330372         711.052         468.858 
       0.346141         653.234          426.19 
       0.361624         624.239         384.637 
       0.377134          593.44         351.688 
       0.392932         565.675         325.525 
       0.408854         541.049         300.518 
       0.424564         525.043         276.204 
       0.440253         479.096         254.939 
       0.455999         456.867         237.157 
       0.471626         464.717         221.246 
        0.48727         436.244         206.019 
       0.502856         410.472         192.096 
       0.518488         402.974         179.829 
       0.534347          381.35         168.641 
       0.550082          363.29          158.31 
       0.565732         360.012         148.742 
       0.581496         348.556         139.992 
       0.597222         338.643         132.049 
       0.612804          328.82         124.772 
       0.628434          316.36         117.967 
       0.644267         304.094         111.586 
       0.660051         300.453         105.732 
       0.675724         292.879         100.343 
       0.691403         287.112         95.3234 
       0.707174         275.734         90.6171 
       0.722871         271.546         86.2457 
        0.73838         266.259         82.2082 
       0.754018         256.704         78.3977 
       0.769845         255.776         74.7867 
        0.78569         248.193         71.3995 
       0.801365          240.17         68.2553 
       0.817031         238.639         65.3031 
       0.832809         232.807         62.5075 
       0.848511         227.719          59.889 
       0.864097         220.759         57.4393 
       0.879701         220.179          55.125 
       0.895507         214.073         52.9115 
       0.911279         208.824         50.8248 
        0.92691         205.917         48.8685 
       0.942635         203.488         47.0047 
       0.958396         198.109         45.2347 
       0.974128         195.749         43.5594 
       0.989692         188.407         41.9857 
        1.00528         188.021         40.4878 
        1.02113         185.254         39.0398 
        1.03692         180.756         37.6681 
        1.05264         177.145         36.3689 
        1.06832         176.458         35.1331 
        1.08405         171.774         33.9517 
        1.09979         169.783          32.824 
        1.11537         167.464         31.7589 
        1.13105         163.619         30.7348 
        1.14679         162.273          29.752 
        1.16256          159.07         28.8105 
        1.17828         157.287         27.9129 
        1.19395         153.341         27.0566 
         1.2097         152.513         26.2321 
        1.22537         150.885          25.446 
          1.241         146.029         24.6945 
        1.25666         145.443         23.9717 
        1.27241         142.354         23.2744 
        1.28819          140.65         22.6038 
        1.30392         138.971         21.9616 
        1.31957         135.507         21.3474 
        1.33529         133.172         20.7544 
        1.35108         132.404         20.1816 
        1.36674         129.357         19.6347 
         1.3824         128.418         19.1085 
        1.39811         126.705         18.5999 
        1.41389         123.619          18.108 
        1.42964         121.865         17.6347 
        1.44531         121.062         17.1807 
        1.46101         118.422         16.7417 
        1.47667         117.874         16.3194 
        1.49229         116.238         15.9129 
        1.50793         113.733         15.5197 
        1.52367          112.17         15.1374 
        1.53953         110.208         14.7653 
        1.55526         109.444         14.4088 
        1.57092         108.354         14.0656 
        1.58662         106.119         13.7327 
        1.60235          104.81           13.41 
        1.61809         103.508         13.0975 
        1.63369         101.611         12.7977 
        1.64941         101.177         12.5053 
        1.66519         99.3812         12.2209 
        1.68085         97.4896         11.9474 
        1.69652         96.6495         11.6822 
        1.71228         95.1739         11.4235 
        1.72806         94.6702         11.1725 
        1.74368          93.247         10.9316 
        1.75933          92.093         10.6973 
        1.77505         90.8239         10.4687 
        1.79081         89.2706         10.2465 
         1.8065         87.7139         10.0317 
        1.82218         86.8116         9.82321 
        1.83797         86.3533         9.61925 
        1.85367         84.8959         9.42221 
        1.86928         84.3179         9.23187 
        1.88497          82.526         9.04577 
        1.90073         81.9112         8.86411 
        1.91647         80.5514         8.68761 
        1.93218         79.6801          8.5163 
        1.94787          78.253         8.34986 
        1.96363         77.6623         8.18722 
        1.97935         76.8578         8.02925 
        1.99499         76.2065         7.87634 
        2.01064         74.5729          7.7272 
         2.0264         73.8184         7.58099 
        2.04216         72.6814         7.43864 
        2.05781         71.7522         7.30084 
        2.07353         71.1491         7.16605 
        2.08928         70.1964         7.03437 
        2.10499         69.3037         6.90635 
        2.12065         68.6112          6.7819 
        2.13633         67.6129         6.66042 
        2.15211         66.5689         6.54113 
        2.16785         65.6009          6.4251 
        2.18349         64.7983         6.31262 
        2.19916         64.2064         6.20259 
        2.21489         63.4215         6.09482 
        2.23063         62.3533         5.98954 
         2.2463         61.7715         5.88722 
        2.26194         61.3473         5.78755 
        2.27765         60.2053         5.68968 
        2.29341         59.5775         5.59382 
        2.30914         58.8462         5.50037 
        2.32486         58.1933          5.4091 
        2.34061         57.1926         5.31975 
        2.35635         56.7454         5.23251 
        2.37203         55.8297         5.14752 
        2.38768         55.4535          5.0646 
        2.40339         54.7689          4.9832 
        2.41914         53.7974         4.90341 
        2.43483         53.5695         4.82564 
         2.4505         52.8296          4.7497 
        2.46622         52.3297         4.67512 
        2.48195         51.6225         4.60215 
        2.49759         51.0905         4.53112 
        2.51328         50.3387          4.4614 
        2.52906         49.8709         4.39272 
        2.54479         49.4008         4.32573 
        2.56049         48.5211         4.26027 
        2.57618         48.1203         4.19623 
        2.59189         47.5176          4.1334 
        2.60758          46.868         4.07196 
        2.62325         46.5124         4.01184 
        2.63898          46.058         3.95273 
        2.65468         45.5045         3.89493 
        2.67044         45.0329         3.83805 
        2.68618         44.5692         3.78242 
        2.70184         44.0727         3.72813 
        2.71755         43.3275         3.67476 
        2.73329          42.882         3.62236 
        2.74897         42.4708         3.57115 
        2.76462         42.0898         3.52104 
        2.78034         41.7075         3.47169 
        2.79607         41.1447         3.42323 
        2.81179         40.6293         3.37576 
        2.82749         40.2431         3.32923 
        2.84321         39.8594         3.28353 
        2.85893         39.3279         3.23871 
        2.87462         38.9991         3.19479 
        2.89033         38.3442         3.15165 
        2.90605         37.9004         3.10927 
        2.92176         37.7925         3.06769 
        2.93747         37.3124         3.02689 
        2.95318         36.8455         2.98683 
        2.96891          36.421         2.94747 
        2.98456         36.1113         2.90899 
        3.00023          35.619         2.87115 
        3.01596         35.0596         2.83386 
        3.03164         34.8182         2.79734 
        3.04738         34.4791         2.76136 
         3.0631          34.249         2.72602 
        3.07883         33.8305          2.6913 
        3.09456         33.4086         2.65719 
        3.11026         33.1185         2.62372 
        3.12596         32.7688         2.59083 
        3.14163         32.3748         2.55858 
        3.15734          32.076         2.52681 
        3.17308           31.77          2.4955 
        3.18879         31.4471          2.4648 
        3.20447         30.9988         2.43466 
         3.2202         30.7629         2.40494 
         3.2359         30.4712         2.37576 
        3.25157         30.1241         2.34714 
        3.26729         29.8916          2.3189 
        3.28304         29.5431         2.29108 
        3.29877         29.1532         2.26374 
        3.31446         28.8973         2.23691 
        3.33014          28.576         2.21054 
        3.34585         28.2473         2.18455 
        3.36158          28.045         2.15894 
        3.37727         27.7029         2.13383 
        3.39294          27.442         2.10913 
        3.40867         27.1823         2.08474 
        3.42439         26.9447         2.06074 
        3.44008         26.6428         2.03717 
        3.45578         26.4033         2.01395 
        3.47153         26.1598         1.99105 
        3.48724         25.8441         1.96853 
        3.50292         25.6862         1.94642 
        3.51859         25.3669         1.92466 
        3.53431         25.1357         1.90316 
        3.55007         24.8723         1.88194 
        3.56577         24.6268         1.86113 
        3.58146          24.369         1.84064 
        3.59719         24.1712         1.82041 
        3.61292         23.9065         1.80049 
        3.62859         23.6456         1.78095 
        3.64429         23.4529         1.76165 
        3.66003         23.2358         1.74259 
        3.67578         22.9658         1.72381 
        3.69146         22.7532         1.70538 
        3.70712         22.5615         1.68725 
        3.72284         22.3804         1.66932 
        3.73853         22.2048         1.65168 
        3.75422         21.9179         1.63429 
        3.76993         21.7317         1.61714 
        3.78564         21.5574         1.60023 
        3.80137         21.3353         1.58355 
        3.81707         21.1579         1.56713 
        3.83279         20.9305         1.55093 
        3.84853         20.6732         1.53494 
        3.86424          20.504          1.5192 
        3.87992          20.347         1.50371 
        3.89561         20.1181         1.48843 
        3.91134         19.8967         1.47333 
        3.92704         19.7255         1.45846 
        3.94273         19.5785         1.44381 
        3.95845         19.4286         1.42934 
        3.97418         19.2217         1.41506 
        3.98988         18.9693         1.40099 
        4.00554         18.8172         1.38715 
        4.02125         18.7055         1.37346 
        4.03698         18.4711         1.35994 
        4.05268         18.3339         1.34662 
        4.06839         18.1424         1.33348 
         4.0841         17.9628         1.32051 
        4.09983         17.8166          1.3077 
        4.11555         17.6616         1.29506 
        4.13124         17.5796         1.28263 
        4.14693         17.3424         1.27034 
        4.16266         17.2277         1.25819 
        4.17839         17.0999         1.24621 
        4.19408         16.9153         1.23441 
        4.20977         16.7586         1.22276 
        4.22551         16.6207         1.21122 
        4.24123         16.4932         1.19985 
        4.25691          16.359         1.18866 
        4.27259         16.1731         1.17761 
        4.28831         16.0838         1.16667 
        4.30404         15.9436         1.15586 
        4.31974         15.7979         1.14521 
        4.33543          15.607         1.13471 
        4.35116         15.5286         1.12431 
        4.36688         15.3464         1.11404 
        4.38255         15.2338         1.10394 
        4.39825         15.1005         1.09394 
        4.41398         15.0105         1.08405 
         4.4297         14.8341         1.07429 
        4.44541         14.7539         1.06465 
        4.46111         14.5534         1.05514 
        4.47683         14.4803         1.04573 
        4.49251         14.3508         1.03646 
        4.50819         14.2018         1.02731 
         4.5239         14.1352         1.01825 
        4.53962         13.9694         1.00929 
        4.55535         13.8854         1.00043 
        4.57106         13.7816        0.991696 
        4.58678         13.6172        0.983061 
         4.6025         13.5233        0.974526 
        4.61821         13.4122        0.966094 
        4.63391         13.3092        0.957773 
         4.6496         13.1789        0.949553 
        4.66532         13.0487        0.941417 
        4.68103         12.9858         0.93338 
        4.69673         12.8689        0.925443 
        4.71241         12.7553        0.917608 
        4.72811         12.6762        0.909849 
        4.74384         12.5587        0.902171 
        4.75955         12.4415        0.894593 
        4.77525         12.3471        0.887106 
        4.79096         12.2361        0.879695 
        4.80669         12.1523        0.872366 
         4.8224         12.0424        0.865128 
        4.83809         11.9414         0.85798 
        4.85379         11.8501        0.850909 
         4.8695         11.7624        0.843911 
        4.88521         11.6678        0.836995 
        4.90093           11.58        0.830155 
        4.91663         11.4716        0.823398 
        4.93234         11.3889        0.816709 
        4.94807         11.3196         0.81009 
        4.96377         11.2156        0.803556 
        4.97943         11.1148        0.797108 
        4.99514         11.0294        0.790714 
        5.01086         10.9494        0.784386 
        5.02654         10.8797        0.778142 
        5.04227         10.7742        0.771948 
          5.058         10.7051        0.765819 
        5.07371         10.6237        0.759769 
        5.08942         10.5534        0.753782 
        5.10513         10.4463         0.74786 
        5.12084         10.3777        0.741998 
        5.13656         10.2868          0.7362 
        5.15225         10.2174        0.730474 
        5.16796         10.1503          0.7248 
        5.18369         10.0437         0.71918 
         5.1994         9.99379        0.713631 
        5.21509         9.90787        0.708144 
        5.23079          9.8228         0.70271 
        5.24649         9.75381        0.697336 
        5.26217         9.68139        0.692022 
        5.27788         9.62093        0.686756 
        5.29359         9.53829        0.681544 
        5.30933         9.45749        0.676378 
        5.32504         9.40875        0.671275 
        5.34073         9.32544        0.666229 
        5.35646         9.26355        0.661226 
        5.37218         9.19092        0.656272 
        5.38789         9.13471        0.651378 
        5.40357         9.04642        0.646539 
        5.41929         8.99572        0.641738 
        5.43502         8.92196        0.636986 
         5.4507         8.84619        0.632293 
        5.46639         8.78755        0.627646 
        5.48212         8.72131        0.623036 
        5.49786         8.65043        0.618466 
        5.51353         8.60929        0.613964 
        5.52921         8.53844        0.609503 
        5.54495         8.48106        0.605073 
        5.56066         8.41142        0.600692 
        5.57637         8.34925        0.596355 
        5.59207           8.291        0.592064 
        5.60778         8.23776        0.587814 
        5.62346           8.176        0.583612 
        5.63916         8.12163        0.579446 
        5.65487         8.07225        0.575319 
         5.6706         7.99528        0.571228 
        5.68633          7.9338        0.567174 
        5.70203         7.87809        0.563169 
        5.71773         7.83097        0.559202 
        5.73344         7.78056        0.555272 
        5.74916         7.72042        0.551376 
        5.76486         7.66839        0.547523 
        5.78054           7.607        0.543712 
        5.79626         7.56373        0.539927 
          5.812         7.50362        0.536174 
         5.8277         7.43027        0.532467 
        5.84339         7.39436        0.528796 
        5.85911         7.34432        0.525152 
        5.87484         7.31021        0.521543 
        5.89053          7.2601        0.517975 
        5.90623         7.19463        0.514439 
        5.92195         7.14195         0.51093 
        5.93767         7.09781        0.507456 
        5.95336          7.0413        0.504019 
        5.96905         6.98347        0.500615 
        5.98476         6.95973        0.497239 
        6.00048         6.90561        0.493892 
        6.01617         6.86536         0.49058 
        6.03185         6.80556        0.487303 
        6.04756         6.75779        0.484048 
        6.06331         6.71809        0.480815 
        6.07903          6.6801        0.477619 
        6.09473         6.62032        0.474455 
        6.11044         6.57259        0.471317 
        6.12616         6.54223        0.468207 
        6.14186         6.50441        0.465129 
        6.15755         6.45699        0.462078 
        6.17326         6.39937        0.459053 
        6.18898         6.37289        0.456053 
        6.20467         6.31785        0.453085 
        6.22036         6.29498        0.450144 
         6.2361         6.24476        0.447221 
         6.2518         6.21015        0.444329 
        6.26748         6.16357        0.441468 
        6.28319         6.12998        0.438625 
        6.29893          6.0782        0.435805 
        6.31463         6.03025        0.433014 
        6.33033         5.99662        0.430248 
        6.34604         5.96627        0.427504 
        6.36177         5.92355        0.424782 
        6.37747          5.8937        0.422089 
