# k  (h/Mpc)    Pcb(k)  (Mpc/h)^3    Pcb_linear(k) (Mpc/h)^3   ShotnoiseSubtracted = true
      0.0200456         2054.67         2083.64 
      0.0350414         1351.81         1358.93 
      0.0492313         922.706         917.891 
      0.0637834         766.813         755.998 
      0.0800726         606.087         600.811 
       0.096163         413.397         414.736 
       0.111083         316.509         317.969 
       0.126058          287.63         285.316 
       0.142273         248.495         245.073 
       0.158546         193.101         187.954 
        0.17375         154.714         153.552 
       0.188953         143.376          139.84 
       0.204907         132.777         125.765 
       0.220756         109.582          105.16 
        0.23588         93.5868         89.3574 
         0.2514         83.4383         80.9084 
       0.267535         77.2049          74.064 
       0.283568         68.6466         65.1756 
       0.299022         61.4017         57.2442 
       0.314451         54.5925         51.9739 
       0.330372         50.8523         47.9196 
       0.346141         46.1025         43.5588 
       0.361624         42.3201         39.3119 
       0.377134         39.4199         35.9443 
       0.392932         34.9763         33.2703 
       0.408854         33.5759         30.7145 
       0.424564         31.2083         28.2294 
       0.440253         28.6897          26.056 
       0.455999         26.9048         24.2387 
       0.471626         25.2513         22.6124 
        0.48727         23.7571         21.0562 
       0.502856         22.1429         19.6332 
       0.518488         21.0766         18.3795 
       0.534347         20.1656          17.236 
       0.550082          18.351         16.1801 
       0.565732         16.9839         15.2022 
       0.581496         16.6054         14.3079 
       0.597222         15.9442          13.496 
       0.612804         14.8236         12.7524 
       0.628434         14.2555         12.0569 
       0.644267         13.7201         11.4046 
       0.660051         12.9272         10.8063 
       0.675724         12.2432         10.2556 
       0.691403          11.825         9.74254 
       0.707174         11.2732         9.26153 
       0.722871         10.8097         8.81475 
        0.73838         10.3426         8.40209 
       0.754018         9.99184         8.01264 
       0.769845         9.52582         7.64358 
        0.78569         9.20336         7.29739 
       0.801365          8.8048         6.97604 
       0.817031         8.50627         6.67431 
       0.832809         8.27359         6.38858 
       0.848511          7.7665         6.12096 
       0.864097         7.54243         5.87059 
       0.879701         7.29759         5.63405 
       0.895507         6.94725         5.40783 
       0.911279         6.84423         5.19456 
        0.92691         6.60214          4.9946 
       0.942635          6.3024         4.80412 
       0.958396         6.10819         4.62321 
       0.974128         5.93471         4.45199 
       0.989692         5.83013         4.29116 
        1.00528         5.59611         4.13806 
        1.02113         5.37911         3.99007 
        1.03692         5.25102         3.84988 
        1.05264         5.10268         3.71709 
        1.06832          4.9711         3.59078 
        1.08405          4.7647         3.47003 
        1.09979         4.65698         3.35478 
        1.11537         4.56029         3.24592 
        1.13105         4.42015         3.14125 
        1.14679         4.31428         3.04081 
        1.16256         4.17307         2.94458 
        1.17828         4.09775         2.85284 
        1.19395         3.96058         2.76533 
         1.2097         3.84061         2.68105 
        1.22537         3.73709         2.60071 
          1.241         3.66757         2.52391 
        1.25666         3.62494         2.45002 
        1.27241         3.48393         2.37876 
        1.28819         3.40335         2.31022 
        1.30392         3.34396         2.24459 
        1.31957         3.26765         2.18181 
        1.33529         3.17953          2.1212 
        1.35108         3.10277         2.06267 
        1.36674          3.0546         2.00676 
         1.3824         2.93725         1.95299 
        1.39811         2.88884         1.90101 
        1.41389          2.8439         1.85073 
        1.42964          2.7819         1.80236 
        1.44531         2.72323         1.75595 
        1.46101         2.66136         1.71109 
        1.47667         2.59149         1.66793 
        1.49229         2.56499         1.62637 
        1.50793         2.49255         1.58619 
        1.52367         2.46204         1.54711 
        1.53953         2.38869         1.50909 
        1.55526         2.34647         1.47265 
        1.57092         2.30546         1.43757 
        1.58662          2.2548         1.40355 
        1.60235          2.2142         1.37057 
        1.61809         2.17391         1.33863 
        1.63369         2.13894         1.30799 
        1.64941         2.09262          1.2781 
        1.66519         2.05925         1.24903 
        1.68085         2.00981         1.22108 
        1.69652         1.97237         1.19398 
        1.71228         1.94771         1.16754 
        1.72806          1.9037         1.14189 
        1.74368         1.86774         1.11726 
        1.75933         1.83814         1.09332 
        1.77505         1.81291         1.06996 
        1.79081         1.77622         1.04725 
         1.8065         1.74443         1.02529 
        1.82218         1.72436         1.00398 
        1.83797         1.70197        0.983136 
        1.85367         1.66863        0.962997 
        1.86928          1.6457        0.943544 
        1.88497         1.61024        0.924523 
        1.90073          1.5808        0.905957 
        1.91647          1.5567        0.887918 
        1.93218         1.54455        0.870409 
        1.94787         1.51623        0.853398 
        1.96363         1.48306        0.836776 
        1.97935         1.46198         0.82063 
        1.99499         1.43251        0.805002 
        2.01064         1.41961        0.789759 
         2.0264         1.40392        0.774816 
        2.04216         1.37892        0.760266 
        2.05781         1.35366        0.746183 
        2.07353         1.34082        0.732406 
        2.08928         1.32074        0.718948 
        2.10499          1.2972        0.705864 
        2.12065         1.28876        0.693145 
        2.13633         1.26456        0.680729 
        2.15211          1.2452        0.668537 
        2.16785         1.22563        0.656678 
        2.18349         1.21197        0.645181 
        2.19916         1.18922        0.633936 
        2.21489         1.17494        0.622922 
        2.23063         1.15536        0.612162 
         2.2463         1.14513        0.601704 
        2.26194          1.1245        0.591518 
        2.27765         1.11189        0.581514 
        2.29341         1.09962        0.571717 
        2.30914         1.08261        0.562165 
        2.32486         1.07575        0.552838 
        2.34061         1.05604        0.543706 
        2.35635         1.04051        0.534789 
        2.37203         1.03153        0.526103 
        2.38768         1.02006        0.517628 
        2.40339         1.00642        0.509309 
        2.41914        0.994076        0.501153 
        2.43483        0.981692        0.493205 
         2.4505        0.966078        0.485443 
        2.46622        0.956459        0.477821 
        2.48195        0.946364        0.470363 
        2.49759        0.935373        0.463103 
        2.51328        0.920071        0.455978 
        2.52906        0.910156        0.448958 
        2.54479        0.900448        0.442112 
        2.56049         0.89007        0.435422 
        2.57618         0.88102        0.428876 
        2.59189        0.870958        0.422455 
        2.60758        0.858071        0.416175 
        2.62325        0.850516        0.410031 
        2.63898        0.841347        0.403989 
        2.65468        0.832093        0.398082 
        2.67044        0.823861        0.392268 
        2.68618        0.809823        0.386583 
        2.70184        0.802112        0.381034 
        2.71755         0.79269        0.375579 
        2.73329        0.785514        0.370224 
        2.74897        0.777067         0.36499 
        2.76462        0.769119        0.359869 
        2.78034        0.761871        0.354824 
        2.79607        0.751201        0.349872 
        2.81179         0.74503        0.345019 
        2.82749        0.736278        0.340264 
        2.84321        0.730516        0.335594 
        2.85893        0.721957        0.331012 
        2.87462        0.717026        0.326524 
        2.89033        0.703549        0.322115 
        2.90605        0.699198        0.317783 
        2.92176        0.692838        0.313534 
        2.93747        0.686364        0.309364 
        2.95318        0.679605        0.305269 
        2.96891        0.672493        0.301246 
        2.98456        0.668264        0.297314 
        3.00023        0.659509        0.293446 
        3.01596        0.654867        0.289635 
        3.03164        0.650365        0.285902 
        3.04738        0.639935        0.282225 
         3.0631        0.634005        0.278613 
        3.07883        0.628912        0.275064 
        3.09456        0.624545        0.271578 
        3.11026        0.617201        0.268157 
        3.12596        0.610416        0.264796 
        3.14163        0.606661          0.2615 
        3.15734        0.600783        0.258253 
        3.17308        0.594784        0.255052 
        3.18879        0.588897        0.251915 
        3.20447        0.584563        0.248835 
         3.2202        0.579238        0.245797 
         3.2359        0.574421        0.242815 
        3.25157        0.569688         0.23989 
        3.26729        0.564312        0.237004 
        3.28304        0.560034         0.23416 
        3.29877        0.553447        0.231366 
        3.31446        0.549417        0.228624 
        3.33014        0.547054        0.225928 
        3.34585         0.54221        0.223272 
        3.36158        0.534304        0.220655 
        3.37727        0.533103        0.218088 
        3.39294        0.527752        0.215564 
        3.40867        0.523258        0.213071 
        3.42439        0.520413        0.210618 
        3.44008        0.514969        0.208209 
        3.45578        0.512842        0.205836 
        3.47153        0.508484        0.203495 
        3.48724         0.50417        0.201194 
        3.50292        0.500988        0.198934 
        3.51859        0.497067         0.19671 
        3.53431         0.49258        0.194513 
        3.55007        0.490479        0.192344 
        3.56577        0.485351        0.190217 
        3.58146        0.482853        0.188123 
        3.59719        0.478504        0.186055 
        3.61292        0.475448        0.184019 
        3.62859        0.470734        0.182022 
        3.64429        0.468421         0.18005 
        3.66003        0.464495        0.178101 
        3.67578        0.461585        0.176182 
        3.69146        0.458805        0.174298 
        3.70712        0.454768        0.172446 
        3.72284        0.452165        0.170613 
        3.73853        0.448036         0.16881 
        3.75422         0.44499        0.167033 
        3.76993        0.443737         0.16528 
        3.78564        0.439903        0.163552 
        3.80137        0.435071        0.161846 
        3.81707        0.434504        0.160169 
        3.83279        0.430169        0.158513 
        3.84853        0.426974        0.156879 
        3.86424        0.424945         0.15527 
        3.87992        0.421616        0.153687 
        3.89561        0.419158        0.152125 
        3.91134        0.415353        0.150582 
        3.92704        0.412997        0.149062 
        3.94273         0.41035        0.147565 
        3.95845        0.407821        0.146085 
        3.97418        0.403732        0.144626 
        3.98988        0.401812        0.143188 
        4.00554        0.399468        0.141774 
        4.02125        0.395571        0.140375 
        4.03698         0.39104        0.138992 
        4.05268         0.38798        0.137632 
        4.06839        0.384458        0.136288 
         4.0841        0.382084        0.134963 
        4.09983        0.378611        0.133653 
        4.11555        0.375823        0.132362 
        4.13124        0.371341        0.131091 
        4.14693        0.368444        0.129836 
        4.16266        0.365855        0.128594 
        4.17839        0.363489        0.127369 
        4.19408        0.360839        0.126163 
        4.20977        0.356579        0.124972 
        4.22551        0.355049        0.123793 
        4.24123        0.352544        0.122631 
        4.25691        0.349836        0.121487 
        4.27259        0.347867        0.120357 
        4.28831         0.34501         0.11924 
        4.30404        0.342306        0.118135 
        4.31974        0.340218        0.117047 
        4.33543        0.337872        0.115973 
        4.35116        0.336771         0.11491 
        4.36688        0.333467        0.113861 
        4.38255        0.332259        0.112828 
        4.39825        0.330666        0.111806 
        4.41398        0.327488        0.110795 
         4.4297        0.325796        0.109798 
        4.44541        0.324141        0.108813 
        4.46111        0.323894         0.10784 
        4.47683        0.320983        0.106879 
        4.49251        0.319682        0.105932 
        4.50819        0.318027        0.104996 
         4.5239        0.316912         0.10407 
        4.53962        0.316028        0.103155 
        4.55535        0.313903        0.102249 
        4.57106        0.312553        0.101356 
        4.58678        0.311044        0.100474 
         4.6025        0.309718       0.0996015 
        4.61821        0.308403       0.0987398 
        4.63391        0.308136       0.0978893 
         4.6496        0.305901       0.0970491 
        4.66532        0.305765       0.0962176 
        4.68103        0.304922       0.0953961 
        4.69673        0.303886        0.094585 
        4.71241         0.30225       0.0937842 
        4.72811        0.302451       0.0929912 
        4.74384        0.300877       0.0922065 
        4.75955        0.300881        0.091432 
        4.77525        0.299679       0.0906667 
        4.79096        0.299942       0.0899093 
        4.80669        0.298693       0.0891602 
         4.8224        0.298502       0.0884205 
        4.83809        0.296927         0.08769 
        4.85379        0.297887       0.0869672 
         4.8695        0.297059        0.086252 
        4.88521        0.296765       0.0855451 
        4.90093        0.296705       0.0848461 
        4.91663        0.295754       0.0841555 
        4.93234         0.29548       0.0834718 
        4.94807        0.295678       0.0827953 
        4.96377         0.29599       0.0821275 
        4.97943        0.296266       0.0814685 
        4.99514        0.296039        0.080815 
        5.01086        0.295887       0.0801682 
        5.02654        0.296393       0.0795301 
        5.04227        0.296411       0.0788971 
          5.058        0.296159       0.0782706 
        5.07371        0.295963       0.0776522 
        5.08942        0.296939       0.0770404 
        5.10513        0.297125       0.0764351 
        5.12084        0.297542        0.075836 
        5.13656        0.297628       0.0752434 
        5.15225         0.29912       0.0746582 
        5.16796        0.298542       0.0740782 
        5.18369        0.300669       0.0735039 
         5.1994        0.300828       0.0729367 
        5.21509        0.300991        0.072376 
        5.23079          0.3015       0.0718205 
        5.24649        0.302192       0.0712713 
        5.26217        0.302749       0.0707282 
        5.27788        0.302825       0.0701899 
        5.29359        0.304127       0.0696572 
        5.30933         0.30491       0.0691293 
        5.32504        0.306232       0.0686077 
        5.34073        0.307444        0.068092 
        5.35646        0.307733       0.0675806 
        5.37218        0.310304       0.0670744 
        5.38789         0.31037       0.0665741 
        5.40357        0.311425       0.0660796 
        5.41929        0.311802       0.0655889 
        5.43502        0.313867       0.0651032 
         5.4507        0.314812       0.0646235 
        5.46639        0.315879       0.0641486 
        5.48212        0.318072       0.0636774 
        5.49786        0.318218       0.0632103 
        5.51353        0.319724       0.0627503 
        5.52921        0.322023       0.0622943 
        5.54495        0.323144       0.0618415 
        5.56066        0.323988       0.0613938 
        5.57637        0.325316       0.0609505 
        5.59207        0.326821        0.060512 
        5.60778        0.328423       0.0600776 
        5.62346        0.330422       0.0596481 
        5.63916        0.331816       0.0592224 
        5.65487        0.333578       0.0588006 
         5.6706         0.33562       0.0583824 
        5.68633        0.336841       0.0579681 
        5.70203        0.338755       0.0575587 
        5.71773        0.340238       0.0571533 
        5.73344         0.34167       0.0567516 
        5.74916         0.34377       0.0563534 
        5.76486        0.345979       0.0559596 
        5.78054        0.347581       0.0555701 
        5.79626        0.347739       0.0551832 
          5.812         0.35044       0.0547997 
         5.8277        0.351697       0.0544209 
        5.84339        0.355534       0.0540456 
        5.85911        0.355487       0.0536732 
        5.87484        0.357036       0.0533044 
        5.89053        0.360299       0.0529397 
        5.90623        0.362346       0.0525783 
        5.92195        0.362785       0.0522197 
        5.93767        0.365429       0.0518645 
        5.95336          0.3667       0.0515133 
        5.96905         0.36905       0.0511654 
        5.98476        0.370512       0.0508203 
        6.00048        0.373367       0.0504782 
        6.01617        0.375795       0.0501398 
        6.03185        0.376983       0.0498048 
        6.04756        0.378892       0.0494721 
        6.06331        0.381909       0.0491418 
        6.07903        0.383659       0.0488151 
        6.09473         0.38492       0.0484917 
        6.11044         0.38748       0.0481709 
        6.12616        0.389588       0.0478531 
        6.14186        0.390392       0.0475385 
        6.15755        0.392347       0.0472267 
        6.17326        0.395168       0.0469175 
        6.18898        0.396641       0.0466109 
        6.20467        0.398802       0.0463076 
        6.22036        0.401024        0.046007 
         6.2361        0.402503       0.0457082 
         6.2518        0.404883       0.0454126 
        6.26748        0.405884       0.0451203 
        6.28319        0.408593       0.0448297 
        6.29893        0.411854       0.0445414 
        6.31463        0.411268       0.0442562 
        6.33033        0.413473       0.0439735 
        6.34604        0.414361       0.0436931 
        6.36177        0.417856       0.0434149 
        6.37747        0.420299       0.0431396 
