# k  (h/Mpc)    Pcb(k)  (Mpc/h)^3    Pcb_linear(k) (Mpc/h)^3   ShotnoiseSubtracted = true
      0.0200456         8832.84         8980.36 
      0.0350414         5736.79         5856.91 
      0.0492313         3955.69         3956.05 
      0.0637834         3340.28          3258.3 
      0.0800726         2638.86         2589.45 
       0.096163         1770.94         1787.49 
       0.111083         1361.61         1370.42 
       0.126058          1257.3         1229.69 
       0.142273         1096.59         1056.25 
       0.158546         881.347         810.071 
        0.17375         693.244         661.797 
       0.188953         663.901         602.702 
       0.204907         624.605         542.041 
       0.220756         521.491         453.233 
        0.23588         451.383         385.124 
         0.2514          394.56          348.71 
       0.267535         378.067         319.211 
       0.283568         341.182         280.902 
       0.299022          313.43         246.719 
       0.314451         287.654         224.004 
       0.330372         265.943          206.53 
       0.346141         237.967         187.735 
       0.361624         227.543         169.432 
       0.377134         211.544         154.918 
       0.392932         194.659         143.393 
       0.408854         186.172         132.377 
       0.424564         177.644         121.667 
       0.440253         168.284           112.3 
       0.455999         157.412         104.467 
       0.471626         145.979          97.458 
        0.48727         140.584         90.7507 
       0.502856         134.876         84.6179 
       0.518488         131.382         79.2142 
       0.534347         125.031          74.286 
       0.550082         115.543         69.7352 
       0.565732         111.313         65.5203 
       0.581496          106.64         61.6661 
       0.597222         102.961          58.167 
       0.612804         98.2602         54.9619 
       0.628434         95.6407         51.9642 
       0.644267         92.1851         49.1532 
       0.660051         90.2105         46.5746 
       0.675724         86.9022         44.2008 
       0.691403         84.1402         41.9897 
       0.707174         80.8259         39.9166 
       0.722871         79.3288          37.991 
        0.73838         77.5828         36.2125 
       0.754018         73.7268          34.534 
       0.769845         72.1573         32.9433 
        0.78569          70.324         31.4513 
       0.801365         67.9862         30.0663 
       0.817031         65.6133         28.7658 
       0.832809         64.8606         27.5344 
       0.848511         62.0969         26.3809 
       0.864097         60.7137         25.3018 
       0.879701         59.5643         24.2824 
       0.895507         58.4836         23.3074 
       0.911279         57.1585         22.3882 
        0.92691         55.9156         21.5264 
       0.942635         53.8851         20.7054 
       0.958396         53.6507         19.9257 
       0.974128         52.1644         19.1878 
       0.989692         51.1152         18.4946 
        1.00528         49.9193         17.8348 
        1.02113         48.8871         17.1969 
        1.03692         47.3784         16.5927 
        1.05264          47.322         16.0204 
        1.06832         45.6803          15.476 
        1.08405         45.1551         14.9556 
        1.09979         44.7147         14.4589 
        1.11537         42.9615         13.9897 
        1.13105         43.2849         13.5386 
        1.14679          42.164         13.1057 
        1.16256         41.3748         12.6909 
        1.17828         40.3972         12.2955 
        1.19395         39.8436         11.9184 
         1.2097         39.0853         11.5552 
        1.22537         39.0209         11.2089 
          1.241          37.862         10.8779 
        1.25666         37.1071         10.5594 
        1.27241          36.637         10.2523 
        1.28819         35.7769         9.95691 
        1.30392         35.3468         9.67404 
        1.31957         35.0002         9.40345 
        1.33529         34.4401         9.14224 
        1.35108         34.0609         8.88995 
        1.36674         33.5302         8.64901 
         1.3824         32.6065         8.41725 
        1.39811         32.4787         8.19322 
        1.41389          32.019         7.97652 
        1.42964         31.4232         7.76803 
        1.44531         31.0027         7.56804 
        1.46101         30.3308         7.37467 
        1.47667         30.2373         7.18865 
        1.49229         29.8701         7.00957 
        1.50793         29.3904         6.83639 
        1.52367         28.9391         6.66796 
        1.53953         28.8019         6.50409 
        1.55526         28.2452         6.34704 
        1.57092         27.9024         6.19584 
        1.58662          27.515         6.04921 
        1.60235         27.1825         5.90706 
        1.61809         26.7572          5.7694 
        1.63369         26.4369         5.63737 
        1.64941         26.0801         5.50853 
        1.66519         25.7073         5.38326 
        1.68085         25.5102         5.26278 
        1.69652         25.1681         5.14596 
        1.71228         24.9992         5.03202 
        1.72806          24.555         4.92146 
        1.74368          24.138         4.81533 
        1.75933         23.8641         4.71212 
        1.77505          23.828         4.61145 
        1.79081         23.3931         4.51356 
         1.8065         23.1343         4.41893 
        1.82218         22.9133          4.3271 
        1.83797         22.5643         4.23725 
        1.85367         22.2996         4.15045 
        1.86928         22.1004         4.06661 
        1.88497         21.8235         3.98463 
        1.90073         21.6658         3.90462 
        1.91647         21.3337         3.82687 
        1.93218         21.1968         3.75141 
        1.94787         20.8633         3.67809 
        1.96363          20.793         3.60645 
        1.97935         20.4815         3.53686 
        1.99499         20.2544         3.46951 
        2.01064         20.1329         3.40381 
         2.0264         19.7342          3.3394 
        2.04216         19.5951          3.2767 
        2.05781         19.3014           3.216 
        2.07353          19.176         3.15662 
        2.08928         19.1114         3.09862 
        2.10499         18.8932         3.04223 
        2.12065         18.5508         2.98741 
        2.13633         18.4424          2.9339 
        2.15211         18.1765         2.88135 
        2.16785         18.0065         2.83024 
        2.18349         17.8268         2.78069 
        2.19916         17.6869         2.73222 
        2.21489         17.4812         2.68475 
        2.23063         17.3078         2.63838 
         2.2463         17.1786         2.59331 
        2.26194         17.0448          2.5494 
        2.27765         16.7968         2.50629 
        2.29341         16.5912         2.46406 
        2.30914         16.5186          2.4229 
        2.32486         16.3359         2.38269 
        2.34061         16.1903         2.34334 
        2.35635         15.9693          2.3049 
        2.37203         15.8491         2.26747 
        2.38768         15.6829         2.23094 
        2.40339         15.5521         2.19509 
        2.41914         15.4133         2.15994 
        2.43483         15.2712         2.12568 
         2.4505         15.0827         2.09223 
        2.46622         14.9298         2.05938 
        2.48195         14.8155         2.02723 
        2.49759          14.608         1.99594 
        2.51328         14.4835         1.96524 
        2.52906         14.4163         1.93498 
        2.54479         14.2688         1.90547 
        2.56049         14.1217         1.87664 
        2.57618         13.9836         1.84843 
        2.59189         13.8866         1.82075 
        2.60758         13.7788         1.79369 
        2.62325         13.6568         1.76721 
        2.63898         13.5261         1.74117 
        2.65468         13.3988         1.71571 
        2.67044          13.261         1.69065 
        2.68618         13.1415         1.66615 
        2.70184         13.0528         1.64223 
        2.71755         12.9113         1.61872 
        2.73329         12.8091         1.59564 
        2.74897         12.6305         1.57308 
        2.76462         12.6275         1.55101 
        2.78034         12.4419         1.52927 
        2.79607         12.3483         1.50792 
        2.81179         12.2101         1.48701 
        2.82749         12.1062         1.46652 
        2.84321         12.0268         1.44639 
        2.85893         11.9067         1.42664 
        2.87462         11.7846          1.4073 
        2.89033         11.6725         1.38829 
        2.90605         11.6277         1.36962 
        2.92176         11.4505         1.35131 
        2.93747         11.4138         1.33334 
        2.95318         11.2757         1.31569 
        2.96891           11.19         1.29835 
        2.98456         11.1035          1.2814 
        3.00023         10.9684         1.26473 
        3.01596          10.944         1.24831 
        3.03164         10.8322         1.23222 
        3.04738         10.6878         1.21637 
         3.0631         10.6223          1.2008 
        3.07883           10.51         1.18551 
        3.09456         10.4294         1.17048 
        3.11026          10.355         1.15574 
        3.12596         10.2545         1.14125 
        3.14163         10.1673         1.12705 
        3.15734         10.0645         1.11305 
        3.17308         9.99928         1.09926 
        3.18879         9.93555         1.08574 
        3.20447         9.83755         1.07246 
         3.2202         9.75654         1.05937 
         3.2359         9.69798         1.04652 
        3.25157         9.60849         1.03391 
        3.26729          9.5089         1.02147 
        3.28304         9.44249         1.00921 
        3.29877         9.35511        0.997171 
        3.31446         9.28182        0.985353 
        3.33014         9.20223        0.973736 
        3.34585         9.14466        0.962289 
        3.36158         9.08604        0.951009 
        3.37727         8.95667        0.939944 
        3.39294         8.91008        0.929066 
        3.40867         8.82732        0.918321 
        3.42439         8.76791        0.907752 
        3.44008         8.70723        0.897369 
        3.45578         8.62966        0.887141 
        3.47153         8.58553         0.87705 
        3.48724         8.49207        0.867133 
        3.50292         8.43048        0.857393 
        3.51859         8.38378        0.847807 
        3.53431         8.30548        0.838338 
        3.55007         8.23885         0.82899 
        3.56577         8.17506        0.819822 
        3.58146          8.1295        0.810796 
        3.59719         8.04302        0.801885 
        3.61292         7.95623        0.793111 
        3.62859         7.89162        0.784501 
        3.64429          7.8773        0.776003 
        3.66003         7.78405        0.767604 
        3.67578          7.7097        0.759333 
        3.69146         7.65727        0.751215 
        3.70712         7.60543         0.74323 
        3.72284         7.55475        0.735332 
        3.73853         7.47624        0.727562 
        3.75422         7.46307        0.719901 
        3.76993         7.37405        0.712344 
        3.78564         7.31843        0.704898 
        3.80137         7.25767        0.697547 
        3.81707         7.20791        0.690316 
        3.83279         7.13597        0.683181 
        3.84853          7.0796        0.676136 
        3.86424         7.03097        0.669204 
        3.87992         6.97538        0.662379 
        3.89561         6.92398        0.655649 
        3.91134          6.8637        0.648999 
        3.92704         6.80029        0.642449 
        3.94273         6.77932        0.635995 
        3.95845         6.72283        0.629619 
        3.97418         6.64922        0.623328 
        3.98988         6.61157        0.617132 
        4.00554         6.57062        0.611036 
        4.02125         6.51679        0.605006 
        4.03698         6.46344        0.599048 
        4.05268         6.41973        0.593183 
        4.06839         6.35834        0.587392 
         4.0841         6.32486        0.581681 
        4.09983         6.26476        0.576037 
        4.11555         6.22805        0.570471 
        4.13124         6.18769        0.564993 
        4.14693         6.12975        0.559583 
        4.16266         6.08737        0.554231 
        4.17839         6.03452        0.548952 
        4.19408         5.99491        0.543753 
        4.20977         5.94233         0.53862 
        4.22551         5.90159        0.533541 
        4.24123         5.85188        0.528532 
        4.25691          5.8046        0.523601 
        4.27259         5.75534        0.518732 
        4.28831         5.71423        0.513915 
        4.30404         5.69138        0.509154 
        4.31974         5.63837        0.504464 
        4.33543         5.59172        0.499835 
        4.35116         5.54657        0.495254 
        4.36688         5.49551        0.490731 
        4.38255         5.47635        0.486282 
        4.39825          5.4087        0.481878 
        4.41398         5.39711        0.477521 
         4.4297         5.34961        0.473221 
        4.44541         5.30203        0.468975 
        4.46111         5.28056        0.464785 
        4.47683         5.23344        0.460643 
        4.49251         5.19543        0.456559 
        4.50819         5.14221        0.452526 
         4.5239         5.11957        0.448536 
        4.53962         5.09109        0.444589 
        4.55535         5.04703        0.440688 
        4.57106         5.00874        0.436839 
        4.58678          4.9769        0.433035 
         4.6025         4.92628        0.429276 
        4.61821         4.89642        0.425562 
        4.63391         4.87136        0.421896 
         4.6496         4.83663        0.418275 
        4.66532         4.80752        0.414691 
        4.68103         4.75526        0.411151 
        4.69673         4.73617        0.407655 
        4.71241          4.7034        0.404203 
        4.72811         4.66051        0.400786 
        4.74384          4.6339        0.397404 
        4.75955         4.58363        0.394066 
        4.77525         4.56197        0.390768 
        4.79096         4.53781        0.387503 
        4.80669           4.508        0.384275 
         4.8224         4.48101        0.381087 
        4.83809         4.44046        0.377938 
        4.85379         4.41004        0.374823 
         4.8695          4.3904         0.37174 
        4.88521         4.35696        0.368694 
        4.90093         4.31595        0.365681 
        4.91663         4.29696        0.362705 
        4.93234         4.27123        0.359758 
        4.94807          4.2346        0.356842 
        4.96377         4.20279        0.353964 
        4.97943         4.16384        0.351124 
        4.99514         4.13822        0.348307 
        5.01086         4.11521         0.34552 
        5.02654         4.09416        0.342769 
        5.04227         4.05787        0.340041 
          5.058         4.03247        0.337341 
        5.07371          4.0107        0.334676 
        5.08942         3.98079        0.332039 
        5.10513         3.95846         0.32943 
        5.12084         3.92939        0.326848 
        5.13656         3.90578        0.324294 
        5.15225         3.88303        0.321772 
        5.16796         3.85444        0.319272 
        5.18369         3.83037        0.316797 
         5.1994         3.80237        0.314352 
        5.21509         3.77544        0.311936 
        5.23079         3.75824        0.309542 
        5.24649         3.72919        0.307174 
        5.26217         3.70657        0.304834 
        5.27788         3.67984        0.302514 
        5.29359         3.65073        0.300218 
        5.30933         3.62702        0.297943 
        5.32504         3.61252        0.295694 
        5.34073          3.5866        0.293472 
        5.35646         3.56076        0.291268 
        5.37218         3.53709        0.289086 
        5.38789         3.51319         0.28693 
        5.40357         3.49494        0.284798 
        5.41929         3.46815        0.282684 
        5.43502         3.44799         0.28059 
         5.4507         3.42987        0.278523 
        5.46639         3.40788        0.276476 
        5.48212         3.38143        0.274445 
        5.49786         3.36235        0.272432 
        5.51353         3.33669        0.270449 
        5.52921         3.31753        0.268484 
        5.54495         3.30359        0.266533 
        5.56066         3.27981        0.264603 
        5.57637         3.25946        0.262693 
        5.59207         3.23688        0.260803 
        5.60778         3.21867         0.25893 
        5.62346         3.19988        0.257079 
        5.63916         3.17309        0.255244 
        5.65487         3.15736        0.253426 
         5.6706         3.14042        0.251624 
        5.68633         3.11954        0.249839 
        5.70203         3.10086        0.248074 
        5.71773         3.08105        0.246327 
        5.73344         3.06795        0.244596 
        5.74916         3.04365         0.24288 
        5.76486         3.03304        0.241182 
        5.78054         3.00917        0.239503 
        5.79626         2.99106        0.237836 
          5.812          2.9772        0.236183 
         5.8277          2.9587         0.23455 
        5.84339         2.93459        0.232933 
        5.85911         2.92791        0.231328 
        5.87484         2.90891        0.229738 
        5.89053         2.88599        0.228167 
        5.90623          2.8718        0.226609 
        5.92195         2.85576        0.225063 
        5.93767         2.83767        0.223533 
        5.95336         2.82329        0.222019 
        5.96905          2.8033         0.22052 
        5.98476          2.7904        0.219032 
        6.00048         2.77043        0.217558 
        6.01617         2.75503        0.216099 
        6.03185         2.73899        0.214655 
        6.04756         2.72147        0.213222 
        6.06331         2.70584        0.211798 
        6.07903          2.6904         0.21039 
        6.09473         2.68016        0.208996 
        6.11044         2.66151        0.207614 
        6.12616         2.65217        0.206244 
        6.14186         2.63576        0.204888 
        6.15755         2.62163        0.203544 
        6.17326         2.60203        0.202211 
        6.18898          2.5851         0.20089 
        6.20467          2.5771        0.199583 
        6.22036         2.55782        0.198287 
         6.2361         2.54236        0.196999 
         6.2518         2.52678        0.195725 
        6.26748         2.52355        0.194465 
        6.28319         2.50019        0.193213 
        6.29893         2.48824        0.191971 
        6.31463          2.4736        0.190741 
        6.33033          2.4634        0.189523 
        6.34604         2.44745        0.188314 
        6.36177         2.43475        0.187115 
        6.37747         2.41797        0.185929 
