# k  (h/Mpc)    Pcb(k)  (Mpc/h)^3    Pcb_linear(k) (Mpc/h)^3   ShotnoiseSubtracted = true
      0.0200456         8041.74         8173.72 
      0.0350414         5229.11         5330.83 
      0.0492313         3602.77         3600.71 
      0.0637834         3037.93         2965.63 
      0.0800726         2400.31         2356.86 
       0.096163          1612.6         1626.93 
       0.111083         1238.99         1247.33 
       0.126058         1143.11         1119.24 
       0.142273         996.406         961.373 
       0.158546         797.659         737.309 
        0.17375         628.171         602.353 
       0.188953         600.033         548.566 
       0.204907         564.215         493.354 
       0.220756         470.159         412.523 
        0.23588         406.317         350.532 
         0.2514         355.778         317.388 
       0.267535         339.738         290.539 
       0.283568         306.384         255.671 
       0.299022         280.754         224.558 
       0.314451         256.605         203.883 
       0.330372           237.5         187.979 
       0.346141         212.543         170.873 
       0.361624         202.597         154.213 
       0.377134          188.63         141.003 
       0.392932         172.617         130.513 
       0.408854         165.159         120.487 
       0.424564         157.665         110.739 
       0.440253         148.723         102.213 
       0.455999         139.096         95.0837 
       0.471626         128.895         88.7041 
        0.48727          124.13         82.5993 
       0.502856          118.84         77.0173 
       0.518488         115.357         72.0991 
       0.534347         110.059         67.6135 
       0.550082         101.473         63.4714 
       0.565732         97.3934         59.6352 
       0.581496         93.5294         56.1272 
       0.597222          90.214         52.9423 
       0.612804         85.8652         50.0251 
       0.628434         83.6567         47.2967 
       0.644267         80.6467         44.7382 
       0.660051         78.6307         42.3912 
       0.675724         75.5433         40.2306 
       0.691403         73.1577         38.2181 
       0.707174         70.3797         36.3312 
       0.722871         68.8366         34.5786 
        0.73838         67.2534         32.9598 
       0.754018         63.7978         31.4321 
       0.769845         62.4329         29.9843 
        0.78569         60.8242         28.6262 
       0.801365         58.6959         27.3656 
       0.817031         56.7979          26.182 
       0.832809         56.0787         25.0612 
       0.848511         53.4899         24.0113 
       0.864097         52.3329         23.0292 
       0.879701         51.3201         22.1013 
       0.895507         50.4649         21.2139 
       0.911279         49.1838         20.3772 
        0.92691          48.094         19.5929 
       0.942635         46.2462         18.8456 
       0.958396         46.0435          18.136 
       0.974128         44.7545         17.4643 
       0.989692           43.92         16.8334 
        1.00528         42.8807         16.2328 
        1.02113         41.8261         15.6523 
        1.03692         40.6405         15.1023 
        1.05264         40.5246         14.5814 
        1.06832         39.0989         14.0859 
        1.08405         38.6481         13.6123 
        1.09979         38.1595         13.1601 
        1.11537         36.6843         12.7331 
        1.13105         36.9266         12.3225 
        1.14679         36.0311         11.9285 
        1.16256         35.2416          11.551 
        1.17828         34.4294         11.1911 
        1.19395         33.9258         10.8478 
         1.2097         33.3748         10.5173 
        1.22537         33.2085         10.2021 
          1.241         32.2184          9.9008 
        1.25666         31.5581         9.61097 
        1.27241         31.1632         9.33143 
        1.28819         30.3649         9.06256 
        1.30392         30.0247          8.8051 
        1.31957         29.7566         8.55881 
        1.33529          29.364         8.32107 
        1.35108         28.9077         8.09144 
        1.36674         28.4051         7.87214 
         1.3824         27.6643         7.66119 
        1.39811         27.5901         7.45729 
        1.41389         27.1846         7.26005 
        1.42964         26.6218         7.07029 
        1.44531         26.3607         6.88826 
        1.46101         25.7456         6.71227 
        1.47667          25.617         6.54296 
        1.49229         25.3213         6.37995 
        1.50793         24.9293         6.22233 
        1.52367         24.5865         6.06903 
        1.53953         24.4322         5.91988 
        1.55526         23.9338         5.77694 
        1.57092         23.6118         5.63932 
        1.58662         23.3091         5.50586 
        1.60235         23.0144         5.37647 
        1.61809         22.6913         5.25118 
        1.63369         22.4425         5.13101 
        1.64941         22.0958         5.01374 
        1.66519         21.8479         4.89972 
        1.68085         21.5954         4.79007 
        1.69652         21.3298         4.68374 
        1.71228         21.1742         4.58004 
        1.72806         20.7841          4.4794 
        1.74368         20.4628          4.3828 
        1.75933         20.2421         4.28886 
        1.77505         20.1858         4.19724 
        1.79081         19.8366         4.10814 
         1.8065         19.6342         4.02201 
        1.82218         19.4289         3.93843 
        1.83797         19.1127         3.85665 
        1.85367         18.9208         3.77765 
        1.86928          18.734         3.70134 
        1.88497         18.4586         3.62673 
        1.90073         18.4115          3.5539 
        1.91647         18.0911         3.48313 
        1.93218         17.9398         3.41445 
        1.94787         17.7199         3.34772 
        1.96363         17.6454         3.28251 
        1.97935         17.4065         3.21917 
        1.99499         17.1788         3.15787 
        2.01064         17.0855         3.09807 
         2.0264         16.7566         3.03945 
        2.04216         16.6368         2.98238 
        2.05781         16.3924         2.92713 
        2.07353          16.292         2.87309 
        2.08928          16.197         2.82029 
        2.10499         16.0114         2.76897 
        2.12065         15.7204         2.71907 
        2.13633         15.6549         2.67037 
        2.15211         15.4289         2.62254 
        2.16785         15.3035         2.57602 
        2.18349         15.1403         2.53092 
        2.19916         15.0245         2.48681 
        2.21489         14.8523          2.4436 
        2.23063         14.7156         2.40139 
         2.2463          14.579         2.36037 
        2.26194          14.471         2.32041 
        2.27765         14.2716         2.28117 
        2.29341         14.1021         2.24273 
        2.30914         14.0242         2.20527 
        2.32486         13.9115         2.16867 
        2.34061         13.7636         2.13285 
        2.35635         13.5805         2.09787 
        2.37203         13.4564          2.0638 
        2.38768         13.3608         2.03055 
        2.40339         13.2072         1.99792 
        2.41914         13.1052         1.96593 
        2.43483         12.9977         1.93475 
         2.4505          12.817          1.9043 
        2.46622         12.7176          1.8744 
        2.48195         12.6109         1.84514 
        2.49759         12.4649         1.81666 
        2.51328         12.3604         1.78871 
        2.52906         12.2838         1.76117 
        2.54479         12.1539         1.73432 
        2.56049         12.0743         1.70807 
        2.57618         11.9703          1.6824 
        2.59189         11.8404         1.65721 
        2.60758         11.7454         1.63257 
        2.62325         11.6626         1.60847 
        2.63898          11.529         1.58477 
        2.65468         11.4346          1.5616 
        2.67044         11.2971         1.53879 
        2.68618          11.227         1.51649 
        2.70184         11.1215         1.49472 
        2.71755         10.9987         1.47333 
        2.73329         10.9276         1.45232 
        2.74897         10.7996         1.43178 
        2.76462         10.7801         1.41169 
        2.78034         10.5947         1.39191 
        2.79607         10.5347         1.37248 
        2.81179         10.4171         1.35344 
        2.82749         10.3441         1.33479 
        2.84321         10.2495         1.31647 
        2.85893         10.1756          1.2985 
        2.87462         10.0848         1.28089 
        2.89033          9.9725         1.26359 
        2.90605         9.90383          1.2466 
        2.92176         9.81969         1.22993 
        2.93747         9.77206         1.21357 
        2.95318         9.63447         1.19751 
        2.96891         9.56661         1.18173 
        2.98456         9.50081         1.16631 
        3.00023         9.42175         1.15113 
        3.01596         9.34925         1.13618 
        3.03164         9.29079         1.12154 
        3.04738         9.16258         1.10711 
         3.0631         9.12515         1.09295 
        3.07883         9.00747         1.07902 
        3.09456          8.9574         1.06535 
        3.11026         8.87264         1.05193 
        3.12596         8.82109         1.03874 
        3.14163         8.73205         1.02581 
        3.15734         8.65095         1.01307 
        3.17308         8.58057         1.00052 
        3.18879         8.55175        0.988214 
        3.20447         8.43377        0.976132 
         3.2202         8.39343        0.964215 
         3.2359         8.33681        0.952517 
        3.25157         8.26768        0.941042 
        3.26729         8.19689         0.92972 
        3.28304         8.12581        0.918563 
        3.29877          8.0459        0.907603 
        3.31446         7.98145        0.896846 
        3.33014         7.92387        0.886273 
        3.34585         7.88674        0.875854 
        3.36158         7.82885        0.865587 
        3.37727         7.72442        0.855516 
        3.39294         7.69238        0.845616 
        3.40867         7.59999        0.835836 
        3.42439         7.54997        0.826215 
        3.44008         7.51769        0.816765 
        3.45578         7.44365        0.807456 
        3.47153         7.40706        0.798272 
        3.48724         7.34478        0.789246 
        3.50292         7.27291         0.78038 
        3.51859         7.23236        0.771656 
        3.53431          7.1697        0.763037 
        3.55007         7.11026        0.754529 
        3.56577         7.06631        0.746184 
        3.58146         7.01344        0.737969 
        3.59719         6.95703        0.729858 
        3.61292         6.89024        0.721872 
        3.62859         6.84957        0.714036 
        3.64429          6.8122        0.706301 
        3.66003         6.73163        0.698657 
        3.67578         6.66428        0.691128 
        3.69146         6.62966        0.683739 
        3.70712         6.58049        0.676472 
        3.72284          6.5431        0.669283 
        3.73853         6.47305        0.662211 
        3.75422         6.46075        0.655238 
        3.76993         6.38684         0.64836 
        3.78564         6.34005        0.641583 
        3.80137         6.28244        0.634892 
        3.81707         6.25483         0.62831 
        3.83279         6.20855        0.621817 
        3.84853         6.15548        0.615404 
        3.86424         6.11114        0.609095 
        3.87992         6.05326        0.602883 
        3.89561         6.01686        0.596758 
        3.91134         5.97271        0.590705 
        3.92704         5.92335        0.584743 
        3.94273          5.8946        0.578869 
        3.95845         5.84829        0.573065 
        3.97418         5.78791        0.567339 
        3.98988         5.75731          0.5617 
        4.00554         5.72505        0.556152 
        4.02125         5.66817        0.550663 
        4.03698         5.62299         0.54524 
        4.05268         5.59645        0.539902 
        4.06839         5.54865        0.534632 
         4.0841          5.5011        0.529433 
        4.09983         5.47241        0.524297 
        4.11555         5.43622         0.51923 
        4.13124         5.40581        0.514244 
        4.14693         5.35031         0.50932 
        4.16266         5.31131        0.504449 
        4.17839         5.26312        0.499644 
        4.19408         5.22644        0.494912 
        4.20977         5.18159         0.49024 
        4.22551         5.14913        0.485617 
        4.24123         5.11119        0.481058 
        4.25691         5.05969         0.47657 
        4.27259         5.04416        0.472138 
        4.28831         5.00215        0.467754 
        4.30404         4.96516        0.463421 
        4.31974         4.92193        0.459152 
        4.33543         4.89271        0.454939 
        4.35116         4.84273        0.450769 
        4.36688         4.81291        0.446653 
        4.38255         4.78302        0.442603 
        4.39825         4.73543        0.438595 
        4.41398         4.72775        0.434629 
         4.4297         4.67487        0.430716 
        4.44541          4.6442        0.426851 
        4.46111         4.63421        0.423037 
        4.47683          4.5872        0.419267 
        4.49251         4.55754         0.41555 
        4.50819         4.51091         0.41188 
         4.5239         4.49321        0.408248 
        4.53962         4.46027        0.404656 
        4.55535         4.43067        0.401105 
        4.57106         4.39516        0.397602 
        4.58678         4.37373        0.394139 
         4.6025         4.33188        0.390718 
        4.61821         4.31011        0.387337 
        4.63391         4.28035        0.384001 
         4.6496         4.24683        0.380705 
        4.66532         4.23708        0.377443 
        4.68103         4.18622        0.374221 
        4.69673         4.16788        0.371039 
        4.71241         4.14108        0.367897 
        4.72811         4.10562        0.364787 
        4.74384         4.07116        0.361708 
        4.75955         4.04585         0.35867 
        4.77525         4.01559        0.355668 
        4.79096         3.99606        0.352697 
        4.80669         3.97123        0.349758 
         4.8224         3.94874        0.346857 
        4.83809          3.9091        0.343991 
        4.85379         3.88732        0.341156 
         4.8695         3.86841         0.33835 
        4.88521         3.84552        0.335577 
        4.90093         3.80228        0.332835 
        4.91663         3.79279        0.330126 
        4.93234         3.76684        0.327444 
        4.94807         3.73134         0.32479 
        4.96377         3.70872         0.32217 
        4.97943         3.69167        0.319585 
        4.99514         3.66183        0.317022 
        5.01086         3.64108        0.314484 
        5.02654         3.61945        0.311981 
        5.04227         3.58848        0.309498 
          5.058          3.5659         0.30704 
        5.07371         3.54702        0.304615 
        5.08942         3.52064        0.302214 
        5.10513         3.50312         0.29984 
        5.12084         3.48782         0.29749 
        5.13656         3.45804        0.295165 
        5.15225         3.43972         0.29287 
        5.16796         3.41033        0.290594 
        5.18369         3.39013        0.288341 
         5.1994         3.37555        0.286116 
        5.21509         3.34571        0.283917 
        5.23079         3.33679        0.281738 
        5.24649         3.30739        0.279583 
        5.26217         3.28143        0.277453 
        5.27788         3.26356        0.275342 
        5.29359         3.24367        0.273252 
        5.30933         3.22383        0.271181 
        5.32504         3.21301        0.269135 
        5.34073         3.18509        0.267112 
        5.35646         3.16361        0.265106 
        5.37218         3.14541         0.26312 
        5.38789           3.125        0.261157 
        5.40357         3.10747        0.259217 
        5.41929         3.08383        0.257293 
        5.43502         3.06782        0.255387 
         5.4507         3.05533        0.253506 
        5.46639         3.02921        0.251643 
        5.48212         3.01237        0.249794 
        5.49786         3.00044        0.247962 
        5.51353          2.9745        0.246157 
        5.52921         2.96032        0.244369 
        5.54495         2.93754        0.242592 
        5.56066         2.92756        0.240836 
        5.57637         2.90752        0.239097 
        5.59207         2.88825        0.237377 
        5.60778         2.86571        0.235673 
        5.62346         2.85227        0.233988 
        5.63916         2.83613        0.232318 
        5.65487         2.82246        0.230663 
         5.6706         2.79976        0.229023 
        5.68633         2.79102        0.227398 
        5.70203         2.76861        0.225792 
        5.71773         2.75846        0.224201 
        5.73344         2.74278        0.222626 
        5.74916         2.72637        0.221064 
        5.76486         2.71224        0.219519 
        5.78054         2.69318        0.217991 
        5.79626         2.67788        0.216473 
          5.812         2.66335        0.214969 
         5.8277         2.64846        0.213483 
        5.84339         2.63444        0.212011 
        5.85911         2.62238         0.21055 
        5.87484         2.60344        0.209103 
        5.89053         2.58341        0.207672 
        5.90623         2.57221        0.206255 
        5.92195         2.55786        0.204848 
        5.93767         2.54561        0.203455 
        5.95336         2.53154        0.202077 
        5.96905         2.51641        0.200712 
        5.98476         2.50313        0.199358 
        6.00048         2.48979        0.198016 
        6.01617         2.47466        0.196689 
        6.03185         2.45709        0.195375 
        6.04756         2.44394         0.19407 
        6.06331         2.42889        0.192774 
        6.07903         2.41684        0.191492 
        6.09473         2.40847        0.190224 
        6.11044         2.39068        0.188965 
        6.12616         2.37807        0.187719 
        6.14186         2.37106        0.186484 
        6.15755         2.35401        0.185261 
        6.17326         2.34256        0.184048 
        6.18898         2.32728        0.182846 
        6.20467         2.32018        0.181656 
        6.22036         2.30077        0.180477 
         6.2361         2.28925        0.179305 
         6.2518         2.27972        0.178145 
        6.26748         2.26809        0.176998 
        6.28319         2.25248        0.175858 
        6.29893         2.24143        0.174727 
        6.31463         2.22766        0.173608 
        6.33033         2.22225          0.1725 
        6.34604         2.20914          0.1714 
        6.36177         2.19882        0.170308 
        6.37747         2.18381        0.169228 
