#  k  (h/Mpc)          P(k)  (Mpc/h)^3     P_linear(k) (Mpc/h)^3
      0.0200456         27177.1           27912 
      0.0350414         19868.1         21040.2 
      0.0492313         15367.7         15895.6 
      0.0637834         13433.6           13278 
      0.0800726         10453.5         10368.7 
       0.096163         7333.77         7675.27 
       0.111083         6079.67         6337.08 
       0.126058            5570         5583.24 
       0.142273         4758.25         4593.77 
       0.158546         4298.64          3683.5 
        0.17375         3502.57         3210.53 
       0.188953         3431.52         2887.09 
       0.204907         3209.18         2486.58 
       0.220756         2811.13         2118.98 
        0.23588         2545.15         1892.15 
         0.2514         2240.29         1718.63 
       0.267535         2250.15         1524.91 
       0.283568         2042.15            1346 
       0.299022         1949.44         1219.44 
       0.314451         1856.05         1117.78 
       0.330372         1694.87            1014 
       0.346141          1677.1         918.424 
       0.361624         1612.23         842.224 
       0.377134          1511.5         777.912 
       0.392932         1446.92         716.183 
       0.408854         1425.91          658.48 
       0.424564         1312.57         609.432 
       0.440253         1285.94         566.676 
       0.455999         1272.16         527.037 
       0.471626         1221.98         490.718 
        0.48727          1178.6         458.146 
       0.502856         1129.25         429.103 
       0.518488         1138.19         402.323 
       0.534347         1064.73         377.213 
       0.550082         1054.84         354.488 
       0.565732         1035.77         333.896 
       0.581496         992.444         314.787 
       0.597222          965.27         297.135 
       0.612804         953.613         280.975 
       0.628434         928.596         266.029 
       0.644267           905.7         252.009 
       0.660051         889.018         239.031 
       0.675724          878.53         227.043 
       0.691403         855.697          215.87 
       0.707174         825.576         205.388 
       0.722871         805.776         195.645 
        0.73838         794.502         186.639 
       0.754018           781.6         178.134 
       0.769845         768.161         170.067 
        0.78569         758.399         162.493 
       0.801365         735.386         155.456 
       0.817031         724.822         148.842 
       0.832809         712.848         142.572 
       0.848511         698.646         136.693 
       0.864097         675.898         131.186 
       0.879701         665.269         125.979 
       0.895507         663.563         120.994 
       0.911279         652.266          116.29 
        0.92691         638.763         111.876 
       0.942635         620.527         107.667 
       0.958396         610.569         103.667 
       0.974128         603.445         99.8777 
       0.989692         595.783         96.3159 
        1.00528         575.506         92.9231 
        1.02113         574.533         89.6411 
        1.03692         562.569         86.5303 
        1.05264         552.958         83.5819 
        1.06832         541.277         80.7759 
        1.08405         533.132         78.0917 
        1.09979         525.449         75.5282 
        1.11537         518.138         73.1056 
        1.13105         510.413          70.775 
        1.14679         498.353         68.5374 
        1.16256         489.126         66.3924 
        1.17828         485.145         64.3465 
        1.19395          476.56          62.394 
         1.2097         462.602         60.5127 
        1.22537         457.177         58.7183 
          1.241         448.645         57.0023 
        1.25666         446.565         55.3507 
        1.27241          436.21          53.757 
        1.28819         425.233         52.2234 
        1.30392          421.75         50.7543 
        1.31957         412.419         49.3484 
        1.33529          410.02         47.9907 
        1.35108         400.617         46.6788 
        1.36674         394.227         45.4254 
         1.3824         389.988         44.2193 
        1.39811         381.275          43.053 
        1.41389         377.619         41.9245 
        1.42964         372.887         40.8383 
        1.44531         369.646         39.7961 
        1.46101         360.309          38.788 
        1.47667         352.836         37.8179 
        1.49229         350.987         36.8837 
        1.50793         340.456         35.9801 
        1.52367         339.795         35.1009 
        1.53953         330.332         34.2453 
        1.55526         329.256          33.425 
        1.57092         325.797         32.6351 
        1.58662         319.678         31.8688 
        1.60235         314.459         31.1257 
        1.61809         309.285          30.406 
        1.63369         304.234         29.7155 
        1.64941         298.187         29.0414 
        1.66519         295.901         28.3859 
        1.68085         292.547         27.7553 
        1.69652         288.628         27.1437 
        1.71228         281.441         26.5471 
        1.72806         277.786          25.968 
        1.74368         272.741         25.4119 
        1.75933         271.197         24.8711 
        1.77505         266.436         24.3434 
        1.79081         263.054         23.8302 
         1.8065         257.772          23.334 
        1.82218         255.145         22.8523 
        1.83797         253.175          22.381 
        1.85367         248.414         21.9255 
        1.86928         243.482         21.4855 
        1.88497         241.771         21.0551 
        1.90073         237.129          20.635 
        1.91647         234.775         20.2267 
        1.93218         230.798         19.8303 
        1.94787         227.921         19.4452 
        1.96363         224.865         19.0687 
        1.97935         220.643          18.703 
        1.99499         218.067          18.349 
        2.01064         215.189         18.0036 
         2.0264         212.599         17.6649 
        2.04216         210.587         17.3351 
        2.05781          207.59         17.0158 
        2.07353         204.056         16.7034 
        2.08928         200.092         16.3982 
        2.10499         198.176         16.1014 
        2.12065         195.818         15.8129 
        2.13633         193.287         15.5312 
        2.15211         190.456         15.2545 
        2.16785         188.718         14.9854 
        2.18349         186.625         14.7244 
        2.19916         182.932         14.4691 
        2.21489          181.57          14.219 
        2.23063         178.817         13.9746 
         2.2463          175.65         13.7371 
        2.26194         173.852         13.5057 
        2.27765         170.946         13.2784 
        2.29341         168.968         13.0558 
        2.30914         166.702         12.8388 
        2.32486         165.784         12.6268 
        2.34061         162.044         12.4192 
        2.35635         161.428         12.2165 
        2.37203         158.651          12.019 
        2.38768         156.545         11.8262 
        2.40339         154.743         11.6371 
        2.41914         153.324         11.4516 
        2.43483         151.036         11.2708 
         2.4505         149.391         11.0942 
        2.46622          147.67         10.9207 
        2.48195         145.588          10.751 
        2.49759          144.35         10.5858 
        2.51328         142.512         10.4236 
        2.52906         140.646         10.2638 
        2.54479         139.247          10.108 
        2.56049         137.193         9.95567 
        2.57618         136.071         9.80662 
        2.59189          134.07         9.66039 
        2.60758         132.097         9.51738 
        2.62325         130.496         9.37743 
        2.63898         129.344         9.23981 
        2.65468         127.909         9.10524 
        2.67044         126.651         8.97277 
        2.68618         125.012         8.84324 
        2.70184         123.301         8.71678 
        2.71755         122.075         8.59248 
        2.73329         120.107          8.4704 
        2.74897         119.155          8.3511 
        2.76462         117.713         8.23436 
        2.78034          116.55         8.11937 
        2.79607         114.955         8.00645 
        2.81179         114.066          7.8958 
        2.82749         112.738         7.78737 
        2.84321         110.661         7.68085 
        2.85893         109.837         7.57635 
        2.87462         108.705         7.47398 
        2.89033         107.184          7.3734 
        2.90605         106.343         7.27458 
        2.92176         104.694         7.17763 
        2.93747         103.752         7.08249 
        2.95318         102.921         6.98905 
        2.96891         101.633         6.89725 
        2.98456         100.398         6.80751 
        3.00023         99.6391         6.71923 
        3.01596         98.3998         6.63224 
        3.03164         97.3143         6.54704 
        3.04738         96.4835         6.46308 
         3.0631         94.9855         6.38063 
        3.07883          93.952          6.2996 
        3.09456          92.718            6.22 
        3.11026         92.5908         6.14189 
        3.12596          91.202         6.06513 
        3.14163         89.9554         5.98986 
        3.15734         89.2309         5.91569 
        3.17308         88.3632         5.84259 
        3.18879         87.1978         5.77093 
        3.20447         86.2958         5.70057 
         3.2202         85.3265         5.63117 
         3.2359         84.5594         5.56304 
        3.25157         83.6671          5.4962 
        3.26729         82.7454         5.43026 
        3.28304         82.2052         5.36527 
        3.29877         81.2879         5.30142 
        3.31446         80.4005         5.23876 
        3.33014         79.6914         5.17716 
        3.34585         78.8831         5.11645 
        3.36158         77.8761         5.05663 
        3.37727         76.9883         4.99794 
        3.39294         76.2337         4.94025 
        3.40867         75.4145         4.88325 
        3.42439         74.3906         4.82719 
        3.44008         73.7962         4.77211 
        3.45578         72.9908         4.71785 
        3.47153         72.5328         4.66431 
        3.48724         71.7182          4.6117 
        3.50292         71.0784         4.56002 
        3.51859         70.4276         4.50915 
        3.53431          69.849          4.4589 
        3.55007         68.9899          4.4093 
        3.56577         68.2033         4.36064 
        3.58146         67.7542         4.31274 
        3.59719         67.1206         4.26544 
        3.61292         66.3591         4.21887 
        3.62859         65.6655         4.17317 
        3.64429         64.9462         4.12806 
        3.66003         64.3658         4.08348 
        3.67578         63.6473         4.03957 
        3.69146         63.2243         3.99647 
        3.70712         62.4615         3.95407 
        3.72284         61.9896         3.91214 
        3.73853         61.3718         3.87088 
        3.75422          60.627          3.8302 
        3.76993         60.3538         3.79008 
        3.78564         59.4862         3.75054 
        3.80137         59.0058          3.7115 
        3.81707         58.4851         3.67309 
        3.83279         57.7202          3.6352 
        3.84853         57.3594         3.59778 
        3.86424         56.8123         3.56097 
        3.87992         56.3633         3.52471 
        3.89561          55.757         3.48897 
        3.91134         55.0818         3.45364 
        3.92704         54.9146         3.41884 
        3.94273         54.2947         3.38456 
        3.95845         53.8454         3.35068 
        3.97418          53.283         3.31726 
        3.98988         52.7698         3.28434 
        4.00554          52.475         3.25195 
        4.02125         51.8256         3.21991 
        4.03698          51.352         3.18825 
        4.05268         50.9276         3.15709 
        4.06839         50.4732         3.12632 
         4.0841         49.9701         3.09596 
        4.09983         49.4776         3.06597 
        4.11555         48.9845         3.03639 
        4.13124         48.5433         3.00728 
        4.14693         48.2737         2.97852 
        4.16266         47.7563         2.95007 
        4.17839         47.4239         2.92201 
        4.19408         46.9254         2.89438 
        4.20977         46.5341          2.8671 
        4.22551         46.1302          2.8401 
        4.24123         45.5683         2.81347 
        4.25691         45.2866         2.78726 
        4.27259         44.7186         2.76137 
        4.28831         44.4981         2.73576 
        4.30404          44.011         2.71045 
        4.31974         43.6476         2.68551 
        4.33543         43.2959         2.66091 
        4.35116         42.8636         2.63655 
        4.36688         42.5407          2.6125 
        4.38255         42.1265         2.58884 
        4.39825         41.7972         2.56543 
        4.41398         41.4376         2.54225 
         4.4297         41.1115         2.51939 
        4.44541         40.7449         2.49681 
        4.46111         40.3377         2.47453 
        4.47683          39.897          2.4525 
        4.49251         39.7691         2.43078 
        4.50819         39.2889         2.40933 
         4.5239         38.9952         2.38811 
        4.53962         38.5712         2.36712 
        4.55535         38.4055         2.34637 
        4.57106         38.1114          2.3259 
        4.58678         37.6814         2.30566 
         4.6025         37.3367         2.28567 
        4.61821         37.0477         2.26591 
        4.63391          36.731         2.24641 
         4.6496         36.3138         2.22715 
        4.66532          36.028         2.20808 
        4.68103         35.8125         2.18925 
        4.69673         35.4993         2.17065 
        4.71241         35.1576         2.15229 
        4.72811         35.0214         2.13411 
        4.74384          34.581         2.11611 
        4.75955         34.3421         2.09835 
        4.77525         34.0153          2.0808 
        4.79096         33.7121         2.06344 
        4.80669         33.4786         2.04626 
         4.8224         33.2378         2.02929 
        4.83809         32.9229         2.01254 
        4.85379         32.6737         1.99596 
         4.8695         32.3872         1.97956 
        4.88521         32.1023         1.96335 
        4.90093         31.8799         1.94732 
        4.91663         31.6651         1.93148 
        4.93234         31.3775          1.9158 
        4.94807         31.0642         1.90028 
        4.96377         30.8586         1.88496 
        4.97943         30.5919         1.86985 
        4.99514         30.3881         1.85486 
        5.01086         30.1655         1.84002 
        5.02654         29.9066         1.82538 
        5.04227         29.6337         1.81086 
          5.058         29.4664         1.79649 
        5.07371         29.1753         1.78231 
        5.08942         28.9769         1.76827 
        5.10513          28.795         1.75439 
        5.12084          28.531         1.74064 
        5.13656         28.2625         1.72705 
        5.15225         28.0876         1.71362 
        5.16796         27.7984         1.70032 
        5.18369         27.6391         1.68714 
         5.1994          27.427         1.67413 
        5.21509          27.235         1.66126 
        5.23079         26.9797         1.64852 
        5.24649         26.7509         1.63592 
        5.26217          26.568         1.62346 
        5.27788         26.3399         1.61111 
        5.29359         26.1645         1.59888 
        5.30933         25.9757         1.58677 
        5.32504         25.7218          1.5748 
        5.34073         25.5097         1.56297 
        5.35646         25.3313         1.55124 
        5.37218         25.1214         1.53962 
        5.38789         24.9746         1.52814 
        5.40357         24.7392         1.51679 
        5.41929         24.5885         1.50553 
        5.43502         24.4289         1.49439 
         5.4507         24.2195         1.48338 
        5.46639          24.034         1.47248 
        5.48212         23.9079         1.46167 
        5.49786         23.6445         1.45095 
        5.51353         23.5114         1.44039 
        5.52921         23.3048         1.42993 
        5.54495          23.183         1.41954 
        5.56066         23.0068         1.40926 
        5.57637          22.771         1.39909 
        5.59207         22.6421         1.38902 
        5.60778          22.441         1.37905 
        5.62346           22.27         1.36919 
        5.63916         22.1133         1.35942 
        5.65487         21.9662         1.34974 
         5.6706         21.7761         1.34014 
        5.68633         21.6309         1.33064 
        5.70203          21.431         1.32124 
        5.71773         21.3155         1.31194 
        5.73344         21.1242         1.30272 
        5.74916         20.9663         1.29358 
        5.76486         20.8641         1.28454 
        5.78054          20.688          1.2756 
        5.79626         20.5498         1.26672 
          5.812         20.4024         1.25791 
         5.8277         20.2676         1.24922 
        5.84339         20.0925          1.2406 
        5.85911         19.9037         1.23205 
        5.87484         19.8144         1.22359 
        5.89053         19.6795         1.21522 
        5.90623          19.523         1.20692 
        5.92195         19.3817         1.19869 
        5.93767         19.2335         1.19053 
        5.95336         19.1214         1.18247 
        5.96905         18.9498         1.17449 
        5.98476         18.8005         1.16656 
        6.00048          18.669         1.15871 
        6.01617         18.5578         1.15094 
        6.03185         18.4235         1.14325 
        6.04756          18.268         1.13561 
        6.06331         18.1719         1.12803 
        6.07903         18.0173         1.12053 
        6.09473         17.8995          1.1131 
        6.11044         17.7315         1.10574 
        6.12616         17.6402         1.09844 
        6.14186         17.5331         1.09122 
        6.15755         17.4021         1.08406 
        6.17326         17.2608         1.07696 
        6.18898         17.1449         1.06992 
        6.20467         17.0275         1.06296 
        6.22036         16.8838         1.05606 
         6.2361         16.8033          1.0492 
         6.2518         16.6721         1.04241 
        6.26748         16.5377          1.0357 
        6.28319         16.4538         1.02903 
        6.29893         16.3228         1.02241 
        6.31463         16.1911         1.01586 
        6.33033          16.063         1.00937 
        6.34604         15.9778         1.00293 
        6.36177         15.8643        0.996544 
        6.37747          15.783        0.990224 
