# k  (h/Mpc)    Pcb(k)  (Mpc/h)^3    Pcb_linear(k) (Mpc/h)^3   ShotnoiseSubtracted = true
      0.0200456           24802         25292.2 
      0.0350414         15649.6         16315.1 
      0.0492313         11216.5         11386.5 
      0.0637834         9515.01         9232.72 
      0.0800726         7079.85         6809.15 
       0.096163         4724.08         4738.96 
       0.111083         3861.15         3867.51 
       0.126058         3508.53         3383.91 
       0.142273         2933.59          2672.7 
       0.158546         2527.12         2076.46 
        0.17375         2035.01         1812.64 
       0.188953         1973.49         1617.82 
       0.204907         1814.56         1353.69 
       0.220756         1558.43         1133.91 
        0.23588         1398.13         1013.89 
         0.2514         1208.06         913.939 
       0.267535         1189.19         795.164 
       0.283568         1072.43          694.51 
       0.299022            1014         628.277 
       0.314451         959.273         572.095 
       0.330372          877.13         512.326 
       0.346141         828.396         460.527 
       0.361624         795.285         421.038 
       0.377134         737.403         386.719 
       0.392932         700.446         352.994 
       0.408854         687.405          322.53 
       0.424564         630.362         297.375 
       0.440253         620.844         275.173 
       0.455999         590.677         254.362 
       0.471626         570.292         235.622 
        0.48727         542.426         219.145 
       0.502856         525.762         204.381 
       0.518488         518.564         190.732 
       0.534347         484.455          178.05 
       0.550082         469.029         166.712 
       0.565732         466.648         156.443 
       0.581496         436.337         146.918 
       0.597222         428.061         138.158 
       0.612804          418.28         130.208 
       0.628434         404.717         122.873 
       0.644267         393.158         116.009 
       0.660051         380.661         109.679 
       0.675724         375.507         103.853 
       0.691403         361.651         98.4422 
       0.707174         349.282         93.3837 
       0.722871         343.885         88.6978 
        0.73838         338.447         84.3808 
       0.754018         329.158         80.3163 
       0.769845         322.276         76.4733 
        0.78569         316.398         72.8763 
       0.801365         307.451         69.5439 
       0.817031         297.843         66.4205 
       0.832809         295.352         63.4676 
       0.848511         287.464         60.7058 
       0.864097         280.022          58.126 
       0.879701         274.942         55.6924 
       0.895507         271.009         53.3683 
       0.911279         263.101         51.1806 
        0.92691         260.005         49.1325 
       0.942635         252.513         47.1844 
       0.958396         247.774         45.3369 
       0.974128         242.979         43.5908 
       0.989692         240.071         41.9532 
        1.00528         234.399         40.3967 
        1.02113         230.987         38.8942 
        1.03692         226.153         37.4732 
        1.05264         223.422         36.1291 
        1.06832         217.171         34.8525 
        1.08405         213.863         33.6338 
        1.09979         209.257         32.4723 
        1.11537         206.941         31.3766 
        1.13105         201.751         30.3246 
        1.14679         196.978         29.3164 
        1.16256         195.257         28.3518 
        1.17828         193.577         27.4334 
        1.19395         188.464         26.5584 
         1.2097         186.308         25.7169 
        1.22537         183.104         24.9156 
          1.241          181.39         24.1506 
        1.25666         178.622         23.4155 
        1.27241         174.919         22.7073 
        1.28819         172.443          22.027 
        1.30392         168.585         21.3763 
        1.31957         168.266         20.7546 
        1.33529         164.785         20.1551 
        1.35108         160.616         19.5767 
        1.36674          158.86          19.025 
         1.3824         158.352         18.4948 
        1.39811         155.248         17.9829 
        1.41389         152.791         17.4883 
        1.42964          150.96         17.0129 
        1.44531         148.758         16.5574 
        1.46101          145.53         16.1174 
        1.47667         143.451         15.6946 
        1.49229         142.965          15.288 
        1.50793         139.053         14.8951 
        1.52367         137.927         14.5135 
        1.53953         135.979         14.1425 
        1.55526         133.266         13.7873 
        1.57092         131.721         13.4457 
        1.58662         130.363         13.1148 
        1.60235         127.979         12.7942 
        1.61809         127.035         12.4841 
        1.63369         124.532          12.187 
        1.64941         121.726         11.8973 
        1.66519         120.695         11.6159 
        1.68085         119.258         11.3455 
        1.69652         118.241         11.0836 
        1.71228         115.592         10.8283 
        1.72806         113.857         10.5809 
        1.74368         113.139         10.3435 
        1.75933         110.939          10.113 
        1.77505         109.973         9.88826 
        1.79081         108.639         9.66993 
         1.8065         106.746         9.45906 
        1.82218         105.715         9.25461 
        1.83797         103.969         9.05474 
        1.85367         102.566         8.86183 
        1.86928         100.999         8.67564 
        1.88497         100.011         8.49373 
        1.90073         98.4262         8.31632 
        1.91647         97.0303         8.14409 
        1.93218         95.9916         7.97705 
        1.94787         94.1283          7.8149 
        1.96363         93.1164         7.65657 
        1.97935         91.9348         7.50291 
        1.99499         90.7199         7.35429 
        2.01064         89.3675         7.20945 
         2.0264         88.4715         7.06756 
        2.04216         87.2715         6.92952 
        2.05781         86.2845           6.796 
        2.07353         85.6539         6.66549 
        2.08928         83.4878         6.53809 
        2.10499         82.5597         6.41433 
        2.12065         81.5333         6.29411 
        2.13633         80.5923         6.17683 
        2.15211         79.5802         6.06176 
        2.16785         78.2721         5.94992 
        2.18349         77.2837         5.84157 
        2.19916         76.5403         5.73566 
        2.21489         75.6519           5.632 
        2.23063         74.4639         5.53081 
         2.2463         73.6835         5.43253 
        2.26194         72.4814         5.33686 
        2.27765         71.4269         5.24298 
        2.29341         71.0186          5.1511 
        2.30914         69.8476         5.06158 
        2.32486         69.2482         4.97422 
        2.34061         68.3348         4.88875 
        2.35635          67.228         4.80535 
        2.37203         66.3384         4.72416 
        2.38768         65.4871           4.645 
        2.40339         64.7541         4.56735 
        2.41914         63.9542         4.49127 
        2.43483          63.247         4.41718 
         2.4505         62.2602         4.34486 
        2.46622         61.5821          4.2739 
        2.48195         60.7968         4.20451 
        2.49759         59.9921           4.137 
        2.51328         59.5877         4.07079 
        2.52906          58.682          4.0056 
        2.54479         57.8569         3.94206 
        2.56049         57.1853         3.88001 
        2.57618         56.7479         3.81933 
        2.59189         55.8455         3.75985 
        2.60758         55.1562         3.70171 
        2.62325         54.5551         3.64486 
        2.63898         53.6972         3.58899 
        2.65468         53.2616          3.5344 
        2.67044         52.7033          3.4807 
        2.68618           52.16         3.42823 
        2.70184         51.7108         3.37704 
        2.71755         50.9224         3.32675 
        2.73329         50.2663         3.27741 
        2.74897         49.8552         3.22921 
        2.76462         49.0467         3.18207 
        2.78034         48.6405         3.13568 
        2.79607         48.0437         3.09015 
        2.81179          47.561         3.04557 
        2.82749         47.0342          3.0019 
        2.84321         46.4877         2.95904 
        2.85893          45.922         2.91702 
        2.87462         45.4497         2.87587 
        2.89033         44.8915         2.83548 
        2.90605         44.3142         2.79581 
        2.92176         43.8044         2.75692 
        2.93747         43.4063         2.71878 
        2.95318         42.9474         2.68134 
        2.96891         42.4033         2.64459 
        2.98456         41.9361         2.60868 
        3.00023         41.3839         2.57337 
        3.01596         40.9243         2.53861 
        3.03164          40.437         2.50457 
        3.04738         40.1519         2.47106 
         3.0631         39.5661         2.43816 
        3.07883         39.2872         2.40586 
        3.09456         38.8173         2.37414 
        3.11026          38.288         2.34303 
        3.12596         37.7698         2.31248 
        3.14163         37.6367         2.28254 
        3.15734         37.1333         2.25305 
        3.17308         36.7064         2.22401 
        3.18879          36.346         2.19555 
        3.20447         35.8576         2.16762 
         3.2202         35.5633         2.14009 
         3.2359          35.268         2.11309 
        3.25157          34.685          2.0866 
        3.26729         34.3529         2.06049 
        3.28304         34.1256         2.03477 
        3.29877         33.7299         2.00951 
        3.31446         33.1003         1.98474 
        3.33014         32.9858          1.9604 
        3.34585         32.5782         1.93642 
        3.36158         32.3574         1.91281 
        3.37727           32.01         1.88966 
        3.39294         31.7371         1.86691 
        3.40867         31.2716         1.84445 
        3.42439          31.014         1.82237 
        3.44008         30.7021         1.80068 
        3.45578         30.3198         1.77933 
        3.47153         30.0756         1.75828 
        3.48724         29.7558          1.7376 
        3.50292         29.4656         1.71729 
        3.51859         29.1969         1.69732 
        3.53431         28.8131          1.6776 
        3.55007         28.4777         1.65814 
        3.56577         28.3003         1.63907 
        3.58146         28.0365         1.62029 
        3.59719         27.7369         1.60177 
        3.61292         27.4805         1.58354 
        3.62859         27.2072         1.56565 
        3.64429         26.9139         1.54801 
        3.66003         26.6671         1.53058 
        3.67578         26.4217         1.51343 
        3.69146         26.1709         1.49659 
        3.70712         25.8998         1.48005 
        3.72284         25.6383         1.46368 
        3.73853         25.3306          1.4476 
        3.75422         25.1495         1.43174 
        3.76993         24.9191         1.41611 
        3.78564         24.6683         1.40071 
        3.80137         24.4127         1.38551 
        3.81707         24.2004         1.37057 
        3.83279         23.8858         1.35584 
        3.84853         23.6876         1.34129 
        3.86424         23.5896         1.32699 
        3.87992         23.2654         1.31291 
        3.89561         23.1379         1.29903 
        3.91134         22.8613         1.28532 
        3.92704         22.6279         1.27183 
        3.94273         22.3481         1.25854 
        3.95845         22.2576         1.24541 
        3.97418         21.9868         1.23247 
        3.98988         21.7625         1.21972 
        4.00554         21.6054         1.20719 
        4.02125         21.3601          1.1948 
        4.03698         21.2535         1.18256 
        4.05268         21.0831         1.17051 
        4.06839         20.8611         1.15863 
         4.0841         20.6578         1.14691 
        4.09983         20.4168         1.13533 
        4.11555         20.2089         1.12392 
        4.13124         20.0266         1.11269 
        4.14693         19.9004         1.10161 
        4.16266         19.6662         1.09065 
        4.17839         19.4939         1.07984 
        4.19408         19.3227          1.0692 
        4.20977         19.1124          1.0587 
        4.22551         18.9375         1.04832 
        4.24123          18.761         1.03808 
        4.25691         18.6387         1.02801 
        4.27259         18.4573         1.01806 
        4.28831         18.3115         1.00823 
        4.30404         18.1543        0.998511 
        4.31974         17.9981        0.988942 
        4.33543         17.8153        0.979503 
        4.35116          17.665        0.970164 
        4.36688         17.5452        0.960948 
        4.38255         17.3501        0.951885 
        4.39825          17.255        0.942918 
        4.41398           17.04        0.934047 
         4.4297         16.9234        0.925299 
        4.44541         16.7616        0.916663 
        4.46111         16.6238        0.908143 
        4.47683         16.5116        0.899723 
        4.49251         16.3068        0.891426 
        4.50819         16.1644        0.883235 
         4.5239         16.0775        0.875134 
        4.53962         15.9408        0.867123 
        4.55535         15.8162        0.859208 
        4.57106         15.6646        0.851401 
        4.58678         15.5336        0.843689 
         4.6025         15.3917         0.83607 
        4.61821         15.2372        0.828544 
        4.63391         15.1045        0.821121 
         4.6496         15.0392         0.81379 
        4.66532         14.8545        0.806536 
        4.68103         14.7479        0.799373 
        4.69673         14.6273        0.792303 
        4.71241         14.4717        0.785324 
        4.72811         14.3584        0.778417 
        4.74384         14.2419        0.771583 
        4.75955         14.1634        0.764841 
        4.77525         14.0108        0.758182 
        4.79096         13.9407        0.751594 
        4.80669         13.7657        0.745079 
         4.8224         13.6752        0.738649 
        4.83809         13.5518          0.7323 
        4.85379         13.4752        0.726021 
         4.8695         13.3579         0.71981 
        4.88521         13.2324        0.713674 
        4.90093         13.1114        0.707607 
        4.91663         13.0614        0.701615 
        4.93234         12.9315        0.695686 
        4.94807         12.8388         0.68982 
        4.96377         12.7258        0.684033 
        4.97943         12.6032        0.678323 
        4.99514         12.5139        0.672663 
        5.01086         12.4165        0.667062 
        5.02654         12.3071        0.661539 
        5.04227         12.2405        0.656061 
          5.058         12.1248        0.650642 
        5.07371         12.0298        0.645295 
        5.08942         11.9253        0.640006 
        5.10513         11.8181        0.634775 
        5.12084         11.7541        0.629599 
        5.13656         11.6348        0.624481 
        5.15225          11.564        0.619428 
        5.16796         11.4759        0.614423 
        5.18369         11.3793        0.609467 
         5.1994         11.2843        0.604575 
        5.21509          11.239         0.59974 
        5.23079         11.1235        0.594952 
        5.24649         11.0316        0.590219 
        5.26217         10.9382         0.58554 
        5.27788         10.8691        0.580905 
        5.29359         10.7812        0.576319 
        5.30933         10.6714        0.571775 
        5.32504          10.603        0.567287 
        5.34073         10.5374        0.562851 
        5.35646         10.4334        0.558454 
        5.37218         10.3621        0.554102 
        5.38789         10.2898        0.549803 
        5.40357         10.1946        0.545554 
        5.41929         10.1374         0.54134 
        5.43502         10.0395         0.53717 
         5.4507         9.97944        0.533053 
        5.46639         9.89974        0.528978 
        5.48212         9.83692        0.524936 
        5.49786         9.73817         0.52093 
        5.51353         9.67992        0.516986 
        5.52921         9.60408        0.513078 
        5.54495         9.54233        0.509199 
        5.56066         9.48066        0.505364 
        5.57637         9.40076        0.501568 
        5.59207         9.34036        0.497814 
        5.60778         9.25656        0.494097 
        5.62346         9.17993        0.490422 
        5.63916          9.1199        0.486781 
        5.65487         9.04267        0.483174 
         5.6706         8.99631          0.4796 
        5.68633         8.93307         0.47606 
        5.70203         8.85908        0.472562 
        5.71773          8.7925          0.4691 
        5.73344         8.73647         0.46567 
        5.74916         8.68216        0.462271 
        5.76486         8.60721         0.45891 
        5.78054         8.53804        0.455588 
        5.79626         8.49352        0.452289 
          5.812         8.40229        0.449018 
         5.8277         8.36664        0.445789 
        5.84339         8.29667        0.442592 
        5.85911         8.25427        0.439419 
        5.87484         8.18824        0.436278 
        5.89053         8.13325        0.433174 
        5.90623          8.0767        0.430097 
        5.92195         8.01872        0.427045 
        5.93767         7.95655        0.424024 
        5.95336         7.90525        0.421037 
        5.96905         7.84658         0.41808 
        5.98476         7.79321        0.415146 
        6.00048         7.74297        0.412239 
        6.01617         7.67797        0.409364 
        6.03185         7.62368        0.406519 
        6.04756         7.57403        0.403694 
        6.06331         7.53634         0.40089 
        6.07903         7.46943        0.398118 
        6.09473         7.42526        0.395374 
        6.11044         7.35839        0.392654 
        6.12616         7.32154        0.389959 
        6.14186         7.26554        0.387292 
        6.15755         7.22006         0.38465 
        6.17326         7.16362         0.38203 
        6.18898         7.13316        0.379433 
        6.20467         7.07937        0.376864 
        6.22036         7.02202         0.37432 
         6.2361         6.97695        0.371791 
         6.2518          6.9223         0.36929 
        6.26748         6.87118        0.366817 
        6.28319         6.83963         0.36436 
        6.29893         6.77499        0.361922 
        6.31463         6.74919        0.359511 
        6.33033         6.69164        0.357123 
        6.34604         6.64878        0.354754 
        6.36177         6.61848        0.352404 
        6.37747         6.57295         0.35008 
