# k  (h/Mpc)    Pcb(k)  (Mpc/h)^3    Pcb_linear(k) (Mpc/h)^3   ShotnoiseSubtracted = true
      0.0200456           38442         39135.7 
      0.0350414         26453.3         25245.1 
      0.0492313         17158.7         17618.8 
      0.0637834         13522.2         14286.2 
      0.0800726         9974.71         10536.1 
       0.096163         8004.08         7332.79 
       0.111083         6537.87         5984.36 
       0.126058         5362.17         5236.07 
       0.142273         4599.15         4135.59 
       0.158546         3702.38         3212.99 
        0.17375         3398.79         2804.77 
       0.188953          3274.9         2503.32 
       0.204907         2772.64         2094.62 
       0.220756         2533.23         1754.55 
        0.23588         2258.09         1568.84 
         0.2514         2059.77         1414.18 
       0.267535         1959.34         1230.39 
       0.283568         1774.02         1074.65 
       0.299022         1663.78          972.16 
       0.314451         1738.69         885.227 
       0.330372         1579.83         792.744 
       0.346141         1462.16         712.593 
       0.361624         1390.45          651.49 
       0.377134            1356         598.387 
       0.392932         1252.57         546.203 
       0.408854         1226.32         499.064 
       0.424564          1193.2         460.141 
       0.440253         1132.92         425.786 
       0.455999         1073.68         393.586 
       0.471626         1075.57         364.588 
        0.48727         1016.41         339.093 
       0.502856         1008.18         316.248 
       0.518488          958.64         295.128 
       0.534347         936.368         275.504 
       0.550082         906.769          257.96 
       0.565732         874.746         242.071 
       0.581496         859.257         227.332 
       0.597222         844.911         213.777 
       0.612804         816.691         201.476 
       0.628434         792.321         190.127 
       0.644267         772.783         179.505 
       0.660051         757.134         169.711 
       0.675724         742.574         160.696 
       0.691403         713.413         152.324 
       0.707174         699.777         144.497 
       0.722871         701.425         137.246 
        0.73838         666.769         130.566 
       0.754018         665.936         124.277 
       0.769845         644.427          118.33 
        0.78569         633.084         112.765 
       0.801365         618.902         107.608 
       0.817031         603.932         102.775 
       0.832809         598.299         98.2061 
       0.848511         573.599         93.9327 
       0.864097         571.017         89.9408 
       0.879701         565.345         86.1752 
       0.895507         552.346          82.579 
       0.911279         548.544         79.1939 
        0.92691         534.639         76.0248 
       0.942635         523.762         73.0104 
       0.958396         516.099         70.1517 
       0.974128         501.598           67.45 
       0.989692         498.786          64.916 
        1.00528         484.229         62.5075 
        1.02113         474.397         60.1827 
        1.03692         469.636         57.9838 
        1.05264         460.016         55.9041 
        1.06832         453.361         53.9288 
        1.08405         448.854         52.0431 
        1.09979         437.373         50.2457 
        1.11537         425.995         48.5503 
        1.13105         420.086         46.9225 
        1.14679         416.046         45.3625 
        1.16256         407.623         43.8699 
        1.17828         402.436         42.4488 
        1.19395          396.61          41.095 
         1.2097         388.181         39.7928 
        1.22537         379.948         38.5529 
          1.241         375.401         37.3692 
        1.25666         365.639         36.2318 
        1.27241         362.354          35.136 
        1.28819         356.241         34.0834 
        1.30392         352.432         33.0765 
        1.31957         343.451         32.1145 
        1.33529         341.207         31.1868 
        1.35108         336.988         30.2919 
        1.36674         329.549         29.4381 
         1.3824         325.607         28.6178 
        1.39811         320.532         27.8257 
        1.41389         316.139         27.0603 
        1.42964         307.761         26.3248 
        1.44531         306.165         25.6199 
        1.46101         298.908         24.9392 
        1.47667          293.52         24.2849 
        1.49229         291.705         23.6557 
        1.50793         282.828         23.0479 
        1.52367         282.564         22.4573 
        1.53953         275.825         21.8833 
        1.55526         271.035         21.3337 
        1.57092         268.139         20.8051 
        1.58662         263.988         20.2931 
        1.60235         260.738         19.7971 
        1.61809         254.688         19.3172 
        1.63369         250.092         18.8574 
        1.64941         249.252         18.4092 
        1.66519         243.587         17.9738 
        1.68085          238.49         17.5554 
        1.69652         236.675         17.1501 
        1.71228         233.155         16.7551 
        1.72806         228.732         16.3722 
        1.74368         224.977          16.005 
        1.75933         223.049         15.6482 
        1.77505         219.871         15.3005 
        1.79081         215.899         14.9627 
         1.8065         214.078         14.6364 
        1.82218         209.244         14.3201 
        1.83797         206.681         14.0108 
        1.85367         204.208         13.7123 
        1.86928         200.278         13.4242 
        1.88497         199.252         13.1427 
        1.90073         194.969         12.8682 
        1.91647         193.622         12.6017 
        1.93218         189.372         12.3432 
        1.94787         187.672         12.0923 
        1.96363         185.017         11.8473 
        1.97935         180.639         11.6096 
        1.99499         179.241         11.3796 
        2.01064         176.248         11.1555 
         2.0264         173.899         10.9359 
        2.04216         172.185         10.7223 
        2.05781         169.531         10.5157 
        2.07353         167.287         10.3138 
        2.08928         165.058         10.1167 
        2.10499         163.101         9.92516 
        2.12065         159.732         9.73914 
        2.13633         158.023         9.55768 
        2.15211         155.695         9.37963 
        2.16785          153.92         9.20656 
        2.18349         152.238          9.0389 
        2.19916         150.227         8.87503 
        2.21489          147.95         8.71463 
        2.23063         145.334         8.55805 
         2.2463         144.021         8.40598 
        2.26194         141.489         8.25795 
        2.27765         139.725         8.11269 
        2.29341         138.237         7.97051 
        2.30914         136.646           7.832 
        2.32486         135.569         7.69682 
        2.34061         132.757         7.56458 
        2.35635         131.106         7.43553 
        2.37203         129.996          7.3099 
        2.38768         127.882         7.18741 
        2.40339         126.523         7.06725 
        2.41914         124.975         6.94954 
        2.43483         122.717         6.83489 
         2.4505         121.977         6.72299 
        2.46622         120.082         6.61319 
        2.48195          118.75         6.50581 
        2.49759         116.945         6.40136 
        2.51328         115.201         6.29891 
        2.52906         114.156         6.19803 
        2.54479         112.979         6.09972 
        2.56049         111.151          6.0037 
        2.57618         109.994         5.90981 
        2.59189         108.864         5.81777 
        2.60758         107.208         5.72781 
        2.62325         106.177         5.63985 
        2.63898             105          5.5534 
        2.65468         103.143         5.46893 
        2.67044         102.022         5.38584 
        2.68618         101.366         5.30465 
        2.70184         100.037         5.22544 
        2.71755         98.5847         5.14763 
        2.73329         97.6379         5.07127 
        2.74897         96.5281         4.99669 
        2.76462         95.4616         4.92376 
        2.78034         94.2311         4.85197 
        2.79607         93.1639         4.78152 
        2.81179         91.7981         4.71254 
        2.82749         90.9259         4.64497 
        2.84321         89.7699         4.57865 
        2.85893         88.6286         4.51362 
        2.87462         87.7012         4.44996 
        2.89033         86.4984         4.38745 
        2.90605         85.5838         4.32608 
        2.92176         84.6869          4.2659 
        2.93747         83.9561         4.20688 
        2.95318         82.6018         4.14896 
        2.96891         81.7707         4.09208 
        2.98456         81.1326         4.03652 
        3.00023         79.9467         3.98189 
        3.01596         78.9981         3.92809 
        3.03164         78.1342         3.87544 
        3.04738         77.6696         3.82358 
         3.0631         76.7428         3.77268 
        3.07883         75.9539         3.72269 
        3.09456         75.1843          3.6736 
        3.11026         74.3762         3.62547 
        3.12596         73.3807          3.5782 
        3.14163         72.7251         3.53187 
        3.15734         71.9508         3.48624 
        3.17308         70.9087          3.4413 
        3.18879         70.0167         3.39726 
        3.20447         69.4675         3.35406 
         3.2202         68.5734         3.31146 
         3.2359         67.9318         3.26967 
        3.25157          67.349         3.22869 
        3.26729         66.6668         3.18828 
        3.28304         66.0086         3.14848 
        3.29877          65.022         3.10941 
        3.31446         64.6022         3.07107 
        3.33014         63.8951         3.03341 
        3.34585         63.3763         2.99631 
        3.36158         62.5699         2.95977 
        3.37727         61.9009         2.92395 
        3.39294         61.2374         2.88875 
        3.40867         60.6709         2.85399 
        3.42439          59.985         2.81982 
        3.44008         59.3921         2.78627 
        3.45578         58.6782         2.75324 
        3.47153          58.335         2.72066 
        3.48724         57.6544         2.68866 
        3.50292         57.1977         2.65724 
        3.51859         56.5015         2.62634 
        3.53431         55.9535         2.59582 
        3.55007         55.3292         2.56571 
        3.56577         54.8244          2.5362 
        3.58146         54.2468         2.50715 
        3.59719         53.8256         2.47848 
        3.61292         53.0333         2.45027 
        3.62859         52.6722          2.4226 
        3.64429         52.4206          2.3953 
        3.66003         51.5133         2.36834 
        3.67578           51.05         2.34179 
        3.69146         50.6638         2.31574 
        3.70712         50.1157         2.29014 
        3.72284         49.6417         2.26482 
        3.73853          49.085         2.23993 
        3.75422         48.6039         2.21539 
        3.76993         48.1641          2.1912 
        3.78564         47.7321         2.16738 
        3.80137         47.1917         2.14386 
        3.81707         46.7162         2.12074 
        3.83279         46.3515         2.09794 
        3.84853         45.9063         2.07544 
        3.86424         45.6044          2.0533 
        3.87992         45.0987         2.03152 
        3.89561          44.828         2.01005 
        3.91134         44.2497         1.98884 
        3.92704         43.9063         1.96796 
        3.94273           43.37         1.94739 
        3.95845         42.9268         1.92708 
        3.97418            42.6         1.90705 
        3.98988         42.1641         1.88733 
        4.00554         41.7681         1.86794 
        4.02125          41.404         1.84876 
        4.03698         40.9798         1.82982 
        4.05268         40.6776         1.81119 
        4.06839         40.2737         1.79279 
         4.0841         39.9885         1.77466 
        4.09983         39.5846         1.75675 
        4.11555         39.1892         1.73909 
        4.13124         39.0003         1.72172 
        4.14693          38.464         1.70457 
        4.16266         38.2091         1.68761 
        4.17839         37.9009         1.67089 
        4.19408         37.5393         1.65443 
        4.20977          37.065         1.63818 
        4.22551         36.8121         1.62211 
        4.24123         36.5501         1.60627 
        4.25691          36.123         1.59068 
        4.27259         35.8775         1.57529 
        4.28831         35.4727         1.56007 
        4.30404         35.2954         1.54504 
        4.31974         34.8318         1.53023 
        4.33543         34.6663         1.51563 
        4.35116          34.196         1.50118 
        4.36688         34.0827         1.48692 
        4.38255         33.5923         1.47289 
        4.39825          33.289         1.45902 
        4.41398         33.1277         1.44529 
         4.4297         32.8423         1.43175 
        4.44541         32.4925         1.41839 
        4.46111         32.2399         1.40521 
        4.47683         32.0392         1.39218 
        4.49251         31.6819         1.37934 
        4.50819         31.4137         1.36667 
         4.5239         31.0838         1.35413 
        4.53962         30.8925         1.34174 
        4.55535         30.6335         1.32949 
        4.57106         30.2847         1.31741 
        4.58678         30.0724         1.30548 
         4.6025         29.8575         1.29369 
        4.61821         29.5737         1.28204 
        4.63391         29.2704         1.27055 
         4.6496         29.0679         1.25921 
        4.66532         28.8017         1.24799 
        4.68103         28.5446          1.2369 
        4.69673         28.2938         1.22596 
        4.71241         28.1379         1.21517 
        4.72811         27.8655         1.20448 
        4.74384         27.6442          1.1939 
        4.75955         27.4008         1.18347 
        4.77525         27.2631         1.17317 
        4.79096         26.9241         1.16297 
        4.80669         26.7572         1.15289 
         4.8224         26.5493         1.14294 
        4.83809         26.3213         1.13312 
        4.85379           26.08          1.1234 
         4.8695         25.8709         1.11379 
        4.88521         25.6102          1.1043 
        4.90093         25.4187         1.09491 
        4.91663         25.2997         1.08564 
        4.93234          25.047         1.07646 
        4.94807         24.8274         1.06739 
        4.96377         24.6545         1.05843 
        4.97943         24.4582          1.0496 
        4.99514         24.2265         1.04084 
        5.01086         24.0558         1.03217 
        5.02654         23.7476         1.02363 
        5.04227         23.6851         1.01515 
          5.058         23.4669         1.00677 
        5.07371         23.2768        0.998492 
        5.08942         23.0721        0.990308 
        5.10513          22.876        0.982214 
        5.12084         22.7026        0.974205 
        5.13656         22.5285        0.966287 
        5.15225         22.3593        0.958468 
        5.16796         22.2261        0.950723 
        5.18369         22.0767        0.943055 
         5.1994         21.8371        0.935485 
        5.21509          21.644        0.928003 
        5.23079         21.4922        0.920594 
        5.24649         21.3509        0.913271 
        5.26217         21.1239        0.906031 
        5.27788           21.03        0.898859 
        5.29359         20.8322        0.891763 
        5.30933         20.7252        0.884731 
        5.32504          20.561        0.877787 
        5.34073         20.4079        0.870924 
        5.35646          20.197         0.86412 
        5.37218         20.0634        0.857386 
        5.38789         19.8998        0.850734 
        5.40357         19.7877        0.844159 
        5.41929         19.6292        0.837639 
        5.43502         19.4644        0.831186 
         5.4507         19.3181        0.824816 
        5.46639         19.1718         0.81851 
        5.48212         18.9784        0.812256 
        5.49786         18.8603        0.806058 
        5.51353         18.7314        0.799955 
        5.52921         18.6145        0.793908 
        5.54495         18.4728        0.787906 
        5.56066         18.2889        0.781971 
        5.57637         18.1681        0.776098 
        5.59207          18.049        0.770289 
        5.60778         17.9156        0.764537 
        5.62346         17.7437        0.758851 
        5.63916          17.647        0.753217 
        5.65487         17.5107        0.747636 
         5.6706         17.3678        0.742105 
        5.68633         17.2332        0.736627 
        5.70203         17.1232        0.731216 
        5.71773         17.0031        0.725858 
        5.73344         16.8717        0.720552 
        5.74916         16.7488        0.715292 
        5.76486         16.6116        0.710092 
        5.78054         16.5208        0.704951 
        5.79626          16.364        0.699845 
          5.812         16.2445        0.694785 
         5.8277         16.1446        0.689789 
        5.84339         16.0292        0.684842 
        5.85911         15.8653        0.679933 
        5.87484         15.8158        0.675072 
        5.89053         15.6877        0.670268 
        5.90623         15.5572        0.665508 
        5.92195         15.4662        0.660786 
        5.93767         15.3204        0.656111 
        5.95336           15.24        0.651489 
        5.96905         15.1266        0.646912 
        5.98476         15.0231        0.642373 
        6.00048         14.9248        0.637875 
        6.01617         14.8298        0.633426 
        6.03185         14.6806        0.629024 
        6.04756         14.6016        0.624653 
        6.06331         14.5125        0.620314 
        6.07903          14.371        0.616025 
        6.09473         14.3194         0.61178 
        6.11044         14.1979         0.60757 
        6.12616          14.116          0.6034 
        6.14186         13.9861        0.599274 
        6.15755         13.8921        0.595185 
        6.17326         13.7918        0.591131 
        6.18898         13.7081        0.587113 
        6.20467         13.5923        0.583138 
        6.22036         13.5131        0.579201 
         6.2361         13.4338        0.575288 
         6.2518         13.3267        0.571418 
        6.26748         13.2423        0.567592 
        6.28319         13.1345        0.563789 
        6.29893         13.0707        0.560018 
        6.31463         12.9739        0.556287 
        6.33033         12.8592        0.552591 
        6.34604         12.7898        0.548926 
        6.36177         12.7298         0.54529 
        6.37747         12.6074        0.541694 
