# k  (h/Mpc)    Pcb(k)  (Mpc/h)^3    Pcb_linear(k) (Mpc/h)^3   ShotnoiseSubtracted = true
      0.0200456         30427.5         30921.6 
      0.0350414         20842.6         19946.5 
      0.0492313         13643.9         13920.8 
      0.0637834         10745.3         11287.7 
      0.0800726         7925.72         8324.69 
       0.096163         6271.79         5793.72 
       0.111083         5138.31         4728.32 
       0.126058         4206.05         4137.08 
       0.142273         3570.82         3267.58 
       0.158546         2881.03         2538.62 
        0.17375         2613.05         2216.08 
       0.188953         2484.87         1977.91 
       0.204907         2097.61         1654.98 
       0.220756         1898.82         1386.29 
        0.23588         1693.31         1239.56 
         0.2514         1530.94         1117.36 
       0.267535          1461.2         972.146 
       0.283568         1305.73          849.09 
       0.299022         1230.22         768.115 
       0.314451         1287.95         699.428 
       0.330372         1142.17         626.356 
       0.346141         1045.85         563.028 
       0.361624         999.647          514.75 
       0.377134          963.14         472.792 
       0.392932         900.755         431.561 
       0.408854         871.353         394.316 
       0.424564         850.594         363.563 
       0.440253         790.875         336.419 
       0.455999         751.363         310.977 
       0.471626         762.443         288.065 
        0.48727         714.493         267.921 
       0.502856         698.486         249.871 
       0.518488         665.991         233.184 
       0.534347         648.074         217.679 
       0.550082         617.433         203.817 
       0.565732         602.035         191.263 
       0.581496         588.025         179.618 
       0.597222         576.463         168.908 
       0.612804         559.288         159.189 
       0.628434         536.271         150.221 
       0.644267         520.811         141.829 
       0.660051         514.888          134.09 
       0.675724          502.29         126.968 
       0.691403         483.344         120.353 
       0.707174         470.555         114.168 
       0.722871         471.677          108.44 
        0.73838         452.093         103.162 
       0.754018         443.446         98.1925 
       0.769845         436.703         93.4942 
        0.78569         426.545         89.0966 
       0.801365         412.726         85.0226 
       0.817031         406.208          81.204 
       0.832809         400.916         77.5938 
       0.848511         393.069         74.2173 
       0.864097         382.412         71.0633 
       0.879701         384.164          68.088 
       0.895507         369.105         65.2466 
       0.911279         364.315          62.572 
        0.92691         357.984         60.0681 
       0.942635         351.469         57.6864 
       0.958396         341.503         55.4276 
       0.974128         334.397          53.293 
       0.989692         328.742         51.2909 
        1.00528          320.29         49.3879 
        1.02113         316.877          47.551 
        1.03692         311.541         45.8137 
        1.05264         307.301         44.1705 
        1.06832         299.692         42.6098 
        1.08405         297.893         41.1198 
        1.09979         290.763         39.6997 
        1.11537         283.193         38.3602 
        1.13105         279.812          37.074 
        1.14679         274.919         35.8415 
        1.16256         272.009         34.6621 
        1.17828         268.416         33.5393 
        1.19395         262.116         32.4696 
         1.2097         257.748         31.4408 
        1.22537         254.556         30.4611 
          1.241         248.655         29.5258 
        1.25666         245.666         28.6272 
        1.27241         243.614         27.7614 
        1.28819         237.413         26.9297 
        1.30392          235.99         26.1341 
        1.31957         230.302          25.374 
        1.33529         225.587         24.6411 
        1.35108         225.316          23.934 
        1.36674         221.075         23.2594 
         1.3824         215.886         22.6113 
        1.39811         212.268         21.9854 
        1.41389         209.563         21.3807 
        1.42964         205.824         20.7995 
        1.44531         203.872         20.2426 
        1.46101         198.839         19.7047 
        1.47667         195.951         19.1878 
        1.49229         194.955         18.6906 
        1.50793         190.166         18.2104 
        1.52367         187.824         17.7438 
        1.53953         184.909         17.2902 
        1.55526         181.028          16.856 
        1.57092         179.898         16.4384 
        1.58662         176.878         16.0338 
        1.60235         173.572         15.6419 
        1.61809         171.747         15.2628 
        1.63369         168.138         14.8995 
        1.64941          166.75         14.5453 
        1.66519         163.174         14.2013 
        1.68085         160.378         13.8707 
        1.69652         159.067         13.5505 
        1.71228         156.694         13.2384 
        1.72806         154.722         12.9359 
        1.74368         151.965         12.6457 
        1.75933         150.338         12.3638 
        1.77505         148.069         12.0891 
        1.79081         145.501         11.8222 
         1.8065         144.369         11.5644 
        1.82218         140.816         11.3144 
        1.83797          139.48         11.0701 
        1.85367         137.786         10.8342 
        1.86928         135.526         10.6066 
        1.88497         135.013         10.3842 
        1.90073         132.503         10.1673 
        1.91647         130.466         9.95675 
        1.93218         128.542         9.75253 
        1.94787         125.872         9.55429 
        1.96363         125.204         9.36072 
        1.97935         123.543         9.17286 
        1.99499         121.693         8.99116 
        2.01064         119.887         8.81408 
         2.0264         118.725         8.64061 
        2.04216         116.561         8.47185 
        2.05781         114.956         8.30861 
        2.07353         113.786         8.14905 
        2.08928         111.559          7.9933 
        2.10499         110.731         7.84199 
        2.12065         109.689         7.69501 
        2.13633         107.849         7.55163 
        2.15211         106.425         7.41095 
        2.16785         105.473         7.27421 
        2.18349         104.007         7.14174 
        2.19916         103.025         7.01226 
        2.21489         100.971         6.88553 
        2.23063         99.5669         6.76182 
         2.2463         98.1689         6.64167 
        2.26194         97.2808          6.5247 
        2.27765         95.7425         6.40993 
        2.29341         94.3436         6.29759 
        2.30914          93.607         6.18815 
        2.32486          92.569         6.08135 
        2.34061         91.2527         5.97686 
        2.35635         89.8664          5.8749 
        2.37203         88.9084         5.77564 
        2.38768         87.3254         5.67886 
        2.40339         87.0544         5.58392 
        2.41914         85.6314         5.49091 
        2.43483         84.6249         5.40032 
         2.4505         83.8863         5.31191 
        2.46622         82.4308         5.22516 
        2.48195         81.1329         5.14032 
        2.49759         80.2535         5.05779 
        2.51328          79.365         4.97684 
        2.52906         78.4051         4.89714 
        2.54479         77.6944         4.81946 
        2.56049         76.4029         4.74359 
        2.57618         75.5936         4.66941 
        2.59189         74.8489         4.59669 
        2.60758         73.7797         4.52561 
        2.62325         72.7252         4.45611 
        2.63898         71.7411         4.38781 
        2.65468         71.1949         4.32107 
        2.67044         70.2326         4.25542 
        2.68618         69.3069         4.19127 
        2.70184         68.7152         4.12868 
        2.71755         67.8312          4.0672 
        2.73329         66.7472         4.00687 
        2.74897         66.2573         3.94794 
        2.76462         65.5405         3.89032 
        2.78034         64.7613          3.8336 
        2.79607         64.1688         3.77793 
        2.81179         63.2337         3.72343 
        2.82749         62.4644         3.67005 
        2.84321          61.663         3.61764 
        2.85893         61.0432         3.56627 
        2.87462         60.0034         3.51596 
        2.89033         59.8261         3.46658 
        2.90605         59.0742         3.41809 
        2.92176         58.3013         3.37054 
        2.93747         57.4251         3.32391 
        2.95318         56.8785         3.27814 
        2.96891          56.557          3.2332 
        2.98456         55.7804          3.1893 
        3.00023         55.0077         3.14614 
        3.01596         54.4886         3.10363 
        3.03164         53.9335         3.06203 
        3.04738         53.1798         3.02105 
         3.0631         52.6717         2.98083 
        3.07883         52.2292         2.94134 
        3.09456         51.2955         2.90256 
        3.11026         51.0725         2.86453 
        3.12596         50.3883         2.82718 
        3.14163         50.0438         2.79057 
        3.15734         49.1963         2.75452 
        3.17308         48.7806         2.71901 
        3.18879          48.296         2.68422 
        3.20447         47.8143         2.65008 
         3.2202         47.0587         2.61642 
         3.2359         46.7724          2.5834 
        3.25157         46.1103         2.55103 
        3.26729         45.8348          2.5191 
        3.28304         45.3214         2.48765 
        3.29877         44.7361         2.45678 
        3.31446         44.2271         2.42649 
        3.33014         43.8854         2.39673 
        3.34585          43.269         2.36742 
        3.36158         43.0387         2.33855 
        3.37727         42.4956         2.31025 
        3.39294         42.1191         2.28243 
        3.40867          41.603         2.25497 
        3.42439          41.118         2.22798 
        3.44008          40.711         2.20147 
        3.45578         40.3177         2.17536 
        3.47153         39.8567         2.14962 
        3.48724         39.3983         2.12434 
        3.50292          39.099         2.09952 
        3.51859         38.6935          2.0751 
        3.53431         38.2591         2.05099 
        3.55007         37.9387          2.0272 
        3.56577         37.4369         2.00388 
        3.58146         37.0955         1.98093 
        3.59719         36.7497         1.95828 
        3.61292         36.3597         1.93599 
        3.62859         36.0177         1.91413 
        3.64429         35.6972         1.89256 
        3.66003         35.3378         1.87125 
        3.67578         34.9859         1.85027 
        3.69146         34.6125          1.8297 
        3.70712         34.3166         1.80947 
        3.72284         33.9088         1.78946 
        3.73853         33.6556         1.76979 
        3.75422         33.2854         1.75041 
        3.76993         33.1185         1.73129 
        3.78564         32.7095         1.71247 
        3.80137         32.3873         1.69389 
        3.81707         32.0949         1.67562 
        3.83279         31.7154         1.65761 
        3.84853          31.482         1.63983 
        3.86424         31.1916         1.62234 
        3.87992          30.854         1.60513 
        3.89561         30.5382         1.58816 
        3.91134         30.2656          1.5714 
        3.92704         29.9213          1.5549 
        3.94273         29.7929         1.53866 
        3.95845         29.3672         1.52261 
        3.97418         29.1054         1.50678 
        3.98988         28.8471          1.4912 
        4.00554         28.6074         1.47588 
        4.02125           28.34         1.46073 
        4.03698         28.0966         1.44576 
        4.05268         27.7777         1.43104 
        4.06839         27.5196         1.41651 
         4.0841         27.2739         1.40218 
        4.09983         26.9774         1.38803 
        4.11555         26.8381         1.37407 
        4.13124         26.5249         1.36035 
        4.14693         26.3718          1.3468 
        4.16266         26.1195          1.3334 
        4.17839         25.8776         1.32019 
        4.19408         25.6059         1.30718 
        4.20977         25.3339         1.29434 
        4.22551         25.1094         1.28165 
        4.24123         24.9133         1.26913 
        4.25691         24.7127         1.25681 
        4.27259         24.4155         1.24466 
        4.28831         24.2194         1.23263 
        4.30404         24.0235         1.22075 
        4.31974         23.8327         1.20905 
        4.33543         23.6291         1.19751 
        4.35116         23.4841          1.1861 
        4.36688         23.1753         1.17483 
        4.38255         23.0346         1.16375 
        4.39825         22.8322         1.15279 
        4.41398         22.6091         1.14194 
         4.4297         22.4041         1.13125 
        4.44541         22.1839         1.12069 
        4.46111         22.0371         1.11027 
        4.47683          21.843         1.09998 
        4.49251          21.691         1.08983 
        4.50819         21.4895         1.07982 
         4.5239         21.2481         1.06992 
        4.53962         21.1328         1.06012 
        4.55535         20.9065         1.05044 
        4.57106         20.7462          1.0409 
        4.58678         20.5713         1.03147 
         4.6025         20.3511         1.02216 
        4.61821         20.2379         1.01296 
        4.63391         20.0971         1.00388 
         4.6496         19.8523        0.994917 
        4.66532         19.6923        0.986049 
        4.68103         19.5322        0.977292 
        4.69673         19.3694        0.968648 
        4.71241         19.2107        0.960116 
        4.72811         19.0471        0.951672 
        4.74384         18.9035        0.943317 
        4.75955          18.749        0.935074 
        4.77525         18.5597        0.926933 
        4.79096         18.4298        0.918878 
        4.80669         18.2841        0.910914 
         4.8224         18.1312        0.903052 
        4.83809         17.9938        0.895291 
        4.85379          17.819        0.887614 
         4.8695         17.6688        0.880021 
        4.88521         17.5464        0.872518 
        4.90093         17.3953        0.865101 
        4.91663         17.2728        0.857776 
        4.93234         17.1511        0.850527 
        4.94807         16.9689        0.843356 
        4.96377         16.8033         0.83628 
        4.97943          16.676        0.829299 
        4.99514         16.5864         0.82238 
        5.01086         16.4211        0.815532 
        5.02654         16.2855         0.80878 
        5.04227         16.1668        0.802083 
          5.058         16.0345        0.795458 
        5.07371         15.8876         0.78892 
        5.08942         15.7711        0.782454 
        5.10513          15.656        0.776059 
        5.12084         15.5597        0.769731 
        5.13656         15.4141        0.763474 
        5.15225         15.2985        0.757297 
        5.16796         15.1573        0.751177 
        5.18369         15.0667        0.745119 
         5.1994         14.9344        0.739137 
        5.21509         14.8398        0.733226 
        5.23079         14.6954        0.727372 
        5.24649         14.6049        0.721586 
        5.26217          14.457        0.715866 
        5.27788         14.3928        0.710199 
        5.29359         14.2266        0.704592 
        5.30933         14.1535        0.699037 
        5.32504         14.0206         0.69355 
        5.34073         13.9184        0.688127 
        5.35646         13.8063        0.682751 
        5.37218         13.7018        0.677431 
        5.38789         13.5965        0.672175 
        5.40357         13.5207         0.66698 
        5.41929         13.4102        0.661828 
        5.43502          13.311         0.65673 
         5.4507         13.1868        0.651696 
        5.46639         13.1189        0.646715 
        5.48212         13.0108        0.641773 
        5.49786         12.9121        0.636876 
        5.51353         12.7888        0.632054 
        5.52921         12.7095        0.627276 
        5.54495         12.6201        0.622533 
        5.56066         12.5251        0.617844 
        5.57637         12.4501        0.613204 
        5.59207         12.3575        0.608614 
        5.60778         12.2181         0.60407 
        5.62346         12.1611        0.599577 
        5.63916         12.0626        0.595125 
        5.65487         11.9982        0.590716 
         5.6706         11.8948        0.586346 
        5.68633         11.8024        0.582018 
        5.70203         11.7132        0.577742 
        5.71773         11.6465        0.573509 
        5.73344         11.5588        0.569316 
        5.74916          11.475        0.565161 
        5.76486         11.3894        0.561052 
        5.78054         11.3143         0.55699 
        5.79626         11.1907        0.552956 
          5.812         11.1285        0.548958 
         5.8277         11.0393         0.54501 
        5.84339         10.9626        0.541101 
        5.85911          10.896        0.537223 
        5.87484         10.8015        0.533382 
        5.89053         10.7173        0.529587 
        5.90623           10.66        0.525826 
        5.92195         10.5703        0.522094 
        5.93767         10.4854        0.518401 
        5.95336         10.4291        0.514749 
        5.96905         10.3602        0.511133 
        5.98476         10.2799        0.507546 
        6.00048         10.2124        0.503993 
        6.01617         10.1232        0.500477 
        6.03185         10.0619        0.496999 
        6.04756         9.98074        0.493546 
        6.06331         9.94014        0.490117 
        6.07903         9.84991        0.486728 
        6.09473         9.77734        0.483374 
        6.11044         9.72025        0.480048 
        6.12616          9.6313        0.476754 
        6.14186         9.57824        0.473493 
        6.15755         9.51597        0.470263 
        6.17326         9.44511         0.46706 
        6.18898         9.39525        0.463885 
        6.20467          9.3269        0.460744 
        6.22036         9.25366        0.457633 
         6.2361         9.20585        0.454542 
         6.2518         9.13592        0.451484 
        6.26748         9.06008        0.448461 
        6.28319         9.01434        0.445456 
        6.29893         8.94246        0.442477 
        6.31463         8.87524        0.439529 
        6.33033         8.82883        0.436609 
        6.34604         8.76236        0.433713 
        6.36177         8.70421         0.43084 
        6.37747         8.64648        0.427998 
