# k  (h/Mpc)    Pcb(k)  (Mpc/h)^3    Pcb_linear(k) (Mpc/h)^3   ShotnoiseSubtracted = true
      0.0200456         709.301         717.261 
      0.0350414         463.291         462.681 
      0.0492313         324.308         322.909 
      0.0637834          263.24          261.83 
      0.0800726         194.944         193.101 
       0.096163         134.656         134.392 
       0.111083         109.072         109.679 
       0.126058         96.0626         95.9643 
       0.142273          76.716         75.7952 
       0.158546         59.7903         58.8862 
        0.17375         51.2435         51.4045 
       0.188953         46.1098         45.8798 
       0.204907         39.6108         38.3892 
       0.220756         32.7892         32.1566 
        0.23588           29.16         28.7529 
         0.2514         26.0803         25.9184 
       0.267535         22.9044           22.55 
       0.283568         20.0938         19.6956 
       0.299022         18.2399         17.8173 
       0.314451         16.3129          16.224 
       0.330372         14.7849          14.529 
       0.346141          13.297         13.0601 
       0.361624         12.2087         11.9402 
       0.377134         11.3061          10.967 
       0.392932         10.0342         10.0106 
       0.408854         9.43797         9.14661 
       0.424564         8.65851         8.43326 
       0.440253         7.99764         7.80361 
       0.455999         7.44801         7.21346 
       0.471626         6.94954           6.682 
        0.48727          6.4359         6.21474 
       0.502856         5.97253         5.79605 
       0.518488         5.65933         5.40896 
       0.534347         5.35005         5.04931 
       0.550082         4.88461         4.72777 
       0.565732          4.5054         4.43657 
       0.581496         4.35211         4.16644 
       0.597222         4.12379         3.91802 
       0.612804         3.84446         3.69257 
       0.628434         3.68063         3.48456 
       0.644267         3.46955         3.28989 
       0.660051         3.25958         3.11038 
       0.675724         3.09334         2.94516 
       0.691403         2.96054         2.79172 
       0.707174         2.79316         2.64827 
       0.722871         2.65104         2.51538 
        0.73838         2.53626         2.39295 
       0.754018         2.44573         2.27769 
       0.769845         2.30654          2.1687 
        0.78569         2.20765          2.0667 
       0.801365         2.10241          1.9722 
       0.817031         2.01743         1.88362 
       0.832809          1.9316         1.79988 
       0.848511         1.83077         1.72156 
       0.864097         1.74751         1.64839 
       0.879701         1.67956         1.57938 
       0.895507         1.61196         1.51347 
       0.911279          1.5692         1.45143 
        0.92691         1.50075         1.39335 
       0.942635         1.43631          1.3381 
       0.958396         1.37604         1.28571 
       0.974128         1.32665         1.23619 
       0.989692         1.28899         1.18975 
        1.00528          1.2327         1.14561 
        1.02113           1.181           1.103 
        1.03692         1.15312          1.0627 
        1.05264         1.10828         1.02458 
        1.06832         1.07448        0.988383 
        1.08405          1.0225        0.953822 
        1.09979        0.994557         0.92088 
        1.11537        0.965376        0.889808 
        1.13105        0.936002        0.859975 
        1.14679        0.908468        0.831384 
        1.16256        0.870565        0.804028 
        1.17828        0.845642        0.777982 
        1.19395        0.819297         0.75317 
         1.2097         0.78367        0.729305 
        1.22537        0.768051        0.706581 
          1.241        0.745573        0.684886 
        1.25666        0.733528         0.66404 
        1.27241        0.697515        0.643957 
        1.28819        0.679981        0.624664 
        1.30392        0.663805        0.606211 
        1.31957        0.645584        0.588579 
        1.33529        0.623174        0.571578 
        1.35108        0.606631        0.555176 
        1.36674        0.584098        0.539529 
         1.3824        0.574496        0.524494 
        1.39811         0.55659        0.509977 
        1.41389        0.544178        0.495949 
        1.42964        0.530361        0.482469 
        1.44531        0.512901         0.46955 
        1.46101         0.50218        0.457073 
        1.47667        0.482063        0.445083 
        1.49229        0.477478        0.433551 
        1.50793        0.461441        0.422411 
        1.52367        0.451537        0.411587 
        1.53953        0.437693        0.401067 
        1.55526        0.428317        0.390995 
        1.57092        0.416644        0.381307 
        1.58662        0.408261        0.371922 
        1.60235        0.397548        0.362832 
        1.61809        0.385574        0.354038 
        1.63369         0.38311        0.345611 
        1.64941        0.369443        0.337395 
        1.66519        0.360993        0.329415 
        1.68085        0.350886        0.321747 
        1.69652        0.343648        0.314319 
        1.71228        0.337618        0.307081 
        1.72806        0.326657        0.300063 
        1.74368        0.323254        0.293332 
        1.75933        0.313986        0.286793 
        1.77505        0.307436        0.280421 
        1.79081        0.300883        0.274229 
         1.8065        0.291671        0.268249 
        1.82218        0.287665        0.262451 
        1.83797        0.280774        0.256783 
        1.85367        0.277501        0.251312 
        1.86928        0.269871        0.246032 
        1.88497         0.26375        0.240874 
        1.90073        0.257649        0.235842 
        1.91647        0.253864        0.230958 
        1.93218        0.247646        0.226221 
        1.94787        0.242668        0.221623 
        1.96363        0.237231        0.217133 
        1.97935        0.231979        0.212775 
        1.99499        0.227693         0.20856 
        2.01064        0.223152        0.204453 
         2.0264        0.218463        0.200429 
        2.04216          0.2156        0.196514 
        2.05781        0.210521        0.192728 
        2.07353        0.205427        0.189027 
        2.08928          0.2009        0.185414 
        2.10499        0.198339        0.181904 
        2.12065        0.195085        0.178495 
        2.13633        0.191345        0.175169 
        2.15211        0.187665        0.171906 
        2.16785        0.183268        0.168734 
        2.18349         0.17978        0.165661 
        2.19916        0.177313        0.162657 
        2.21489        0.173546        0.159718 
        2.23063        0.170762        0.156848 
         2.2463        0.167751        0.154061 
        2.26194        0.163184        0.151348 
        2.27765        0.161209        0.148686 
        2.29341        0.158522         0.14608 
        2.30914        0.156082        0.143541 
        2.32486        0.153046        0.141064 
        2.34061        0.150329         0.13864 
        2.35635        0.146697        0.136275 
        2.37203        0.144666        0.133973 
        2.38768        0.142067        0.131728 
        2.40339        0.140363        0.129525 
        2.41914        0.137961        0.127368 
        2.43483        0.135549        0.125267 
         2.4505        0.132246        0.123216 
        2.46622        0.130298        0.121204 
        2.48195        0.128669        0.119236 
        2.49759        0.126679        0.117321 
        2.51328        0.124133        0.115444 
        2.52906        0.122642        0.113595 
        2.54479        0.120055        0.111793 
        2.56049        0.117709        0.110033 
        2.57618        0.116002        0.108312 
        2.59189        0.114687        0.106625 
        2.60758        0.113135        0.104977 
        2.62325        0.110809        0.103365 
        2.63898        0.109019         0.10178 
        2.65468        0.106941        0.100232 
        2.67044        0.105806       0.0987092 
        2.68618        0.103957       0.0972212 
        2.70184        0.102208       0.0957694 
        2.71755        0.100407       0.0943434 
        2.73329       0.0990189       0.0929439 
        2.74897       0.0978365        0.091577 
        2.76462       0.0961567       0.0902404 
        2.78034       0.0947385       0.0889247 
        2.79607       0.0931116       0.0876335 
        2.81179       0.0922609       0.0863692 
        2.82749        0.090321        0.085131 
        2.84321       0.0893191       0.0839154 
        2.85893       0.0881261       0.0827236 
        2.87462       0.0865943       0.0815568 
        2.89033       0.0853228       0.0804112 
        2.90605       0.0839701       0.0792864 
        2.92176       0.0830033       0.0781834 
        2.93747       0.0815854       0.0771018 
        2.95318       0.0806144       0.0760402 
        2.96891       0.0794008       0.0749978 
        2.98456       0.0782265       0.0739794 
        3.00023        0.077302       0.0729783 
        3.01596       0.0760731       0.0719923 
        3.03164       0.0753985       0.0710272 
        3.04738       0.0738059       0.0700768 
         3.0631       0.0730813       0.0691439 
        3.07883       0.0719442       0.0682277 
        3.09456       0.0710887       0.0673281 
        3.11026       0.0701243        0.066446 
        3.12596       0.0690049       0.0655796 
        3.14163       0.0681197       0.0647304 
        3.15734       0.0674885       0.0638942 
        3.17308       0.0666603       0.0630705 
        3.18879       0.0656967       0.0622635 
        3.20447       0.0644456       0.0614716 
         3.2202       0.0642285       0.0606909 
         3.2359       0.0631534        0.059925 
        3.25157       0.0624382        0.059174 
        3.26729        0.061382       0.0584334 
        3.28304        0.061011        0.057704 
        3.29877       0.0599873       0.0569878 
        3.31446       0.0592811       0.0562851 
        3.33014       0.0587213       0.0555949 
        3.34585       0.0582125        0.054915 
        3.36158       0.0573257       0.0542453 
        3.37727       0.0568097       0.0535888 
        3.39294       0.0559392       0.0529437 
        3.40867       0.0552338       0.0523067 
        3.42439       0.0547803       0.0516804 
        3.44008       0.0538481       0.0510655 
        3.45578       0.0534611       0.0504601 
        3.47153       0.0527353        0.049863 
        3.48724       0.0522405       0.0492765 
        3.50292       0.0516287       0.0487007 
        3.51859       0.0510138       0.0481343 
        3.53431        0.050373       0.0475751 
        3.55007       0.0500293       0.0470232 
        3.56577       0.0493442       0.0464822 
        3.58146        0.048921       0.0459499 
        3.59719       0.0484402       0.0454245 
        3.61292       0.0479532       0.0449075 
        3.62859       0.0473953       0.0444004 
        3.64429        0.046872          0.0439 
        3.66003       0.0465375       0.0434058 
        3.67578       0.0459733       0.0429192 
        3.69146       0.0454134       0.0424419 
        3.70712       0.0451984       0.0419726 
        3.72284       0.0446669       0.0415086 
        3.73853       0.0442355       0.0410523 
        3.75422       0.0439057       0.0406027 
        3.76993        0.043303       0.0401593 
        3.78564       0.0428988       0.0397227 
        3.80137        0.042619       0.0392917 
        3.81707       0.0421275        0.038868 
        3.83279       0.0419464       0.0384501 
        3.84853       0.0413817       0.0380376 
        3.86424       0.0410117        0.037632 
        3.87992       0.0405606       0.0372327 
        3.89561       0.0402435       0.0368392 
        3.91134       0.0399915       0.0364505 
        3.92704       0.0394816       0.0360678 
        3.94273       0.0391343       0.0356909 
        3.95845       0.0387209       0.0353186 
        3.97418          0.0386       0.0349516 
        3.98988       0.0379817       0.0345901 
        4.00554        0.037817       0.0342347 
        4.02125       0.0372778       0.0338833 
        4.03698       0.0367501       0.0335361 
        4.05268       0.0363493       0.0331946 
        4.06839       0.0358823       0.0328575 
         4.0841       0.0354307       0.0325252 
        4.09983       0.0350148       0.0321969 
        4.11555       0.0344971       0.0318732 
        4.13124        0.034124       0.0315549 
        4.14693       0.0337939       0.0312405 
        4.16266       0.0333168       0.0309297 
        4.17839       0.0329456       0.0306232 
        4.19408       0.0325881       0.0303216 
        4.20977       0.0322733       0.0300238 
        4.22551       0.0319682       0.0297293 
        4.24123       0.0315461       0.0294389 
        4.25691       0.0312605       0.0291532 
        4.27259       0.0309404       0.0288712 
        4.28831       0.0306743       0.0285923 
        4.30404       0.0304389       0.0283167 
        4.31974        0.030209       0.0280454 
        4.33543       0.0299514       0.0277777 
        4.35116       0.0297652       0.0275129 
        4.36688       0.0294787       0.0272515 
        4.38255       0.0292034       0.0269945 
        4.39825       0.0291304       0.0267402 
        4.41398       0.0289474       0.0264886 
         4.4297       0.0288172       0.0262405 
        4.44541       0.0286686       0.0259956 
        4.46111        0.028538        0.025754 
        4.47683       0.0283319       0.0255152 
        4.49251       0.0282659       0.0252799 
        4.50819       0.0281185       0.0250476 
         4.5239       0.0279948       0.0248179 
        4.53962       0.0279362       0.0245907 
        4.55535        0.027864       0.0243663 
        4.57106       0.0278243       0.0241449 
        4.58678       0.0277185       0.0239262 
         4.6025       0.0277708       0.0237101 
        4.61821       0.0277893       0.0234967 
        4.63391       0.0277847       0.0232861 
         4.6496       0.0277641       0.0230782 
        4.66532       0.0277879       0.0228725 
        4.68103       0.0278112       0.0226694 
        4.69673        0.027782       0.0224689 
        4.71241       0.0279181        0.022271 
        4.72811       0.0279686       0.0220751 
        4.74384       0.0280081       0.0218813 
        4.75955       0.0281748       0.0216901 
        4.77525       0.0282593       0.0215013 
        4.79096        0.028304       0.0213144 
        4.80669       0.0283765       0.0211297 
         4.8224       0.0286627       0.0209473 
        4.83809       0.0287864       0.0207673 
        4.85379       0.0288634       0.0205892 
         4.8695       0.0290312       0.0204131 
        4.88521       0.0292328       0.0202391 
        4.90093       0.0294825        0.020067 
        4.91663       0.0296319       0.0198971 
        4.93234       0.0298448       0.0197289 
        4.94807       0.0301427       0.0195626 
        4.96377        0.030414       0.0193985 
        4.97943       0.0307447       0.0192365 
        4.99514       0.0308286        0.019076 
        5.01086       0.0311677       0.0189172 
        5.02654       0.0315184       0.0187606 
        5.04227       0.0317465       0.0186052 
          5.058       0.0322565       0.0184516 
        5.07371       0.0326095       0.0182999 
        5.08942       0.0328412       0.0181499 
        5.10513        0.033329       0.0180016 
        5.12084       0.0337181       0.0178548 
        5.13656       0.0340403       0.0177097 
        5.15225         0.03462       0.0175664 
        5.16796       0.0351557       0.0174244 
        5.18369       0.0354945       0.0172839 
         5.1994       0.0360826       0.0171451 
        5.21509        0.036467        0.017008 
        5.23079       0.0369909       0.0168722 
        5.24649       0.0375934        0.016738 
        5.26217       0.0382399       0.0166053 
        5.27788       0.0387661       0.0164739 
        5.29359       0.0395022       0.0163438 
        5.30933       0.0399658        0.016215 
        5.32504       0.0406314       0.0160877 
        5.34073       0.0413085       0.0159619 
        5.35646       0.0419872       0.0158372 
        5.37218       0.0428914       0.0157138 
        5.38789       0.0435497       0.0155919 
        5.40357       0.0442094       0.0154714 
        5.41929       0.0451385       0.0153519 
        5.43502       0.0458688       0.0152336 
         5.4507       0.0467255       0.0151168 
        5.46639       0.0477172       0.0150013 
        5.48212       0.0483848       0.0148866 
        5.49786         0.04949       0.0147731 
        5.51353       0.0506989       0.0146612 
        5.52921       0.0513691       0.0145504 
        5.54495       0.0524187       0.0144404 
        5.56066       0.0534287       0.0143316 
        5.57637       0.0546819        0.014224 
        5.59207       0.0560518       0.0141175 
        5.60778        0.056943       0.0140121 
        5.62346       0.0582409       0.0139079 
        5.63916       0.0593444       0.0138046 
        5.65487       0.0607021       0.0137023 
         5.6706       0.0618285        0.013601 
        5.68633       0.0630533       0.0135006 
        5.70203       0.0642403       0.0134014 
        5.71773       0.0663637       0.0133032 
        5.73344       0.0675477       0.0132059 
        5.74916        0.069372       0.0131095 
        5.76486         0.07047       0.0130142 
        5.78054       0.0720284         0.01292 
        5.79626       0.0732709       0.0128264 
          5.812       0.0752119       0.0127337 
         5.8277       0.0770653       0.0126421 
        5.84339       0.0786254       0.0125515 
        5.85911       0.0806573       0.0124615 
        5.87484       0.0824819       0.0123724 
        5.89053       0.0847792       0.0122844 
        5.90623       0.0871691       0.0121971 
        5.92195       0.0888355       0.0121106 
        5.93767       0.0908637       0.0120249 
        5.95336       0.0929665       0.0119402 
        5.96905       0.0951321       0.0118563 
        5.98476       0.0977324       0.0117731 
        6.00048       0.0995601       0.0116907 
        6.01617        0.101649       0.0116091 
        6.03185        0.105089       0.0115285 
        6.04756        0.107494       0.0114484 
        6.06331        0.109431       0.0113688 
        6.07903        0.112996       0.0112902 
        6.09473        0.116105       0.0112124 
        6.11044         0.11829       0.0111353 
        6.12616        0.121049       0.0110588 
        6.14186        0.123569       0.0109832 
        6.15755        0.126846       0.0109083 
        6.17326        0.130666        0.010834 
        6.18898        0.133047       0.0107603 
        6.20467        0.137463       0.0106875 
        6.22036        0.139336       0.0106153 
         6.2361        0.143471       0.0105436 
         6.2518        0.147019       0.0104727 
        6.26748        0.150459       0.0104026 
        6.28319        0.154107       0.0103329 
        6.29893        0.158663       0.0102638 
        6.31463        0.162528       0.0101954 
        6.33033        0.166419       0.0101276 
        6.34604         0.16983       0.0100605 
        6.36177         0.17344      0.00999383 
        6.37747         0.17944      0.00992791 
