# k  (h/Mpc)    Pcb(k)  (Mpc/h)^3    Pcb_linear(k) (Mpc/h)^3   ShotnoiseSubtracted = true
      0.0200456         6180.48         6263.42 
      0.0350414         3983.45         4040.32 
      0.0492313          2821.1         2819.77 
      0.0637834         2329.39         2286.41 
      0.0800726         1729.26         1686.23 
       0.096163         1169.38         1173.57 
       0.111083         945.672         957.759 
       0.126058         852.314         837.999 
       0.142273          694.05         661.874 
       0.158546         554.069         514.218 
        0.17375         459.407         448.885 
       0.188953         429.177         400.641 
       0.204907         383.748          335.23 
       0.220756         317.968         280.805 
        0.23588         281.008         251.082 
         0.2514          246.81          226.33 
       0.267535         226.902         196.916 
       0.283568         202.879          171.99 
       0.299022         186.807         155.588 
       0.314451         168.811         141.675 
       0.330372         154.831         126.874 
       0.346141         137.939         114.046 
       0.361624         130.505         104.267 
       0.377134         121.785         95.7679 
       0.392932         109.305         87.4163 
       0.408854         104.301          79.872 
       0.424564           99.22         73.6426 
       0.440253         92.4306         68.1443 
       0.455999         86.1053         62.9908 
       0.471626         79.7305         58.3499 
        0.48727         76.4251         54.2696 
       0.502856         72.5761         50.6135 
       0.518488         69.6357         47.2333 
       0.534347         66.6144         44.0926 
       0.550082         60.8715         41.2848 
       0.565732         57.7057          38.742 
       0.581496         55.6393          36.383 
       0.597222         53.5585         34.2137 
       0.612804         50.4384          32.245 
       0.628434         48.9386         30.4286 
       0.644267         47.2364         28.7287 
       0.660051          45.456         27.1611 
       0.675724         43.2413         25.7184 
       0.691403         41.8234         24.3784 
       0.707174         40.3029         23.1257 
       0.722871         38.9887         21.9653 
        0.73838         37.7792         20.8962 
       0.754018         35.8379         19.8897 
       0.769845         34.8782          18.938 
        0.78569         33.9088         18.0472 
       0.801365         32.5207          17.222 
       0.817031         31.6517         16.4485 
       0.832809          31.038         15.7172 
       0.848511          29.306         15.0333 
       0.864097         28.7188         14.3944 
       0.879701         27.9976         13.7918 
       0.895507         27.5026         13.2162 
       0.911279         26.5113         12.6745 
        0.92691         25.9496         12.1673 
       0.942635         24.8537         11.6848 
       0.958396         24.5933         11.2273 
       0.974128         23.7907         10.7949 
       0.989692         23.4011         10.3894 
        1.00528          22.832         10.0039 
        1.02113         22.0158         9.63185 
        1.03692         21.4442         9.27994 
        1.05264         21.2473         8.94709 
        1.06832         20.4448         8.63096 
        1.08405         20.0999         8.32916 
        1.09979         19.6768          8.0415 
        1.11537          19.127         7.77017 
        1.13105         18.9989         7.50965 
        1.14679         18.6353         7.25998 
        1.16256         17.9785          7.0211 
        1.17828         17.7209         6.79366 
        1.19395         17.3083         6.57698 
         1.2097         17.1306         6.36859 
        1.22537         16.8037         6.17015 
          1.241         16.3484          5.9807 
        1.25666         15.9471         5.79866 
        1.27241         15.6806         5.62329 
        1.28819         15.2995         5.45482 
        1.30392         15.1319         5.29368 
        1.31957         14.9595         5.13971 
        1.33529          14.728         4.99125 
        1.35108         14.3704         4.84802 
        1.36674          14.133         4.71138 
         1.3824         13.8111         4.58009 
        1.39811         13.6647         4.45333 
        1.41389         13.4987         4.33083 
        1.42964         13.1843         4.21311 
        1.44531         13.1086          4.1003 
        1.46101         12.7481         3.99135 
        1.47667         12.5788         3.88664 
        1.49229         12.4184         3.78594 
        1.50793         12.2496         3.68866 
        1.52367         12.0449         3.59415 
        1.53953         11.9133         3.50228 
        1.55526         11.6862         3.41433 
        1.57092         11.4425         3.32973 
        1.58662         11.3674         3.24777 
        1.60235          11.182         3.16839 
        1.61809         11.0245          3.0916 
        1.63369         10.8839         3.01801 
        1.64941         10.6575         2.94627 
        1.66519         10.5902         2.87658 
        1.68085         10.4103         2.80963 
        1.69652         10.2581         2.74476 
        1.71228         10.1545         2.68155 
        1.72806         9.99834         2.62027 
        1.74368         9.84202          2.5615 
        1.75933         9.75389          2.5044 
        1.77505         9.64426         2.44875 
        1.79081         9.46858         2.39468 
         1.8065         9.41763         2.34246 
        1.82218         9.21936         2.29183 
        1.83797         9.07445         2.24234 
        1.85367         8.98837         2.19456 
        1.86928         8.92537         2.14845 
        1.88497         8.77217         2.10341 
        1.90073         8.74903         2.05947 
        1.91647          8.5874         2.01682 
        1.93218         8.52148         1.97545 
        1.94787         8.41261          1.9353 
        1.96363         8.33552         1.89609 
        1.97935         8.21117         1.85804 
        1.99499         8.07016         1.82123 
        2.01064         8.01723         1.78536 
         2.0264         7.92458         1.75023 
        2.04216         7.82819         1.71604 
        2.05781         7.69807         1.68298 
        2.07353         7.66189         1.65066 
        2.08928         7.56112         1.61911 
        2.10499         7.47864         1.58846 
        2.12065         7.37413         1.55869 
        2.13633         7.35564         1.52964 
        2.15211         7.22914         1.50115 
        2.16785         7.17648         1.47345 
        2.18349          7.1298         1.44662 
        2.19916         7.03613         1.42039 
        2.21489         6.96104         1.39472 
        2.23063         6.87809         1.36966 
         2.2463         6.79748         1.34532 
        2.26194         6.72143         1.32163 
        2.27765         6.69974         1.29838 
        2.29341         6.60686         1.27563 
        2.30914         6.50245         1.25346 
        2.32486         6.46746         1.23183 
        2.34061         6.40835         1.21066 
        2.35635         6.33454         1.19001 
        2.37203         6.30694          1.1699 
        2.38768         6.16737          1.1503 
        2.40339         6.14532         1.13107 
        2.41914         6.07443         1.11223 
        2.43483         6.05674         1.09388 
         2.4505         5.97385         1.07597 
        2.46622         5.90867          1.0584 
        2.48195         5.87797         1.04121 
        2.49759         5.79957          1.0245 
        2.51328         5.73996          1.0081 
        2.52906         5.71063        0.991955 
        2.54479         5.63396         0.97622 
        2.56049         5.62727        0.960853 
        2.57618         5.57209        0.945827 
        2.59189         5.48731        0.931097 
        2.60758         5.47107          0.9167 
        2.62325         5.41132        0.902621 
        2.63898         5.34042        0.888786 
        2.65468         5.26953        0.875268 
        2.67044         5.24772        0.861969 
        2.68618         5.18913        0.848975 
        2.70184         5.16803        0.836297 
        2.71755          5.1139        0.823845 
        2.73329         5.04889        0.811624 
        2.74897         5.02641        0.799688 
        2.76462         4.99599        0.788016 
        2.78034         4.90828        0.776526 
        2.79607         4.89845        0.765251 
        2.81179         4.84764        0.754211 
        2.82749         4.82561        0.743398 
        2.84321         4.78833        0.732783 
        2.85893         4.73765        0.722376 
        2.87462         4.69543        0.712187 
        2.89033         4.65353        0.702183 
        2.90605         4.59719        0.692361 
        2.92176         4.57906        0.682729 
        2.93747         4.54936        0.673284 
        2.95318         4.51123        0.664014 
        2.96891         4.47395        0.654911 
        2.98456         4.40655        0.646018 
        3.00023         4.38956        0.637276 
        3.01596         4.35876        0.628666 
        3.03164         4.33153        0.620238 
        3.04738         4.29973        0.611939 
         3.0631         4.25029        0.603792 
        3.07883         4.23273        0.595792 
        3.09456         4.18393        0.587937 
        3.11026         4.15576        0.580233 
        3.12596         4.12741        0.572667 
        3.14163          4.0848        0.565252 
        3.15734         4.06331         0.55795 
        3.17308         4.02238        0.550758 
        3.18879         3.99283         0.54371 
        3.20447         3.96997        0.536795 
         3.2202         3.91859        0.529978 
         3.2359         3.89842        0.523289 
        3.25157         3.87171        0.516731 
        3.26729         3.85668        0.510264 
        3.28304         3.81434        0.503894 
        3.29877         3.78766         0.49764 
        3.31446         3.75709        0.491505 
        3.33014          3.7287        0.485477 
        3.34585          3.7171         0.47954 
        3.36158          3.6738        0.473692 
        3.37727         3.65574        0.467959 
        3.39294         3.63106        0.462326 
        3.40867         3.59674        0.456763 
        3.42439         3.57066        0.451294 
        3.44008         3.54771        0.445925 
        3.45578         3.51891        0.440638 
        3.47153          3.4873        0.435424 
        3.48724         3.46381        0.430302 
        3.50292         3.45023        0.425274 
        3.51859         3.42121        0.420328 
        3.53431         3.39433        0.415445 
        3.55007          3.3683        0.410626 
        3.56577         3.35152        0.405902 
        3.58146         3.33436        0.401253 
        3.59719         3.30137        0.396665 
        3.61292         3.28605        0.392151 
        3.62859         3.26231        0.387722 
        3.64429         3.23042        0.383353 
        3.66003         3.20438        0.379037 
        3.67578         3.19195        0.374788 
        3.69146         3.15481         0.37062 
        3.70712         3.14786        0.366522 
        3.72284         3.11747         0.36247 
        3.73853         3.09748        0.358486 
        3.75422         3.07191        0.354559 
        3.76993           3.061        0.350687 
        3.78564         3.03715        0.346874 
        3.80137         3.02308        0.343111 
        3.81707         2.99748        0.339411 
        3.83279         2.97086        0.335762 
        3.84853         2.95562         0.33216 
        3.86424          2.9296        0.328618 
        3.87992         2.91186        0.325131 
        3.89561         2.90117        0.321695 
        3.91134         2.86808        0.318301 
        3.92704         2.85966        0.314959 
        3.94273         2.83666        0.311667 
        3.95845         2.82061        0.308417 
        3.97418         2.79678        0.305211 
        3.98988         2.77971        0.302055 
        4.00554         2.76347        0.298952 
        4.02125         2.74567        0.295882 
        4.03698         2.71892        0.292851 
        4.05268         2.70414        0.289869 
        4.06839         2.69141        0.286925 
         4.0841          2.6694        0.284023 
        4.09983          2.6486        0.281156 
        4.11555         2.62687         0.27833 
        4.13124         2.61047         0.27555 
        4.14693         2.59114        0.272805 
        4.16266         2.57212        0.270091 
        4.17839         2.55568        0.267414 
        4.19408         2.53464         0.26478 
        4.20977         2.52325         0.26218 
        4.22551         2.50243        0.259608 
        4.24123         2.48792        0.257073 
        4.25691          2.4735        0.254578 
        4.27259         2.46065        0.252115 
        4.28831         2.44202        0.249679 
        4.30404         2.42604        0.247273 
        4.31974         2.40555        0.244904 
        4.33543         2.39579        0.242566 
        4.35116         2.37787        0.240253 
        4.36688         2.35645        0.237971 
        4.38255         2.34559        0.235727 
        4.39825         2.32775        0.233506 
        4.41398         2.32096         0.23131 
         4.4297         2.30233        0.229143 
        4.44541         2.29737        0.227004 
        4.46111         2.27572        0.224894 
        4.47683         2.25287        0.222809 
        4.49251         2.25073        0.220755 
        4.50819          2.2325        0.218726 
         4.5239         2.21926         0.21672 
        4.53962         2.21312        0.214736 
        4.55535         2.19361        0.212776 
        4.57106          2.1851        0.210843 
        4.58678         2.16907        0.208933 
         4.6025         2.15782        0.207046 
        4.61821         2.14671        0.205183 
        4.63391         2.13058        0.203344 
         4.6496         2.11821        0.201529 
        4.66532         2.10566        0.199732 
        4.68103         2.09004        0.197958 
        4.69673         2.08004        0.196208 
        4.71241         2.06667        0.194479 
        4.72811         2.05711        0.192769 
        4.74384         2.04253        0.191077 
        4.75955         2.03613        0.189407 
        4.77525         2.02383        0.187758 
        4.79096         2.01065        0.186126 
        4.80669         1.99778        0.184513 
         4.8224         1.98603        0.182921 
        4.83809         1.98053        0.181348 
        4.85379         1.97018        0.179794 
         4.8695         1.95745        0.178255 
        4.88521         1.94139        0.176736 
        4.90093          1.9371        0.175233 
        4.91663         1.92292         0.17375 
        4.93234         1.91587        0.172281 
        4.94807         1.90728        0.170829 
        4.96377         1.89448        0.169395 
        4.97943         1.88249        0.167981 
        4.99514         1.87309         0.16658 
        5.01086         1.86205        0.165193 
        5.02654         1.85391        0.163825 
        5.04227         1.84479        0.162468 
          5.058         1.83693        0.161126 
        5.07371         1.82758        0.159802 
        5.08942         1.81695        0.158492 
        5.10513         1.80744        0.157197 
        5.12084         1.79719        0.155915 
        5.13656         1.78818        0.154648 
        5.15225         1.77677        0.153397 
        5.16796          1.7697        0.152157 
        5.18369         1.75778         0.15093 
         5.1994         1.75556        0.149718 
        5.21509         1.74442        0.148521 
        5.23079         1.73229        0.147335 
        5.24649          1.7272        0.146163 
        5.26217         1.72042        0.145004 
        5.27788         1.71007        0.143857 
        5.29359         1.70247        0.142721 
        5.30933         1.69358        0.141596 
        5.32504         1.68081        0.140484 
        5.34073         1.67451        0.139386 
        5.35646          1.6665        0.138297 
        5.37218         1.65783        0.137219 
        5.38789         1.65013        0.136154 
        5.40357         1.64529        0.135102 
        5.41929         1.63658        0.134059 
        5.43502         1.63068        0.133026 
         5.4507         1.62381        0.132006 
        5.46639         1.61596        0.130997 
        5.48212         1.60933        0.129996 
        5.49786         1.59934        0.129004 
        5.51353         1.59446        0.128028 
        5.52921          1.5857         0.12706 
        5.54495         1.57848        0.126099 
        5.56066         1.57212        0.125149 
        5.57637         1.56505        0.124209 
        5.59207         1.55638         0.12328 
        5.60778         1.55375        0.122359 
        5.62346         1.54288        0.121449 
        5.63916         1.53476        0.120547 
        5.65487         1.53035        0.119654 
         5.6706         1.52255        0.118769 
        5.68633         1.51649        0.117892 
        5.70203         1.50909        0.117026 
        5.71773         1.50262        0.116169 
        5.73344         1.49788         0.11532 
        5.74916           1.489        0.114478 
        5.76486         1.48582        0.113646 
        5.78054         1.47606        0.112823 
        5.79626         1.47346        0.112006 
          5.812         1.46648        0.111196 
         5.8277          1.4593        0.110396 
        5.84339         1.45195        0.109604 
        5.85911         1.44701        0.108819 
        5.87484         1.43743        0.108041 
        5.89053         1.43559        0.107272 
        5.90623         1.42943         0.10651 
        5.92195         1.42311        0.105754 
        5.93767         1.41637        0.105006 
        5.95336         1.41196        0.104267 
        5.96905         1.40507        0.103534 
        5.98476         1.39842        0.102808 
        6.00048         1.39299        0.102088 
        6.01617          1.3872        0.101376 
        6.03185         1.38083        0.100671 
        6.04756         1.37639       0.0999717 
        6.06331         1.37067       0.0992773 
        6.07903         1.36813       0.0985908 
        6.09473         1.36215       0.0979114 
        6.11044         1.35581       0.0972377 
        6.12616         1.35199       0.0965703 
        6.14186         1.34599       0.0959098 
        6.15755         1.34038       0.0952555 
        6.17326         1.33746       0.0946067 
        6.18898         1.33032       0.0939636 
        6.20467         1.32397       0.0933275 
        6.22036         1.31814       0.0926973 
         6.2361         1.31516       0.0920712 
         6.2518         1.30846       0.0914518 
        6.26748         1.30482       0.0908394 
        6.28319         1.29958       0.0902308 
        6.29893         1.29484       0.0896273 
        6.31463         1.29097       0.0890302 
        6.33033         1.28405       0.0884387 
        6.34604         1.27932       0.0878521 
        6.36177          1.2762       0.0872702 
        6.37747         1.27232       0.0866945 
