# k  (h/Mpc)    Pcb(k)  (Mpc/h)^3    Pcb_linear(k) (Mpc/h)^3   ShotnoiseSubtracted = true
      0.0200456         1018.51         1030.11 
      0.0350414         664.368         664.486 
      0.0492313         465.666          463.75 
      0.0637834         378.594         376.032 
      0.0800726         280.436         277.324 
       0.096163         193.196         193.009 
       0.111083          156.43         157.517 
       0.126058         138.143         137.821 
       0.142273         110.502         108.854 
       0.158546         86.1966         84.5703 
        0.17375         73.6481         73.8253 
       0.188953          66.482         65.8909 
       0.204907         57.3763         55.1332 
       0.220756         47.4127         46.1822 
        0.23588         42.1374          41.294 
         0.2514         37.6295         37.2231 
       0.267535         33.1477         32.3856 
       0.283568         29.1205         28.2861 
       0.299022         26.4715         25.5886 
       0.314451         23.6218         23.3004 
       0.330372         21.4566         20.8661 
       0.346141         19.2938         18.7564 
       0.361624         17.7412         17.1481 
       0.377134         16.4671         15.7504 
       0.392932         14.5571         14.3768 
       0.408854         13.7549          13.136 
       0.424564          12.652         12.1116 
       0.440253         11.6658         11.2073 
       0.455999          10.874         10.3597 
       0.471626         10.1588         9.59645 
        0.48727         9.43323         8.92539 
       0.502856          8.7552         8.32408 
       0.518488         8.30251         7.76816 
       0.534347         7.86962         7.25164 
       0.550082         7.16376         6.78986 
       0.565732         6.60049         6.37165 
       0.581496         6.40304         5.98369 
       0.597222         6.08502         5.62692 
       0.612804           5.659         5.30314 
       0.628434         5.42699          5.0044 
       0.644267         5.13702         4.72482 
       0.660051         4.82251         4.46702 
       0.675724         4.57117         4.22974 
       0.691403         4.38579         4.00937 
       0.707174         4.14087         3.80335 
       0.722871         3.94142          3.6125 
        0.73838         3.76548         3.43668 
       0.754018         3.63742         3.27114 
       0.769845         3.42907         3.11462 
        0.78569         3.29213         2.96812 
       0.801365         3.13642          2.8324 
       0.817031         3.01264         2.70519 
       0.832809         2.89301         2.58492 
       0.848511         2.73247         2.47244 
       0.864097         2.61635         2.36737 
       0.879701         2.51873         2.26825 
       0.895507         2.40614         2.17359 
       0.911279         2.35624         2.08449 
        0.92691         2.25539         2.00108 
       0.942635         2.15473         1.92173 
       0.958396          2.0682         1.84649 
       0.974128         1.99815         1.77538 
       0.989692         1.94629         1.70868 
        1.00528         1.85635         1.64528 
        1.02113         1.78317         1.58409 
        1.03692         1.74226         1.52621 
        1.05264         1.67486         1.47147 
        1.06832         1.62756         1.41948 
        1.08405          1.5468         1.36985 
        1.09979         1.50921         1.32254 
        1.11537         1.46343         1.27791 
        1.13105         1.42051         1.23507 
        1.14679         1.37749           1.194 
        1.16256         1.32437         1.15472 
        1.17828         1.28898         1.11731 
        1.19395         1.25098         1.08168 
         1.2097         1.19422          1.0474 
        1.22537         1.16794         1.01477 
          1.241         1.13763        0.983609 
        1.25666         1.12291        0.953671 
        1.27241         1.06514        0.924829 
        1.28819         1.04174        0.897121 
        1.30392         1.01772        0.870619 
        1.31957        0.990436        0.845297 
        1.33529        0.955606        0.820881 
        1.35108        0.932489        0.797324 
        1.36674        0.899782        0.774852 
         1.3824        0.880433         0.75326 
        1.39811        0.855288        0.732411 
        1.41389        0.838339        0.712265 
        1.42964        0.816712        0.692905 
        1.44531        0.793008        0.674352 
        1.46101        0.774826        0.656433 
        1.47667        0.744847        0.639212 
        1.49229        0.739022        0.622651 
        1.50793        0.715544        0.606652 
        1.52367        0.700146        0.591107 
        1.53953        0.677485        0.575998 
        1.55526        0.663659        0.561533 
        1.57092        0.647406         0.54762 
        1.58662        0.634798        0.534141 
        1.60235         0.61686        0.521086 
        1.61809        0.600903        0.508457 
        1.63369        0.596123        0.496354 
        1.64941        0.575775        0.484555 
        1.66519        0.564053        0.473094 
        1.68085        0.547373        0.462082 
        1.69652        0.536843        0.451413 
        1.71228        0.527697        0.441018 
        1.72806        0.511355         0.43094 
        1.74368        0.505264        0.421274 
        1.75933        0.491313        0.411882 
        1.77505        0.482193        0.402731 
        1.79081        0.471703        0.393839 
         1.8065        0.457995         0.38525 
        1.82218        0.452108        0.376923 
        1.83797        0.442171        0.368783 
        1.85367          0.4373        0.360926 
        1.86928        0.426031        0.353343 
        1.88497        0.415177        0.345934 
        1.90073        0.405494        0.338709 
        1.91647        0.401468        0.331694 
        1.93218        0.391927        0.324891 
        1.94787        0.383331        0.318287 
        1.96363        0.374747        0.311838 
        1.97935        0.367586         0.30558 
        1.99499         0.36074        0.299527 
        2.01064        0.353461        0.293628 
         2.0264        0.347784        0.287849 
        2.04216        0.341328        0.282227 
        2.05781        0.333811        0.276789 
        2.07353        0.327497        0.271473 
        2.08928        0.319901        0.266285 
        2.10499        0.315595        0.261244 
        2.12065        0.311086        0.256348 
        2.13633        0.305296        0.251571 
        2.15211        0.298987        0.246885 
        2.16785        0.292337        0.242329 
        2.18349         0.28811        0.237916 
        2.19916        0.283287        0.233603 
        2.21489        0.277329        0.229381 
        2.23063        0.272437         0.22526 
         2.2463        0.269365        0.221257 
        2.26194        0.261229        0.217361 
        2.27765        0.258182        0.213537 
        2.29341        0.254716        0.209795 
        2.30914        0.251334        0.206149 
        2.32486        0.246254        0.202591 
        2.34061        0.241859         0.19911 
        2.35635        0.235855        0.195713 
        2.37203        0.233229        0.192407 
        2.38768        0.229501        0.189183 
        2.40339        0.226584         0.18602 
        2.41914        0.222717        0.182921 
        2.43483        0.218704        0.179904 
         2.4505        0.214139        0.176958 
        2.46622         0.21102        0.174068 
        2.48195        0.208935        0.171242 
        2.49759        0.205018        0.168493 
        2.51328        0.200766        0.165796 
        2.52906        0.198628        0.163141 
        2.54479        0.194876        0.160553 
        2.56049        0.191202        0.158026 
        2.57618        0.188896        0.155554 
        2.59189        0.186458        0.153132 
        2.60758        0.184342        0.150764 
        2.62325        0.180688        0.148449 
        2.63898        0.177896        0.146173 
        2.65468        0.174839         0.14395 
        2.67044        0.172502        0.141763 
        2.68618        0.169684        0.139626 
        2.70184        0.167063        0.137541 
        2.71755        0.164237        0.135493 
        2.73329        0.162071        0.133483 
        2.74897        0.160164         0.13152 
        2.76462         0.15753          0.1296 
        2.78034        0.155425        0.127711 
        2.79607        0.152947        0.125856 
        2.81179        0.151216         0.12404 
        2.82749         0.14851        0.122262 
        2.84321        0.146949        0.120516 
        2.85893        0.144812        0.118805 
        2.87462        0.142271        0.117129 
        2.89033        0.140599        0.115484 
        2.90605        0.138742        0.113868 
        2.92176        0.136563        0.112284 
        2.93747        0.134752        0.110731 
        2.95318        0.133142        0.109206 
        2.96891        0.131361        0.107709 
        2.98456        0.129508        0.106247 
        3.00023        0.127873        0.104809 
        3.01596        0.125859        0.103393 
        3.03164        0.124843        0.102007 
        3.04738        0.122456        0.100642 
         3.0631        0.121225        0.099302 
        3.07883          0.1192       0.0979863 
        3.09456        0.118026       0.0966943 
        3.11026        0.116662       0.0954274 
        3.12596        0.114787       0.0941831 
        3.14163        0.113373       0.0929636 
        3.15734        0.112465       0.0917626 
        3.17308        0.110852       0.0905797 
        3.18879        0.109543       0.0894207 
        3.20447        0.107579       0.0882834 
         3.2202        0.106902       0.0871622 
         3.2359        0.105569       0.0860622 
        3.25157        0.104248       0.0849836 
        3.26729        0.102898         0.08392 
        3.28304        0.102152       0.0828724 
        3.29877        0.100485       0.0818438 
        3.31446       0.0994345       0.0808348 
        3.33014       0.0984123       0.0798434 
        3.34585       0.0978288        0.078867 
        3.36158       0.0961497       0.0779052 
        3.37727       0.0953414       0.0769624 
        3.39294        0.094058       0.0760358 
        3.40867       0.0929211        0.075121 
        3.42439       0.0922282       0.0742216 
        3.44008       0.0907952       0.0733385 
        3.45578       0.0902018        0.072469 
        3.47153       0.0889623       0.0716115 
        3.48724       0.0883793       0.0707692 
        3.50292       0.0872311       0.0699423 
        3.51859       0.0862021       0.0691288 
        3.53431       0.0851943       0.0683256 
        3.55007       0.0846423       0.0675331 
        3.56577       0.0836593       0.0667561 
        3.58146       0.0827361       0.0659916 
        3.59719       0.0819635       0.0652371 
        3.61292       0.0812996       0.0644946 
        3.62859       0.0802272       0.0637663 
        3.64429       0.0795143       0.0630477 
        3.66003       0.0789169       0.0623379 
        3.67578       0.0780981       0.0616391 
        3.69146       0.0773638       0.0609536 
        3.70712       0.0767996       0.0602796 
        3.72284       0.0759036       0.0596132 
        3.73853       0.0753691       0.0589579 
        3.75422       0.0746201       0.0583122 
        3.76993       0.0738988       0.0576754 
        3.78564       0.0730656       0.0570483 
        3.80137       0.0725532       0.0564294 
        3.81707       0.0718222       0.0558209 
        3.83279       0.0713959       0.0552207 
        3.84853       0.0705687       0.0546283 
        3.86424        0.069931       0.0540457 
        3.87992       0.0694426       0.0534723 
        3.89561       0.0687126       0.0529072 
        3.91134       0.0682774       0.0523489 
        3.92704       0.0675281       0.0517993 
        3.94273       0.0668331        0.051258 
        3.95845       0.0662024       0.0507234 
        3.97418        0.065845       0.0501962 
        3.98988       0.0650705       0.0496771 
        4.00554       0.0645099       0.0491667 
        4.02125       0.0638786        0.048662 
        4.03698       0.0629961       0.0481634 
        4.05268       0.0624812       0.0476729 
        4.06839       0.0615228       0.0471888 
         4.0841        0.060818       0.0467115 
        4.09983       0.0599681         0.04624 
        4.11555       0.0592403       0.0457752 
        4.13124       0.0584075        0.045318 
        4.14693       0.0581318       0.0448665 
        4.16266       0.0572998       0.0444201 
        4.17839       0.0565796         0.04398 
        4.19408       0.0559826       0.0435468 
        4.20977       0.0554584       0.0431191 
        4.22551       0.0550288       0.0426961 
        4.24123       0.0543855       0.0422792 
        4.25691       0.0538625       0.0418689 
        4.27259       0.0532675       0.0414638 
        4.28831        0.052811       0.0410632 
        4.30404       0.0523429       0.0406675 
        4.31974       0.0520967       0.0402778 
        4.33543       0.0516113       0.0398934 
        4.35116       0.0510403        0.039513 
        4.36688       0.0507362       0.0391377 
        4.38255       0.0502251       0.0387686 
        4.39825       0.0501512       0.0384033 
        4.41398       0.0497676       0.0380421 
         4.4297       0.0494219       0.0376858 
        4.44541       0.0491489        0.037334 
        4.46111       0.0488903        0.036987 
        4.47683       0.0485838       0.0366441 
        4.49251       0.0483716       0.0363062 
        4.50819       0.0482213       0.0359726 
         4.5239       0.0479984       0.0356426 
        4.53962       0.0477693       0.0353164 
        4.55535       0.0475984        0.034994 
        4.57106       0.0474364        0.034676 
        4.58678       0.0472721       0.0343619 
         4.6025       0.0472504       0.0340516 
        4.61821       0.0472895       0.0337451 
        4.63391       0.0472379       0.0334428 
         4.6496       0.0471291       0.0331442 
        4.66532       0.0471506       0.0328487 
        4.68103       0.0472422        0.032557 
        4.69673       0.0470284        0.032269 
        4.71241       0.0471723       0.0319848 
        4.72811       0.0471595       0.0317035 
        4.74384       0.0472848       0.0314252 
        4.75955       0.0474967       0.0311506 
        4.77525       0.0476107       0.0308794 
        4.79096        0.047604        0.030611 
        4.80669       0.0477337       0.0303457 
         4.8224       0.0478846       0.0300838 
        4.83809       0.0480733       0.0298253 
        4.85379       0.0482509       0.0295695 
         4.8695       0.0484072       0.0293166 
        4.88521        0.048679       0.0290666 
        4.90093       0.0489581       0.0288195 
        4.91663       0.0492046       0.0285755 
        4.93234         0.04943        0.028334 
        4.94807       0.0498491       0.0280951 
        4.96377       0.0503552       0.0278594 
        4.97943       0.0507815       0.0276269 
        4.99514       0.0508216       0.0273963 
        5.01086       0.0514651       0.0271682 
        5.02654       0.0517252       0.0269433 
        5.04227        0.052324       0.0267202 
          5.058       0.0528482       0.0264995 
        5.07371       0.0533041       0.0262817 
        5.08942        0.053793       0.0260663 
        5.10513       0.0543764       0.0258532 
        5.12084       0.0546906       0.0256424 
        5.13656       0.0554521        0.025434 
        5.15225       0.0562768       0.0252282 
        5.16796       0.0568543       0.0250243 
        5.18369       0.0573267       0.0248225 
         5.1994       0.0582413       0.0246232 
        5.21509       0.0589377       0.0244263 
        5.23079       0.0597545       0.0242313 
        5.24649       0.0606773       0.0240385 
        5.26217       0.0614583        0.023848 
        5.27788       0.0621365       0.0236592 
        5.29359        0.062834       0.0234724 
        5.30933       0.0638502       0.0232873 
        5.32504       0.0650253       0.0231046 
        5.34073       0.0656985       0.0229239 
        5.35646        0.066922       0.0227448 
        5.37218       0.0676558       0.0225676 
        5.38789       0.0689188       0.0223925 
        5.40357       0.0698613       0.0222194 
        5.41929       0.0712205       0.0220478 
        5.43502       0.0722648        0.021878 
         5.4507       0.0736844       0.0217103 
        5.46639       0.0747528       0.0215443 
        5.48212       0.0759983       0.0213797 
        5.49786       0.0774697       0.0212166 
        5.51353       0.0784967       0.0210559 
        5.52921       0.0798287       0.0208968 
        5.54495       0.0816293       0.0207388 
        5.56066       0.0831956       0.0205825 
        5.57637       0.0848023        0.020428 
        5.59207       0.0864071       0.0202751 
        5.60778       0.0878592       0.0201237 
        5.62346       0.0900913        0.019974 
        5.63916       0.0913718       0.0198257 
        5.65487       0.0930847       0.0196788 
         5.6706       0.0950665       0.0195332 
        5.68633       0.0966378        0.019389 
        5.70203       0.0987479       0.0192466 
        5.71773        0.100577       0.0191056 
        5.73344        0.101927       0.0189659 
        5.74916         0.10491       0.0188275 
        5.76486        0.106852       0.0186906 
        5.78054        0.109074       0.0185553 
        5.79626         0.11101       0.0184209 
          5.812        0.113152       0.0182877 
         5.8277        0.115626       0.0181562 
        5.84339        0.118012        0.018026 
        5.85911        0.120928       0.0178968 
        5.87484        0.123005       0.0177688 
        5.89053        0.126524       0.0176424 
        5.90623        0.128788       0.0175171 
        5.92195        0.130856       0.0173928 
        5.93767        0.133602       0.0172697 
        5.95336        0.137082       0.0171481 
        5.96905        0.139355       0.0170276 
        5.98476        0.141997       0.0169081 
        6.00048         0.14533       0.0167898 
        6.01617        0.149055       0.0166726 
        6.03185        0.151542       0.0165568 
        6.04756        0.155098       0.0164417 
        6.06331        0.157626       0.0163275 
        6.07903        0.161533       0.0162146 
        6.09473        0.164793       0.0161029 
        6.11044        0.168353       0.0159921 
        6.12616        0.171368       0.0158823 
        6.14186         0.17515       0.0157737 
        6.15755         0.17783       0.0156661 
        6.17326        0.182907       0.0155594 
        6.18898        0.186269       0.0154536 
        6.20467        0.190606        0.015349 
        6.22036        0.193238       0.0152454 
         6.2361         0.19774       0.0151424 
         6.2518        0.202629       0.0150405 
        6.26748        0.204522       0.0149398 
        6.28319        0.210167       0.0148397 
        6.29893        0.215687       0.0147404 
        6.31463        0.220192       0.0146422 
        6.33033         0.22351        0.014545 
        6.34604        0.226748       0.0144485 
        6.36177        0.232137       0.0143528 
        6.37747        0.236447       0.0142581 
