# k  (h/Mpc)    Pcb(k)  (Mpc/h)^3    Pcb_linear(k) (Mpc/h)^3   ShotnoiseSubtracted = true
      0.0200456         21521.4         21827.5 
      0.0350414         14654.3         14080.2 
      0.0492313         9702.56         9826.68 
      0.0637834         7643.78         7967.97 
      0.0800726         5639.37          5876.4 
       0.096163         4380.48         4089.79 
       0.111083         3597.23         3337.72 
       0.126058            2949         2920.36 
       0.142273         2464.44         2306.58 
       0.158546         1993.24         1792.01 
        0.17375         1784.32         1564.33 
       0.188953         1670.11          1396.2 
       0.204907          1398.9         1168.25 
       0.220756         1253.98         978.583 
        0.23588         1119.93         875.003 
         0.2514         1000.06         788.743 
       0.267535         959.358         686.238 
       0.283568         842.696         599.372 
       0.299022         799.781         542.212 
       0.314451          826.87         493.726 
       0.330372         711.895         442.145 
       0.346141         652.624         397.441 
       0.361624         623.127         363.362 
       0.377134          592.69         333.744 
       0.392932         562.548         304.639 
       0.408854         538.219         278.348 
       0.424564         522.597         256.639 
       0.440253         477.066         237.478 
       0.455999          454.46         219.518 
       0.471626         461.431         203.345 
        0.48727         432.072         189.125 
       0.502856         408.749         176.384 
       0.518488         398.893         164.604 
       0.534347         379.103         153.659 
       0.550082         360.541         143.875 
       0.565732           356.1         135.013 
       0.581496         344.633         126.792 
       0.597222         334.975         119.232 
       0.612804         325.196         112.371 
       0.628434          312.32         106.041 
       0.644267          300.48         100.117 
       0.660051         296.917         94.6543 
       0.675724         288.548         89.6266 
       0.691403         282.548          84.957 
       0.707174         271.318         80.5915 
       0.722871           267.1         76.5475 
        0.73838         261.793         72.8218 
       0.754018          252.52         69.3141 
       0.769845           251.5         65.9975 
        0.78569         243.465         62.8933 
       0.801365         235.415         60.0174 
       0.817031         234.202         57.3219 
       0.832809           228.4         54.7734 
       0.848511         223.455           52.39 
       0.864097         216.121         50.1636 
       0.879701         215.694         48.0633 
       0.895507         209.033         46.0576 
       0.911279         204.376         44.1696 
        0.92691         201.418         42.4021 
       0.942635          198.93         40.7208 
       0.958396          193.36         39.1264 
       0.974128         191.046         37.6195 
       0.989692         183.788         36.2062 
        1.00528         183.253         34.8629 
        1.02113         180.892         33.5663 
        1.03692         176.563         32.3399 
        1.05264         172.665         31.1799 
        1.06832         171.198         30.0782 
        1.08405         167.314         29.0265 
        1.09979         164.872          28.024 
        1.11537         162.655         27.0785 
        1.13105         159.084         26.1706 
        1.14679          157.71         25.3005 
        1.16256         154.393          24.468 
        1.17828         152.517         23.6754 
        1.19395         148.538         22.9203 
         1.2097         147.842          22.194 
        1.22537         146.293         21.5025 
          1.241         141.368         20.8423 
        1.25666          141.03         20.2079 
        1.27241         138.136         19.5968 
        1.28819          136.43         19.0096 
        1.30392         134.734         18.4481 
        1.31957         131.403         17.9115 
        1.33529         128.944         17.3941 
        1.35108         128.299          16.895 
        1.36674         124.915         16.4188 
         1.3824         124.002         15.9613 
        1.39811         122.655         15.5195 
        1.41389         119.636         15.0926 
        1.42964         117.652         14.6824 
        1.44531         116.999         14.2892 
        1.46101         114.666         13.9096 
        1.47667         113.777         13.5447 
        1.49229         112.286         13.1937 
        1.50793         109.837         12.8547 
        1.52367         108.152         12.5253 
        1.53953         106.267         12.2052 
        1.55526         105.446         11.8987 
        1.57092         104.331         11.6039 
        1.58662         102.259         11.3182 
        1.60235         101.018         11.0416 
        1.61809         99.4247          10.774 
        1.63369         97.6559         10.5175 
        1.64941         97.2182         10.2675 
        1.66519         95.2941         10.0247 
        1.68085         93.7189         9.79133 
        1.69652         92.8727         9.56527 
        1.71228         91.0667         9.34501 
        1.72806          90.838         9.13144 
        1.74368         89.5586         8.92663 
        1.75933         88.2343         8.72763 
        1.77505         87.1259         8.53371 
        1.79081         85.6737         8.34529 
         1.8065         83.9069          8.1633 
        1.82218         83.1098         7.98686 
        1.83797         82.5068         7.81437 
        1.85367         81.4497         7.64789 
        1.86928         80.7096          7.4872 
        1.88497         79.0604         7.33021 
        1.90073         78.4472         7.17711 
        1.91647          76.895         7.02847 
        1.93218         76.2563         6.88431 
        1.94787         74.6789         6.74437 
        1.96363         74.2583         6.60773 
        1.97935          73.404         6.47512 
        1.99499         72.6688         6.34686 
        2.01064         71.3195         6.22186 
         2.0264         70.3189         6.09941 
        2.04216         69.4374         5.98027 
        2.05781         68.4679         5.86505 
        2.07353         67.8144         5.75241 
        2.08928         66.9577         5.64247 
        2.10499         66.1395         5.53566 
        2.12065         65.2531         5.43191 
        2.13633          64.335          5.3307 
        2.15211         63.4045         5.23139 
        2.16785         62.5973         5.13486 
        2.18349         61.6583         5.04136 
        2.19916          61.256         4.94995 
        2.21489         60.4028          4.8605 
        2.23063         59.2665         4.77316 
         2.2463         58.5729         4.68835 
        2.26194         58.3591         4.60579 
        2.27765         57.1102         4.52477 
        2.29341         56.6129         4.44547 
        2.30914         55.8207         4.36822 
        2.32486         55.3605         4.29282 
        2.34061         54.4169         4.21906 
        2.35635         53.9649         4.14709 
        2.37203         53.0367         4.07702 
        2.38768         52.6322          4.0087 
        2.40339         51.8947         3.94169 
        2.41914         51.0504         3.87603 
        2.43483         50.7576         3.81209 
         2.4505         50.0047         3.74968 
        2.46622         49.5306         3.68844 
        2.48195         49.0342         3.62855 
        2.49759         48.3258         3.57029 
        2.51328         47.6473         3.51315 
        2.52906         47.1795         3.45689 
        2.54479         46.6475         3.40205 
        2.56049         45.9755          3.3485 
        2.57618         45.4851         3.29614 
        2.59189         44.9168          3.2448 
        2.60758         44.2986         3.19463 
        2.62325         43.8993         3.14557 
        2.63898         43.5753         3.09735 
        2.65468         42.8983         3.05024 
        2.67044         42.5769          3.0039 
        2.68618           42.28         2.95861 
        2.70184         41.5479         2.91443 
        2.71755         41.0482         2.87104 
        2.73329          40.505         2.82845 
        2.74897          40.108         2.78685 
        2.76462         39.5601         2.74618 
        2.78034         39.2858         2.70614 
        2.79607         38.8727         2.66684 
        2.81179         38.3057         2.62837 
        2.82749         37.9544         2.59069 
        2.84321         37.5124         2.55369 
        2.85893         37.0759         2.51743 
        2.87462         36.8374         2.48192 
        2.89033         36.1325         2.44706 
        2.90605         35.7067         2.41283 
        2.92176         35.4949         2.37926 
        2.93747         35.0788         2.34634 
        2.95318         34.7118         2.31404 
        2.96891         34.2364         2.28232 
        2.98456         33.9444         2.25133 
        3.00023         33.5622         2.22086 
        3.01596         32.9771         2.19085 
        3.03164          32.681         2.16148 
        3.04738         32.4113         2.13256 
         3.0631         32.1297         2.10417 
        3.07883         31.7581         2.07629 
        3.09456         31.3684         2.04891 
        3.11026         31.1301         2.02207 
        3.12596           30.79          1.9957 
        3.14163         30.4209         1.96986 
        3.15734         30.0588         1.94441 
        3.17308         29.8311         1.91935 
        3.18879         29.5188         1.89479 
        3.20447         29.1265         1.87069 
         3.2202         28.8393         1.84693 
         3.2359         28.6165         1.82362 
        3.25157         28.2952         1.80077 
        3.26729          27.972         1.77823 
        3.28304         27.6815         1.75603 
        3.29877         27.3256         1.73424 
        3.31446         27.0647         1.71286 
        3.33014         26.7692         1.69185 
        3.34585         26.4729         1.67116 
        3.36158         26.2876         1.65078 
        3.37727         25.9591          1.6308 
        3.39294          25.738         1.61117 
        3.40867         25.4635         1.59179 
        3.42439         25.2132         1.57273 
        3.44008         24.9871         1.55401 
        3.45578         24.7226         1.53559 
        3.47153         24.4374         1.51742 
        3.48724         24.1842         1.49957 
        3.50292         24.0501         1.48205 
        3.51859         23.7299         1.46481 
        3.53431         23.4837         1.44779 
        3.55007         23.2504           1.431 
        3.56577         23.0468         1.41454 
        3.58146         22.8203         1.39834 
        3.59719          22.616         1.38235 
        3.61292         22.4211         1.36662 
        3.62859          22.099         1.35118 
        3.64429         21.9451         1.33596 
        3.66003         21.7455         1.32092 
        3.67578          21.485         1.30611 
        3.69146         21.2931         1.29158 
        3.70712         21.0711          1.2773 
        3.72284         20.9099         1.26318 
        3.73853         20.7417          1.2493 
        3.75422         20.4798         1.23561 
        3.76993         20.3238         1.22212 
        3.78564         20.1528         1.20883 
        3.80137         19.9494         1.19572 
        3.81707         19.7711         1.18282 
        3.83279         19.5788         1.17011 
        3.84853         19.3352         1.15755 
        3.86424         19.2089         1.14521 
        3.87992         19.0374         1.13306 
        3.89561         18.7625         1.12108 
        3.91134         18.6087         1.10925 
        3.92704         18.4839         1.09761 
        3.94273         18.3063         1.08614 
        3.95845         18.1168         1.07481 
        3.97418         17.9397         1.06364 
        3.98988         17.7052         1.05264 
        4.00554         17.5665         1.04182 
        4.02125         17.4497         1.03113 
        4.03698          17.263         1.02056 
        4.05268         17.0984         1.01017 
        4.06839         16.9396        0.999912 
         4.0841          16.785        0.989798 
        4.09983         16.6354        0.979808 
        4.11555         16.4816        0.969959 
        4.13124         16.3628         0.96027 
        4.14693         16.1591        0.950704 
        4.16266         16.0055        0.941245 
        4.17839         15.9378        0.931919 
        4.19408         15.7817        0.922739 
        4.20977         15.6376        0.913677 
        4.22551         15.5063        0.904714 
        4.24123          15.356        0.895879 
        4.25691         15.2465        0.887185 
        4.27259          15.105        0.878602 
        4.28831         14.9778        0.870114 
        4.30404          14.824        0.861729 
        4.31974         14.7136        0.853471 
        4.33543         14.5843        0.845326 
        4.35116         14.4534        0.837265 
        4.36688         14.3302        0.829312 
        4.38255         14.2136         0.82149 
        4.39825         14.0946        0.813752 
        4.41398         13.9702        0.806096 
         4.4297         13.8127        0.798546 
        4.44541         13.7448        0.791093 
        4.46111         13.5726         0.78374 
        4.47683         13.4942        0.776474 
        4.49251         13.3659        0.769314 
        4.50819         13.2338        0.762244 
         4.5239         13.1396        0.755253 
        4.53962         13.0079         0.74834 
        4.55535          12.926        0.741509 
        4.57106         12.8171        0.734772 
        4.58678         12.6778        0.728116 
         4.6025         12.5805         0.72154 
        4.61821         12.4919        0.715046 
        4.63391          12.386        0.708639 
         4.6496         12.2685        0.702312 
        4.66532         12.1552        0.696052 
        4.68103         12.0792         0.68987 
        4.69673         11.9706        0.683768 
        4.71241         11.8781        0.677746 
        4.72811         11.7858        0.671785 
        4.74384         11.6684        0.665887 
        4.75955         11.5757        0.660069 
        4.77525         11.5097        0.654322 
        4.79096         11.3848        0.648636 
        4.80669         11.3116        0.643014 
         4.8224         11.1879        0.637465 
        4.83809         11.1032        0.631986 
        4.85379         11.0195        0.626567 
         4.8695         10.9307        0.621207 
        4.88521         10.8312        0.615911 
        4.90093         10.7745        0.610675 
        4.91663         10.6688        0.605504 
        4.93234         10.5778        0.600387 
        4.94807         10.4965        0.595325 
        4.96377         10.4115         0.59033 
        4.97943         10.3172        0.585402 
        4.99514         10.2417        0.580518 
        5.01086         10.1703        0.575684 
        5.02654         10.0817        0.570918 
        5.04227          10.002         0.56619 
          5.058         9.92683        0.561514 
        5.07371         9.85933        0.556899 
        5.08942         9.79969        0.552334 
        5.10513         9.71203         0.54782 
        5.12084          9.6447        0.543353 
        5.13656         9.54643        0.538936 
        5.15225         9.46283        0.534576 
        5.16796         9.40369        0.530256 
        5.18369         9.33151        0.525979 
         5.1994         9.24689        0.521757 
        5.21509         9.18794        0.517584 
        5.23079         9.12958        0.513452 
        5.24649         9.05529        0.509367 
        5.26217         8.97927         0.50533 
        5.27788         8.91853        0.501329 
        5.29359          8.8304        0.497371 
        5.30933          8.7883         0.49345 
        5.32504         8.72065        0.489577 
        5.34073         8.62958        0.485749 
        5.35646         8.58249        0.481954 
        5.37218         8.50796        0.478198 
        5.38789         8.47304        0.474488 
        5.40357         8.39155        0.470821 
        5.41929         8.33254        0.467185 
        5.43502         8.27305        0.463585 
         5.4507         8.21201        0.460032 
        5.46639         8.13969        0.456516 
        5.48212         8.07321        0.453027 
        5.49786         8.02645         0.44957 
        5.51353         7.97826        0.446167 
        5.52921         7.90578        0.442794 
        5.54495         7.84995        0.439446 
        5.56066          7.7926        0.436136 
        5.57637         7.73527         0.43286 
        5.59207         7.68181        0.429621 
        5.60778         7.62177        0.426413 
        5.62346         7.58405        0.423241 
        5.63916         7.51963        0.420099 
        5.65487         7.47041        0.416986 
         5.6706         7.39818        0.413902 
        5.68633         7.35437        0.410846 
        5.70203           7.304        0.407828 
        5.71773         7.25299         0.40484 
        5.73344         7.19742         0.40188 
        5.74916         7.14794        0.398947 
        5.76486         7.11291        0.396046 
        5.78054         7.04811        0.393179 
        5.79626         6.99725        0.390332 
          5.812         6.94943        0.387509 
         5.8277         6.88813        0.384723 
        5.84339         6.85423        0.381963 
        5.85911         6.79474        0.379225 
        5.87484         6.76642        0.376514 
        5.89053         6.71679        0.373835 
        5.90623         6.66994         0.37118 
        5.92195         6.60417        0.368546 
        5.93767         6.57011        0.365939 
        5.95336         6.51881        0.363361 
        5.96905         6.47709        0.360809 
        5.98476         6.44224        0.358277 
        6.00048         6.38016        0.355768 
        6.01617         6.36549        0.353287 
        6.03185         6.30802        0.350832 
        6.04756         6.25214        0.348394 
        6.06331         6.21055        0.345974 
        6.07903         6.17921        0.343582 
        6.09473         6.13793        0.341214 
        6.11044         6.09584        0.338866 
        6.12616         6.04716         0.33654 
        6.14186          6.0043        0.334239 
        6.15755         5.97738        0.331958 
        6.17326         5.92332        0.329697 
        6.18898          5.8945        0.327456 
        6.20467         5.84794        0.325239 
        6.22036         5.81351        0.323043 
         6.2361         5.76545        0.320861 
         6.2518         5.74056        0.318703 
        6.26748         5.69318        0.316568 
        6.28319         5.66481        0.314448 
        6.29893         5.62314        0.312344 
        6.31463         5.57901        0.310264 
        6.33033         5.55449        0.308202 
        6.34604         5.51256        0.306158 
        6.36177         5.48713         0.30413 
        6.37747         5.44097        0.302124 
