# k  (h/Mpc)    Pcb(k)  (Mpc/h)^3    Pcb_linear(k) (Mpc/h)^3   ShotnoiseSubtracted = true
      0.0200456         20386.7         20671.5 
      0.0350414         13869.7         13334.5 
      0.0492313         9197.48         9306.23 
      0.0637834         7246.96         7545.96 
      0.0800726         5346.81         5565.17 
       0.096163         4142.19         3873.18 
       0.111083         3402.17         3160.94 
       0.126058         2790.57         2765.69 
       0.142273         2326.58         2184.42 
       0.158546         1882.09          1697.1 
        0.17375         1682.25         1481.48 
       0.188953         1571.08         1322.26 
       0.204907         1314.09         1106.38 
       0.220756         1176.62         926.754 
        0.23588            1051          828.66 
         0.2514         937.199         746.969 
       0.267535         899.303         649.893 
       0.283568         788.199         567.628 
       0.299022         748.645         513.495 
       0.314451         771.682         467.577 
       0.330372         662.386         418.728 
       0.346141         607.737         376.392 
       0.361624         579.921         344.117 
       0.377134         550.392         316.068 
       0.392932         523.359         288.505 
       0.408854         500.162         263.606 
       0.424564         485.135         243.047 
       0.440253         441.856           224.9 
       0.455999         421.018         207.892 
       0.471626         426.897         192.575 
        0.48727         399.922         179.109 
       0.502856         376.414         167.042 
       0.518488         368.969         155.886 
       0.534347         349.272         145.521 
       0.550082         332.545         136.255 
       0.565732          329.02         127.862 
       0.581496         317.552         120.077 
       0.597222         308.303         112.917 
       0.612804          299.08          106.42 
       0.628434         287.547         100.425 
       0.644267         276.063         94.8147 
       0.660051         272.703         89.6412 
       0.675724         265.281         84.8797 
       0.691403         259.793         80.4575 
       0.707174         249.263         76.3231 
       0.722871         245.048         72.4933 
        0.73838         240.719          68.965 
       0.754018         231.748          65.643 
       0.769845         230.994         62.5021 
        0.78569         223.375         59.5623 
       0.801365          216.18         56.8387 
       0.817031         214.855         54.2859 
       0.832809         209.404         51.8725 
       0.848511         204.476         49.6153 
       0.864097         197.977         47.5067 
       0.879701         197.555         45.5177 
       0.895507         191.885         43.6183 
       0.911279         187.386         41.8302 
        0.92691         184.227         40.1563 
       0.942635         182.279         38.5641 
       0.958396         177.279         37.0541 
       0.974128         175.039         35.6271 
       0.989692         168.307         34.2886 
        1.00528          168.02         33.0165 
        1.02113         165.535         31.7885 
        1.03692         161.438         30.6271 
        1.05264         157.885         29.5285 
        1.06832         157.007         28.4852 
        1.08405         152.941         27.4892 
        1.09979         151.004         26.5398 
        1.11537         149.017         25.6443 
        1.13105         145.727         24.7845 
        1.14679         144.423         23.9605 
        1.16256         141.098         23.1721 
        1.17828         139.579         22.4215 
        1.19395         135.993         21.7064 
         1.2097         135.272         21.0186 
        1.22537         133.915         20.3637 
          1.241         129.544         19.7384 
        1.25666         129.103         19.1376 
        1.27241         126.246         18.5589 
        1.28819         124.781         18.0028 
        1.30392         123.179          17.471 
        1.31957         120.173         16.9629 
        1.33529         117.992         16.4729 
        1.35108         117.198         16.0002 
        1.36674         114.401         15.5492 
         1.3824         113.518         15.1159 
        1.39811         112.031         14.6975 
        1.41389         109.405         14.2933 
        1.42964         107.722         13.9048 
        1.44531         106.996         13.5325 
        1.46101         104.731         13.1729 
        1.47667         104.113         12.8273 
        1.49229         102.709         12.4949 
        1.50793         100.505         12.1739 
        1.52367         98.9996         11.8619 
        1.53953         97.2331         11.5588 
        1.55526         96.5515         11.2685 
        1.57092         95.4968         10.9893 
        1.58662         93.7097         10.7188 
        1.60235         92.4657         10.4568 
        1.61809         91.1946         10.2034 
        1.63369         89.5641          9.9605 
        1.64941         89.2529         9.72374 
        1.66519         87.5543         9.49374 
        1.68085          85.961         9.27276 
        1.69652         85.2233         9.05867 
        1.71228         83.6448         8.85007 
        1.72806         83.4301         8.64782 
        1.74368          82.054         8.45385 
        1.75933         80.9102         8.26539 
        1.77505         79.9481         8.08174 
        1.79081         78.6381          7.9033 
         1.8065         77.0101         7.73095 
        1.82218         76.3591         7.56385 
        1.83797         75.9101          7.4005 
        1.85367         74.6449         7.24283 
        1.86928         74.1361         7.09066 
        1.88497         72.5846         6.94198 
        1.90073         71.9981         6.79699 
        1.91647         70.6612         6.65622 
        1.93218          70.087          6.5197 
        1.94787          68.625         6.38717 
        1.96363          68.179         6.25777 
        1.97935         67.5099         6.13218 
        1.99499         66.8063         6.01071 
        2.01064         65.4312         5.89233 
         2.0264         64.6628         5.77636 
        2.04216          63.759         5.66354 
        2.05781         62.9341         5.55442 
        2.07353         62.3075         5.44775 
        2.08928         61.5546         5.34363 
        2.10499         60.6665         5.24247 
        2.12065          60.105         5.14422 
        2.13633         59.1897         5.04837 
        2.15211         58.3733         4.95432 
        2.16785         57.4968         4.86291 
        2.18349         56.8346         4.77435 
        2.19916         56.3394         4.68779 
        2.21489         55.5348         4.60307 
        2.23063         54.5369         4.52036 
         2.2463         54.0168         4.44004 
        2.26194         53.7475         4.36185 
        2.27765         52.7069         4.28512 
        2.29341         52.1722         4.21003 
        2.30914          51.568         4.13686 
        2.32486         51.1376         4.06546 
        2.34061         50.2121         3.99561 
        2.35635         49.7167         3.92745 
        2.37203         48.9792         3.86109 
        2.38768         48.5457         3.79639 
        2.40339         47.9742         3.73292 
        2.41914         47.0899         3.67075 
        2.43483         46.9319         3.61019 
         2.4505         46.2481         3.55109 
        2.46622         45.8091         3.49309 
        2.48195         45.2151         3.43637 
        2.49759         44.7645          3.3812 
        2.51328         44.0956         3.32709 
        2.52906          43.698          3.2738 
        2.54479         43.1809         3.22187 
        2.56049         42.4556         3.17116 
        2.57618         42.0951         3.12156 
        2.59189         41.5538         3.07295 
        2.60758         40.9803         3.02543 
        2.62325         40.6969         2.97897 
        2.63898         40.3777         2.93331 
        2.65468         39.7821         2.88869 
        2.67044         39.3966          2.8448 
        2.68618         39.0275         2.80192 
        2.70184         38.5207         2.76008 
        2.71755          37.913         2.71898 
        2.73329         37.5257         2.67865 
        2.74897         37.1453         2.63925 
        2.76462         36.6842         2.60073 
        2.78034         36.4549         2.56281 
        2.79607         35.9431          2.5256 
        2.81179         35.4877         2.48916 
        2.82749         35.1563         2.45348 
        2.84321         34.8219         2.41844 
        2.85893         34.3806          2.3841 
        2.87462         34.1173         2.35047 
        2.89033         33.5259         2.31745 
        2.90605         33.0807         2.28504 
        2.92176         32.9762         2.25325 
        2.93747          32.567         2.22208 
        2.95318         32.2034         2.19148 
        2.96891         31.7762         2.16144 
        2.98456         31.5512         2.13209 
        3.00023         31.1312         2.10324 
        3.01596         30.6225         2.07482 
        3.03164         30.3974         2.04701 
        3.04738         30.1352         2.01961 
         3.0631         29.9354         1.99273 
        3.07883         29.5639         1.96632 
        3.09456         29.1915          1.9404 
        3.11026         28.9097         1.91497 
        3.12596          28.624            1.89 
        3.14163          28.283         1.86553 
        3.15734         28.0013         1.84143 
        3.17308         27.7231         1.81769 
        3.18879         27.4677         1.79444 
        3.20447         27.0784         1.77161 
         3.2202         26.7988         1.74911 
         3.2359         26.6113         1.72704 
        3.25157         26.2818          1.7054 
        3.26729         26.0802         1.68405 
        3.28304          25.772         1.66303 
        3.29877          25.443         1.64239 
        3.31446         25.1461         1.62214 
        3.33014         24.9195         1.60225 
        3.34585         24.6373         1.58265 
        3.36158         24.4848         1.56335 
        3.37727         24.2044         1.54443 
        3.39294         23.9789         1.52584 
        3.40867         23.7108         1.50748 
        3.42439         23.4929         1.48943 
        3.44008         23.2883         1.47171 
        3.45578         23.0275         1.45426 
        3.47153         22.8064         1.43705 
        3.48724         22.5163         1.42015 
        3.50292         22.4164         1.40356 
        3.51859         22.1368         1.38723 
        3.53431         21.8816         1.37111 
        3.55007         21.6406         1.35521 
        3.56577         21.4742         1.33962 
        3.58146         21.2468         1.32428 
        3.59719         21.0554         1.30914 
        3.61292           20.85         1.29424 
        3.62859         20.5961         1.27962 
        3.64429         20.4464          1.2652 
        3.66003          20.232         1.25096 
        3.67578         19.9934         1.23693 
        3.69146         19.8143         1.22318 
        3.70712         19.6649         1.20965 
        3.72284          19.495         1.19628 
        3.73853         19.3424         1.18313 
        3.75422         19.0767         1.17017 
        3.76993         18.9369         1.15739 
        3.78564         18.7669         1.14481 
        3.80137           18.54         1.13239 
        3.81707         18.4262         1.12018 
        3.83279         18.2141         1.10813 
        3.84853         18.0211         1.09625 
        3.86424         17.8676         1.08455 
        3.87992         17.7212         1.07305 
        3.89561         17.4947         1.06171 
        3.91134         17.3586          1.0505 
        3.92704         17.1709         1.03947 
        3.94273         17.0491         1.02861 
        3.95845         16.8833         1.01788 
        3.97418          16.724          1.0073 
        3.98988          16.518        0.996888 
        4.00554         16.3592        0.986646 
        4.02125          16.279        0.976516 
        4.03698         16.0973        0.966512 
        4.05268         15.9515        0.956669 
        4.06839         15.7796        0.946954 
         4.0841         15.6311        0.937376 
        4.09983         15.5323        0.927915 
        4.11555         15.3567        0.918587 
        4.13124         15.2732        0.909412 
        4.14693         15.0575        0.900352 
        4.16266         14.9787        0.891394 
        4.17839          14.869        0.882562 
        4.19408         14.7051        0.873868 
        4.20977         14.5955        0.865286 
        4.22551         14.4672        0.856798 
        4.24123         14.3303        0.848431 
        4.25691         14.2247        0.840197 
        4.27259         14.0489        0.832069 
        4.28831         13.9718         0.82403 
        4.30404         13.8407        0.816089 
        4.31974         13.7408        0.808269 
        4.33543         13.5843        0.800555 
        4.35116         13.4757        0.792921 
        4.36688         13.3675        0.785389 
        4.38255         13.2403        0.777982 
        4.39825         13.1189        0.770653 
        4.41398         13.0235        0.763403 
         4.4297         12.8935        0.756253 
        4.44541         12.8043        0.749195 
        4.46111         12.6582        0.742231 
        4.47683         12.5723         0.73535 
        4.49251         12.4385        0.728569 
        4.50819         12.3424        0.721874 
         4.5239         12.2878        0.715253 
        4.53962         12.1245        0.708705 
        4.55535         12.0538        0.702236 
        4.57106         11.9569        0.695856 
        4.58678         11.8358        0.689553 
         4.6025         11.7354        0.683325 
        4.61821         11.6364        0.677175 
        4.63391         11.5399        0.671107 
         4.6496         11.4283        0.665116 
        4.66532         11.3342        0.659187 
        4.68103         11.2782        0.653333 
        4.69673         11.1663        0.647554 
        4.71241         11.0811         0.64185 
        4.72811         10.9958        0.636205 
        4.74384         10.8886         0.63062 
        4.75955         10.7827         0.62511 
        4.77525         10.7137        0.619667 
        4.79096         10.6144        0.614282 
        4.80669         10.5409        0.608958 
         4.8224         10.4293        0.603703 
        4.83809         10.3465        0.598514 
        4.85379          10.268        0.593382 
         4.8695         10.1966        0.588306 
        4.88521         10.1097         0.58329 
        4.90093         10.0343        0.578332 
        4.91663         9.94095        0.573435 
        4.93234         9.87975        0.568589 
        4.94807         9.80553        0.563795 
        4.96377         9.71643        0.559064 
        4.97943         9.62748        0.554398 
        4.99514         9.55814        0.549772 
        5.01086         9.46596        0.545194 
        5.02654         9.40404         0.54068 
        5.04227          9.3297        0.536203 
          5.058          9.2698        0.531774 
        5.07371         9.20069        0.527404 
        5.08942         9.14885        0.523081 
        5.10513         9.04322        0.518806 
        5.12084         8.98499        0.514575 
        5.13656         8.89912        0.510393 
        5.15225         8.83752        0.506263 
        5.16796         8.78998        0.502172 
        5.18369         8.68821        0.498122 
         5.1994         8.64566        0.494123 
        5.21509         8.57972        0.490172 
        5.23079          8.5183        0.486258 
        5.24649         8.44598         0.48239 
        5.26217          8.3838        0.478566 
        5.27788         8.32619        0.474778 
        5.29359         8.24558        0.471029 
        5.30933          8.2025        0.467315 
        5.32504          8.1337        0.463647 
        5.34073         8.05736        0.460022 
        5.35646         8.01321        0.456428 
        5.37218         7.94626        0.452871 
        5.38789         7.88634        0.449358 
        5.40357         7.81396        0.445885 
        5.41929         7.77356        0.442441 
        5.43502          7.7118        0.439033 
         5.4507         7.64295        0.435668 
        5.46639          7.5799        0.432337 
        5.48212         7.52863        0.429034 
        5.49786         7.48685         0.42576 
        5.51353          7.4476        0.422536 
        5.52921         7.38112        0.419342 
        5.54495         7.32634        0.416172 
        5.56066          7.2718        0.413037 
        5.57637         7.21676        0.409935 
        5.59207         7.15205        0.406867 
        5.60778         7.11937        0.403829 
        5.62346         7.06388        0.400825 
        5.63916         7.01019        0.397849 
        5.65487         6.96552        0.394902 
         5.6706         6.89931         0.39198 
        5.68633         6.85105        0.389087 
        5.70203         6.80305        0.386228 
        5.71773         6.76295        0.383399 
        5.73344         6.71572        0.380595 
        5.74916         6.66255        0.377817 
        5.76486         6.63022        0.375071 
        5.78054         6.57828        0.372355 
        5.79626         6.52076        0.369658 
          5.812          6.4852        0.366986 
         5.8277         6.41082        0.364347 
        5.84339         6.39289        0.361733 
        5.85911         6.33342         0.35914 
        5.87484         6.30873        0.356573 
        5.89053         6.26484        0.354036 
        5.90623         6.21613        0.351521 
        5.92195         6.16953        0.349027 
        5.93767         6.12977        0.346558 
        5.95336         6.07403        0.344117 
        5.96905         6.03735        0.341699 
        5.98476         5.99991        0.339302 
        6.00048         5.95753        0.336926 
        6.01617          5.9314        0.334576 
        6.03185         5.87025        0.332251 
        6.04756         5.82627        0.329942 
        6.06331         5.79518         0.32765 
        6.07903         5.77003        0.325384 
        6.09473         5.71584        0.323142 
        6.11044         5.68018        0.320919 
        6.12616         5.64623        0.318716 
        6.14186         5.61384        0.316536 
        6.15755         5.57785        0.314377 
        6.17326         5.52053        0.312236 
        6.18898         5.49959        0.310113 
        6.20467         5.45023        0.308014 
        6.22036          5.4279        0.305934 
         6.2361         5.39374        0.303867 
         6.2518         5.35905        0.301823 
        6.26748         5.31449        0.299802 
        6.28319         5.29317        0.297794 
        6.29893         5.25039        0.295802 
        6.31463          5.2092        0.293831 
        6.33033         5.18296        0.291879 
        6.34604         5.15012        0.289943 
        6.36177         5.12242        0.288022 
        6.37747         5.08248        0.286123 
