# k  (h/Mpc)    Pcb(k)  (Mpc/h)^3    Pcb_linear(k) (Mpc/h)^3   ShotnoiseSubtracted = true
      0.0200456         115.712         116.964 
      0.0350414         75.8851         75.4496 
      0.0492313         52.9083         52.6568 
      0.0637834          42.747         42.6968 
      0.0800726         31.6379          31.489 
       0.096163         22.0431         21.9154 
       0.111083         17.8816         17.8853 
       0.126058         15.6191         15.6489 
       0.142273         12.4243         12.3599 
       0.158546         9.67927         9.60259 
        0.17375         8.36585         8.38255 
       0.188953         7.46893         7.48163 
       0.204907         6.32841         6.26014 
       0.220756         5.27861         5.24379 
        0.23588         4.70186         4.68875 
         0.2514         4.22222         4.22652 
       0.267535           3.686         3.67724 
       0.283568         3.22519         3.21177 
       0.299022         2.91724         2.90547 
       0.314451         2.63431         2.64566 
       0.330372         2.37151         2.36926 
       0.346141         2.13282         2.12971 
       0.361624         1.95215          1.9471 
       0.377134         1.79688         1.78839 
       0.392932         1.62063         1.63243 
       0.408854         1.49903         1.49154 
       0.424564         1.37407         1.37521 
       0.440253         1.27336         1.27254 
       0.455999         1.18139          1.1763 
       0.471626         1.09713         1.08964 
        0.48727           1.015         1.01344 
       0.502856        0.944154        0.945164 
       0.518488        0.888602        0.882042 
       0.534347        0.833413        0.823393 
       0.550082        0.771523         0.77096 
       0.565732        0.718191        0.723474 
       0.581496        0.681914        0.679422 
       0.597222        0.642112        0.638912 
       0.612804         0.60355        0.602149 
       0.628434        0.572685        0.568228 
       0.644267        0.538414        0.536484 
       0.660051        0.507734        0.507211 
       0.675724        0.482273        0.480269 
       0.691403        0.458245        0.455247 
       0.707174        0.433775        0.431854 
       0.722871         0.40976        0.410184 
        0.73838        0.392446         0.39022 
       0.754018        0.375103        0.371423 
       0.769845        0.356529        0.353651 
        0.78569        0.338872        0.337017 
       0.801365        0.322891        0.321607 
       0.817031        0.308703        0.307162 
       0.832809        0.295152        0.293506 
       0.848511        0.281968        0.280735 
       0.864097        0.268811        0.268804 
       0.879701        0.257195         0.25755 
       0.895507        0.248403        0.246802 
       0.911279        0.238095        0.236685 
        0.92691        0.227986        0.227214 
       0.942635        0.219264        0.218205 
       0.958396        0.210065        0.209661 
       0.974128         0.20185        0.201586 
       0.989692        0.194771        0.194013 
        1.00528        0.188103        0.186815 
        1.02113        0.179668        0.179867 
        1.03692        0.173792        0.173295 
        1.05264        0.167705        0.167079 
        1.06832        0.161834        0.161176 
        1.08405          0.1556         0.15554 
        1.09979        0.150116        0.150168 
        1.11537        0.146067        0.145101 
        1.13105        0.140907        0.140236 
        1.14679        0.136669        0.135574 
        1.16256        0.131187        0.131113 
        1.17828        0.126887        0.126866 
        1.19395        0.122647         0.12282 
         1.2097        0.118718        0.118928 
        1.22537        0.115817        0.115222 
          1.241        0.111926        0.111685 
        1.25666         0.10879        0.108285 
        1.27241        0.105192         0.10501 
        1.28819         0.10207        0.101864 
        1.30392       0.0988892       0.0988551 
        1.31957       0.0962236       0.0959798 
        1.33529       0.0931505       0.0932075 
        1.35108        0.090593       0.0905328 
        1.36674       0.0874343       0.0879812 
         1.3824       0.0859144       0.0855294 
        1.39811       0.0831141       0.0831621 
        1.41389       0.0809105       0.0808747 
        1.42964       0.0789775       0.0786764 
        1.44531       0.0763776       0.0765697 
        1.46101       0.0744922       0.0745351 
        1.47667       0.0722372       0.0725798 
        1.49229       0.0705872       0.0706993 
        1.50793       0.0686167       0.0688827 
        1.52367       0.0669486       0.0671177 
        1.53953       0.0654581       0.0654021 
        1.55526       0.0637304       0.0637597 
        1.57092        0.061688       0.0621799 
        1.58662       0.0605179       0.0606494 
        1.60235       0.0592361       0.0591671 
        1.61809       0.0573235       0.0577331 
        1.63369         0.05626       0.0563588 
        1.64941       0.0549316       0.0550192 
        1.66519       0.0535023       0.0537178 
        1.68085       0.0521525       0.0524674 
        1.69652       0.0508575       0.0512561 
        1.71228       0.0500048       0.0500758 
        1.72806       0.0484748       0.0489313 
        1.74368       0.0476238       0.0478338 
        1.75933       0.0465896       0.0467675 
        1.77505        0.045455       0.0457284 
        1.79081       0.0445825       0.0447187 
         1.8065       0.0433401       0.0437435 
        1.82218       0.0425501        0.042798 
        1.83797       0.0415653       0.0418738 
        1.85367       0.0406093       0.0409816 
        1.86928        0.039924       0.0401206 
        1.88497       0.0391109       0.0392794 
        1.90073        0.038215       0.0384589 
        1.91647       0.0372908       0.0376624 
        1.93218       0.0365611         0.03689 
        1.94787       0.0357677       0.0361401 
        1.96363       0.0351345       0.0354079 
        1.97935       0.0343148       0.0346973 
        1.99499       0.0336664         0.03401 
        2.01064       0.0330916       0.0333402 
         2.0264       0.0324738        0.032684 
        2.04216       0.0317362       0.0320456 
        2.05781       0.0311578       0.0314282 
        2.07353          0.0304       0.0308246 
        2.08928       0.0298905       0.0302355 
        2.10499       0.0291909       0.0296631 
        2.12065        0.028803       0.0291072 
        2.13633       0.0280968       0.0285648 
        2.15211       0.0277813       0.0280327 
        2.16785       0.0272281       0.0275155 
        2.18349       0.0265848       0.0270144 
        2.19916       0.0262737       0.0265246 
        2.21489       0.0258249       0.0260452 
        2.23063       0.0252916       0.0255773 
         2.2463       0.0247297       0.0251228 
        2.26194       0.0242865       0.0246804 
        2.27765       0.0238513       0.0242462 
        2.29341       0.0235481       0.0238213 
        2.30914       0.0230308       0.0234073 
        2.32486       0.0226428       0.0230033 
        2.34061       0.0223128       0.0226081 
        2.35635       0.0218432       0.0222224 
        2.37203       0.0215091        0.021847 
        2.38768       0.0210908       0.0214809 
        2.40339       0.0207281       0.0211218 
        2.41914       0.0204692       0.0207699 
        2.43483       0.0200187       0.0204273 
         2.4505       0.0197068       0.0200929 
        2.46622       0.0193772       0.0197647 
        2.48195       0.0190429       0.0194438 
        2.49759       0.0187911       0.0191316 
        2.51328       0.0185251       0.0188254 
        2.52906       0.0182027       0.0185239 
        2.54479       0.0179113       0.0182301 
        2.56049       0.0176103       0.0179431 
        2.57618       0.0173297       0.0176625 
        2.59189       0.0170382       0.0173875 
        2.60758       0.0168124       0.0171186 
        2.62325       0.0165229       0.0168557 
        2.63898       0.0162327       0.0165973 
        2.65468        0.015982       0.0163449 
        2.67044       0.0158086       0.0160966 
        2.68618       0.0155245       0.0158539 
        2.70184       0.0152919       0.0156172 
        2.71755       0.0150132       0.0153846 
        2.73329        0.014795       0.0151564 
        2.74897       0.0146218       0.0149335 
        2.76462       0.0143687       0.0147155 
        2.78034       0.0141642        0.014501 
        2.79607       0.0139859       0.0142904 
        2.81179       0.0137514       0.0140843 
        2.82749       0.0135303       0.0138823 
        2.84321       0.0133704       0.0136841 
        2.85893       0.0131553       0.0134898 
        2.87462       0.0129894       0.0132995 
        2.89033       0.0128267       0.0131127 
        2.90605       0.0125947       0.0129293 
        2.92176       0.0124753       0.0127494 
        2.93747       0.0122611        0.012573 
        2.95318       0.0120689       0.0123999 
        2.96891       0.0119315       0.0122299 
        2.98456       0.0118064       0.0120639 
        3.00023       0.0115852       0.0119006 
        3.01596       0.0114019       0.0117398 
        3.03164       0.0113128       0.0115824 
        3.04738       0.0111314       0.0114274 
         3.0631       0.0109309       0.0112753 
        3.07883       0.0107943       0.0111259 
        3.09456       0.0107227       0.0109792 
        3.11026       0.0105394       0.0108354 
        3.12596       0.0104397       0.0106941 
        3.14163       0.0102735       0.0105556 
        3.15734       0.0101459       0.0104192 
        3.17308      0.00998844       0.0102849 
        3.18879      0.00988671       0.0101533 
        3.20447      0.00976532       0.0100242 
         3.2202      0.00964138      0.00989689 
         3.2359      0.00952496      0.00977199 
        3.25157      0.00937614      0.00964952 
        3.26729       0.0092952      0.00952876 
        3.28304      0.00915133      0.00940981 
        3.29877      0.00905876      0.00929301 
        3.31446      0.00892846      0.00917844 
        3.33014      0.00879864      0.00906588 
        3.34585      0.00870047      0.00895501 
        3.36158      0.00860042      0.00884581 
        3.37727      0.00851304      0.00873875 
        3.39294      0.00839034      0.00863354 
        3.40867      0.00831795      0.00852967 
        3.42439      0.00822399      0.00842755 
        3.44008      0.00812483      0.00832727 
        3.45578      0.00802768      0.00822854 
        3.47153      0.00792637      0.00813118 
        3.48724      0.00788052      0.00803554 
        3.50292      0.00772153      0.00794165 
        3.51859      0.00764849      0.00784928 
        3.53431      0.00759217      0.00775808 
        3.55007      0.00751048       0.0076681 
        3.56577       0.0074399      0.00757987 
        3.58146      0.00730611      0.00749306 
        3.59719      0.00724475       0.0074074 
        3.61292       0.0071437      0.00732308 
        3.62859      0.00707861      0.00724039 
        3.64429      0.00701523       0.0071588 
        3.66003      0.00694802       0.0070782 
        3.67578      0.00685976      0.00699886 
        3.69146      0.00681364      0.00692102 
        3.70712      0.00673534      0.00684449 
        3.72284      0.00665321      0.00676882 
        3.73853      0.00657837      0.00669442 
        3.75422       0.0065339      0.00662109 
        3.76993      0.00645712      0.00654879 
        3.78564      0.00642486      0.00647759 
        3.80137      0.00634713      0.00640732 
        3.81707      0.00626443      0.00633822 
        3.83279      0.00620165      0.00627008 
        3.84853      0.00615786      0.00620281 
        3.86424      0.00607998      0.00613666 
        3.87992      0.00603174      0.00607156 
        3.89561      0.00597778      0.00600738 
        3.91134      0.00593927        0.005944 
        3.92704      0.00584442      0.00588159 
        3.94273      0.00581937      0.00582013 
        3.95845      0.00575105      0.00575942 
        3.97418      0.00569727      0.00569956 
        3.98988      0.00565284      0.00564062 
        4.00554      0.00557401      0.00558267 
        4.02125      0.00551389      0.00552536 
        4.03698      0.00546196      0.00546875 
        4.05268      0.00539181      0.00541306 
        4.06839       0.0053104      0.00535809 
         4.0841      0.00525765      0.00530389 
        4.09983      0.00518803      0.00525036 
        4.11555      0.00513591      0.00519758 
        4.13124      0.00506839      0.00514566 
        4.14693       0.0050106       0.0050944 
        4.16266      0.00494392      0.00504372 
        4.17839      0.00490385      0.00499374 
        4.19408      0.00485493      0.00494455 
        4.20977      0.00480371      0.00489599 
        4.22551      0.00475948      0.00484796 
        4.24123      0.00470456      0.00480062 
        4.25691      0.00466199      0.00475403 
        4.27259      0.00462259      0.00470804 
        4.28831      0.00459777      0.00466255 
        4.30404      0.00454677      0.00461762 
        4.31974      0.00450985      0.00457337 
        4.33543      0.00447606      0.00452972 
        4.35116      0.00444392      0.00448653 
        4.36688      0.00439758      0.00444391 
        4.38255      0.00437511        0.004402 
        4.39825      0.00436149      0.00436053 
        4.41398      0.00433624      0.00431951 
         4.4297      0.00431889      0.00427906 
        4.44541      0.00428906      0.00423912 
        4.46111      0.00426458      0.00419971 
        4.47683      0.00425798      0.00416078 
        4.49251      0.00422872      0.00412241 
        4.50819      0.00422422      0.00408453 
         4.5239       0.0042203      0.00404707 
        4.53962      0.00421086      0.00401002 
        4.55535      0.00420016      0.00397341 
        4.57106      0.00421003      0.00393731 
        4.58678      0.00418461      0.00390165 
         4.6025      0.00420577      0.00386641 
        4.61821      0.00419913      0.00383161 
        4.63391      0.00419277      0.00379728 
         4.6496      0.00420227      0.00376338 
        4.66532      0.00420179      0.00372983 
        4.68103      0.00421464      0.00369671 
        4.69673      0.00421094      0.00366401 
        4.71241      0.00423535      0.00363174 
        4.72811      0.00423466       0.0035998 
        4.74384      0.00426063      0.00356819 
        4.75955      0.00427383      0.00353702 
        4.77525      0.00430233      0.00350622 
        4.79096      0.00432851      0.00347575 
        4.80669      0.00433064      0.00344563 
         4.8224      0.00436423      0.00341589 
        4.83809      0.00438375      0.00338653 
        4.85379      0.00442639      0.00335749 
         4.8695      0.00445101      0.00332877 
        4.88521       0.0044756      0.00330039 
        4.90093      0.00452237      0.00327234 
        4.91663      0.00457656      0.00324463 
        4.93234      0.00458933      0.00321721 
        4.94807      0.00465574      0.00319008 
        4.96377      0.00469263      0.00316332 
        4.97943      0.00474054      0.00313691 
        4.99514        0.004778      0.00311074 
        5.01086      0.00483215      0.00308484 
        5.02654      0.00488955      0.00305929 
        5.04227      0.00494414      0.00303396 
          5.058      0.00500194       0.0030089 
        5.07371      0.00507547      0.00298417 
        5.08942      0.00515342      0.00295971 
        5.10513      0.00518457      0.00293552 
        5.12084      0.00524964      0.00291159 
        5.13656      0.00532212      0.00288792 
        5.15225      0.00538622      0.00286455 
        5.16796      0.00546956      0.00284141 
        5.18369      0.00557527      0.00281849 
         5.1994      0.00565183      0.00279586 
        5.21509      0.00575699       0.0027735 
        5.23079      0.00580104      0.00275136 
        5.24649      0.00593685      0.00272947 
        5.26217      0.00599787      0.00270784 
        5.27788      0.00613809       0.0026864 
        5.29359      0.00621657      0.00266519 
        5.30933       0.0063478      0.00264418 
        5.32504      0.00644162      0.00262342 
        5.34073      0.00657769      0.00260291 
        5.35646      0.00666526      0.00258258 
        5.37218      0.00678035      0.00256245 
        5.38789      0.00690935      0.00254257 
        5.40357      0.00699354      0.00252292 
        5.41929      0.00714686      0.00250343 
        5.43502      0.00729561      0.00248415 
         5.4507      0.00744673      0.00246511 
        5.46639      0.00765229      0.00244626 
        5.48212      0.00768308      0.00242757 
        5.49786      0.00790329      0.00240905 
        5.51353       0.0080634      0.00239081 
        5.52921      0.00824235      0.00237274 
        5.54495        0.008406       0.0023548 
        5.56066      0.00855345      0.00233706 
        5.57637      0.00875835      0.00231951 
        5.59207      0.00890235      0.00230215 
        5.60778      0.00909049      0.00228496 
        5.62346       0.0093407      0.00226796 
        5.63916      0.00948955      0.00225112 
        5.65487      0.00972117      0.00223445 
         5.6706      0.00988997      0.00221791 
        5.68633       0.0101927      0.00220154 
        5.70203       0.0103703      0.00218537 
        5.71773       0.0106082      0.00216936 
        5.73344        0.010798       0.0021535 
        5.74916       0.0111117      0.00213778 
        5.76486       0.0113807      0.00212224 
        5.78054       0.0115766      0.00210687 
        5.79626       0.0118533      0.00209161 
          5.812        0.012176      0.00207649 
         5.8277       0.0124565      0.00206156 
        5.84339       0.0127398      0.00204677 
        5.85911       0.0131322       0.0020321 
        5.87484       0.0134264      0.00201757 
        5.89053       0.0137734      0.00200322 
        5.90623       0.0141875      0.00198899 
        5.92195       0.0144792      0.00197488 
        5.93767       0.0148186      0.00196091 
        5.95336       0.0151803      0.00194709 
        5.96905       0.0156406      0.00193341 
        5.98476       0.0158502      0.00191985 
        6.00048       0.0163286       0.0019064 
        6.01617       0.0167768      0.00189311 
        6.03185       0.0171691      0.00187995 
        6.04756       0.0176203      0.00186689 
        6.06331       0.0180428      0.00185392 
        6.07903       0.0186574       0.0018411 
        6.09473       0.0189371      0.00182841 
        6.11044        0.019628      0.00181583 
        6.12616       0.0201693      0.00180337 
        6.14186       0.0205608      0.00179104 
        6.15755       0.0211539      0.00177882 
        6.17326        0.021593       0.0017667 
        6.18898       0.0224534      0.00175469 
        6.20467       0.0231299      0.00174281 
        6.22036       0.0236253      0.00173105 
         6.2361       0.0242486      0.00171935 
         6.2518       0.0249222      0.00170779 
        6.26748       0.0254841      0.00169635 
        6.28319       0.0263591      0.00168499 
        6.29893       0.0270085      0.00167371 
        6.31463       0.0278919      0.00166256 
        6.33033       0.0286126      0.00165152 
        6.34604       0.0294682      0.00164056 
        6.36177       0.0304641       0.0016297 
        6.37747       0.0313626      0.00161895 
