# k  (h/Mpc)    Pcb(k)  (Mpc/h)^3    Pcb_linear(k) (Mpc/h)^3   ShotnoiseSubtracted = true
      0.0200456         10402.1         10638.7 
      0.0350414         8414.55         8722.45 
      0.0492313          6751.5         6867.27 
      0.0637834         5977.25         5932.87 
      0.0800726         4848.13         4845.56 
       0.096163         3534.26         3682.49 
       0.111083         2899.15         3057.89 
       0.126058         2708.29         2744.25 
       0.142273         2339.86         2335.12 
       0.158546         2009.55         1896.44 
        0.17375         1650.99         1648.14 
       0.188953         1603.18         1503.41 
       0.204907         1514.31         1328.77 
       0.220756         1305.79            1142 
        0.23588         1161.26          1016.6 
         0.2514         1023.88         932.477 
       0.267535          1007.8         843.107 
       0.283568         920.883         749.946 
       0.299022         863.329         679.131 
       0.314451         819.798         626.639 
       0.330372         759.735         575.883 
       0.346141          702.04          525.32 
       0.361624         673.169          482.55 
       0.377134         631.064         447.863 
       0.392932         606.316         415.964 
       0.408854         584.566         384.974 
       0.424564         556.789         357.353 
       0.440253         541.139         333.658 
       0.455999         512.884          312.28 
       0.471626         479.314         292.305 
        0.48727         470.885         273.911 
       0.502856         456.599         257.497 
       0.518488         451.972         242.561 
       0.534347         424.412         228.484 
       0.550082         403.393         215.519 
       0.565732         402.877         203.717 
       0.581496         381.961         192.803 
       0.597222         375.066         182.697 
       0.612804         361.841         173.371 
       0.628434         350.115         164.685 
       0.644267         339.469         156.534 
       0.660051         334.119         148.974 
       0.675724         330.216         141.963 
       0.691403         320.841         135.406 
       0.707174         308.109         129.232 
       0.722871         305.189         123.474 
        0.73838         300.122         118.135 
       0.754018         291.258         113.075 
       0.769845         282.346         108.261 
        0.78569         281.473         103.728 
       0.801365         273.669         99.5034 
       0.817031         266.079         95.5214 
       0.832809         261.462         91.7362 
       0.848511         256.007         88.1772 
       0.864097         252.501         84.8353 
       0.879701         247.419         81.6668 
       0.895507         241.292         78.6257 
       0.911279         236.073         75.7488 
        0.92691         234.212         73.0426 
       0.942635         230.733         70.4562 
       0.958396          228.93         67.9919 
       0.974128         222.622         65.6523 
       0.989692         217.605          63.448 
        1.00528         214.278         61.3436 
        1.02113         213.289         59.3034 
        1.03692         206.013         57.3652 
        1.05264         202.937         55.5243 
        1.06832         199.581         53.7685 
        1.08405          196.46         52.0853 
        1.09979         195.419         50.4745 
        1.11537         189.169         48.9492 
        1.13105         188.267         47.4788 
        1.14679         186.928         46.0643 
        1.16256         183.669         44.7057 
        1.17828         179.502         43.4074 
        1.19395         177.851         42.1659 
         1.2097         175.148         40.9675 
        1.22537         172.549         39.8223 
          1.241         169.962         38.7252 
        1.25666         166.943         37.6674 
        1.27241         164.874         36.6448 
        1.28819         163.029         35.6591 
        1.30392         161.253         34.7132 
        1.31957         158.615         33.8064 
        1.33529         155.639         32.9292 
        1.35108         153.901         32.0803 
        1.36674         152.521         31.2678 
         1.3824         149.373         30.4848 
        1.39811         148.592         29.7264 
        1.41389          145.62         28.9913 
        1.42964         143.615         28.2828 
        1.44531         140.369         27.6018 
        1.46101         139.469         26.9422 
        1.47667         137.463         26.3064 
        1.49229         135.758         25.6932 
        1.50793         134.311         25.0992 
        1.52367         133.137         24.5205 
        1.53953         130.586         23.9564 
        1.55526         128.526         23.4149 
        1.57092           127.5         22.8926 
        1.58662         125.615         22.3853 
        1.60235         124.435         21.8926 
        1.61809         122.502         21.4148 
        1.63369         120.818         20.9557 
        1.64941         119.643          20.507 
        1.66519         117.674           20.07 
        1.68085         116.447          19.649 
        1.69652         113.665         19.2403 
        1.71228         113.683          18.841 
        1.72806         111.472         18.4529 
        1.74368         110.746         18.0798 
        1.75933         109.334         17.7164 
        1.77505         107.655         17.3615 
        1.79081         106.427         17.0158 
         1.8065         105.372         16.6812 
        1.82218         102.866          16.356 
        1.83797         102.544         16.0374 
        1.85367          100.88         15.7291 
        1.86928         100.366          15.431 
        1.88497         98.4513          15.139 
        1.90073         97.5534         14.8537 
        1.91647         96.1991          14.576 
        1.93218         95.3342         14.3062 
        1.94787         93.7865         14.0437 
        1.96363         92.4121         13.7869 
        1.97935         91.5342         13.5371 
        1.99499          90.459          13.295 
        2.01064         89.3431         13.0585 
         2.0264         87.8219         12.8264 
        2.04216         86.8268         12.6002 
        2.05781         85.9959         12.3809 
        2.07353         84.8408         12.1661 
        2.08928          83.624         11.9561 
        2.10499         82.9779         11.7516 
        2.12065         82.0209         11.5526 
        2.13633          81.074         11.3581 
        2.15211         80.1364         11.1669 
        2.16785         79.0546         10.9807 
        2.18349         78.2262            10.8 
        2.19916         77.2539          10.623 
        2.21489         76.8341         10.4494 
        2.23063         75.5259         10.2797 
         2.2463         74.7486         10.1146 
        2.26194         73.6422         9.95354 
        2.27765         72.9286         9.79523 
        2.29341         72.0674            9.64 
        2.30914          71.137          9.4885 
        2.32486         70.0374         9.34039 
        2.34061         69.4609         9.19524 
        2.35635         68.9692         9.05335 
        2.37203         67.6803         8.91499 
        2.38768         67.0484         8.77985 
        2.40339         66.2128         8.64706 
        2.41914         65.8395         8.51674 
        2.43483         65.1691         8.38961 
         2.4505         64.1106         8.26533 
        2.46622         63.4317         8.14317 
        2.48195         62.9036         8.02351 
        2.49759         61.9501         7.90693 
        2.51328         61.3074         7.79239 
        2.52906         60.7835         7.67943 
        2.54479         60.2467         7.56916 
        2.56049         59.3921          7.4613 
        2.57618         58.6404         7.35567 
        2.59189          58.124         7.25195 
        2.60758         57.5301         7.15042 
        2.62325         56.9364         7.05099 
        2.63898         56.3623         6.95312 
        2.65468         55.4543         6.85735 
        2.67044         55.0906         6.76299 
        2.68618         54.7279         6.67065 
        2.70184          53.803         6.58043 
        2.71755         53.4568         6.49168 
        2.73329         52.5317         6.40445 
        2.74897         52.0943         6.31913 
        2.76462         51.3682         6.23557 
        2.78034         50.9279          6.1532 
        2.79607         50.3842         6.07225 
        2.81179         49.8302         5.99287 
        2.82749          49.054         5.91502 
        2.84321          48.767         5.83849 
        2.85893         48.1486         5.76335 
        2.87462         47.6855         5.68967 
        2.89033          47.141         5.61724 
        2.90605         46.5081         5.54602 
        2.92176         46.3059         5.47609 
        2.93747         45.6081         5.40742 
        2.95318         45.1583         5.33993 
        2.96891         44.6416         5.27357 
        2.98456         44.1577         5.20865 
        3.00023         43.7753         5.14475 
        3.01596         43.3864         5.08173 
        3.03164         42.9993         5.01996 
        3.04738         42.3936         4.95905 
         3.0631         41.8884         4.89919 
        3.07883         41.4731         4.84032 
        3.09456         41.1444         4.78244 
        3.11026         40.8243         4.72562 
        3.12596         40.1973         4.66973 
        3.14163          39.908         4.61489 
        3.15734         39.4994         4.56082 
        3.17308         39.0228         4.50749 
        3.18879         38.4805         4.45517 
        3.20447         38.1699         4.40377 
         3.2202         37.7904         4.35303 
         3.2359         37.4694         4.30319 
        3.25157         37.0933         4.25427 
        3.26729         36.7717         4.20596 
        3.28304         36.4266         4.15832 
        3.29877         35.9356         4.11149 
        3.31446         35.6633         4.06549 
        3.33014         35.3435         4.02025 
        3.34585         34.9565         3.97563 
        3.36158         34.5508         3.93164 
        3.37727         34.1427         3.88845 
        3.39294         33.9207         3.84597 
        3.40867           33.66         3.80397 
        3.42439         33.2242         3.76263 
        3.44008         32.8978           3.722 
        3.45578          32.676         3.68194 
        3.47153         32.2724         3.64239 
        3.48724         31.9054          3.6035 
        3.50292         31.6653         3.56528 
        3.51859         31.3561         3.52763 
        3.53431         31.0311         3.49042 
        3.55007         30.8298         3.45366 
        3.56577         30.4352         3.41759 
        3.58146         30.2889         3.38205 
        3.59719         29.8974         3.34694 
        3.61292         29.5863         3.31234 
        3.62859         29.3471         3.27838 
        3.64429         29.0881         3.24483 
        3.66003         28.8858         3.21165 
        3.67578         28.4599         3.17896 
        3.69146         28.2685         3.14685 
        3.70712         27.9698         3.11524 
        3.72284          27.766         3.08396 
        3.73853         27.4031         3.05317 
        3.75422         27.2339          3.0228 
        3.76993         27.1118         2.99281 
        3.78564         26.7997         2.96325 
        3.80137         26.5223         2.93405 
        3.81707         26.2136          2.9053 
        3.83279         25.9619         2.87693 
        3.84853         25.7326         2.84889 
        3.86424         25.4736         2.82128 
        3.87992          25.301         2.79409 
        3.89561         25.0192         2.76726 
        3.91134         24.7788         2.74072 
        3.92704         24.5373         2.71458 
        3.94273         24.3997          2.6888 
        3.95845         24.1087         2.66332 
        3.97418          23.928         2.63816 
        3.98988         23.6699         2.61337 
        4.00554         23.5108         2.58897 
        4.02125         23.3024         2.56481 
        4.03698         23.1065         2.54093 
        4.05268         22.8453         2.51741 
        4.06839         22.6893         2.49417 
         4.0841         22.5158         2.47124 
        4.09983         22.2713         2.44857 
        4.11555         22.0236          2.4262 
        4.13124          21.838         2.40417 
        4.14693          21.645          2.3824 
        4.16266          21.456         2.36085 
        4.17839         21.2158         2.33958 
        4.19408         21.0839         2.31863 
        4.20977          20.941         2.29793 
        4.22551         20.8216         2.27743 
        4.24123         20.5803         2.25721 
        4.25691          20.369          2.2373 
        4.27259         20.1589         2.21762 
        4.28831         19.9962         2.19814 
        4.30404         19.8376         2.17887 
        4.31974         19.6598         2.15989 
        4.33543         19.4901         2.14114 
        4.35116         19.3193         2.12258 
        4.36688         19.1852         2.10424 
        4.38255         19.0583         2.08619 
        4.39825         18.8879         2.06832 
        4.41398         18.7351         2.05062 
         4.4297         18.5303         2.03315 
        4.44541         18.3696          2.0159 
        4.46111         18.2385         1.99885 
        4.47683         18.0896           1.982 
        4.49251         17.9542         1.96537 
        4.50819         17.7803         1.94895 
         4.5239         17.6269         1.93269 
        4.53962         17.4748         1.91659 
        4.55535         17.3451         1.90068 
        4.57106         17.1831         1.88497 
        4.58678          17.117         1.86943 
         4.6025         16.9531         1.85407 
        4.61821         16.7764         1.83889 
        4.63391         16.6222          1.8239 
         4.6496         16.5259         1.80909 
        4.66532         16.3934         1.79442 
        4.68103         16.2423         1.77992 
        4.69673         16.0899         1.76559 
        4.71241         15.9955         1.75144 
        4.72811         15.8944         1.73743 
        4.74384         15.7355         1.72355 
        4.75955         15.5705         1.70984 
        4.77525         15.4856          1.6963 
        4.79096         15.3354         1.68288 
        4.80669         15.2293         1.66961 
         4.8224         15.1233         1.65649 
        4.83809         14.9893         1.64354 
        4.85379         14.8516         1.63071 
         4.8695         14.7481         1.61802 
        4.88521          14.618         1.60546 
        4.90093         14.5223         1.59304 
        4.91663         14.4099         1.58076 
        4.93234         14.2676          1.5686 
        4.94807         14.1741         1.55657 
        4.96377         14.0566         1.54468 
        4.97943          13.942         1.53294 
        4.99514         13.8407          1.5213 
        5.01086         13.7431         1.50977 
        5.02654         13.6309         1.49839 
        5.04227         13.5482          1.4871 
          5.058         13.4343         1.47591 
        5.07371         13.3304         1.46487 
        5.08942         13.2277         1.45394 
        5.10513         13.1297         1.44312 
        5.12084         12.9953         1.43241 
        5.13656         12.9479         1.42181 
        5.15225         12.8318         1.41134 
        5.16796         12.7274         1.40095 
        5.18369         12.6653         1.39066 
         5.1994         12.5255          1.3805 
        5.21509         12.4497         1.37045 
        5.23079          12.378         1.36049 
        5.24649          12.262         1.35063 
        5.26217         12.1577         1.34088 
        5.27788         12.0964         1.33122 
        5.29359         12.0133         1.32165 
        5.30933         11.9131         1.31216 
        5.32504         11.8261         1.30278 
        5.34073         11.7168          1.2935 
        5.35646         11.6377          1.2843 
        5.37218         11.5505         1.27519 
        5.38789         11.4738         1.26618 
        5.40357         11.4014         1.25726 
        5.41929         11.2954         1.24842 
        5.43502         11.2193         1.23966 
         5.4507          11.142         1.23101 
        5.46639         11.0517         1.22244 
        5.48212         10.9772         1.21393 
        5.49786         10.9162         1.20549 
        5.51353          10.805         1.19718 
        5.52921         10.7387         1.18894 
        5.54495         10.6549         1.18075 
        5.56066         10.5873         1.17265 
        5.57637         10.5323         1.16462 
        5.59207         10.4299         1.15668 
        5.60778         10.3678         1.14882 
        5.62346         10.3068         1.14103 
        5.63916         10.2176         1.13331 
        5.65487         10.1482         1.12567 
         5.6706         10.0674         1.11808 
        5.68633         10.0057         1.11056 
        5.70203         9.92584         1.10313 
        5.71773         9.84463         1.09576 
        5.73344         9.77313         1.08847 
        5.74916         9.72959         1.08123 
        5.76486         9.64799         1.07406 
        5.78054         9.59988         1.06698 
        5.79626         9.52005         1.05994 
          5.812         9.46153         1.05296 
         5.8277         9.38961         1.04606 
        5.84339         9.31482         1.03922 
        5.85911          9.2678         1.03243 
        5.87484          9.1906         1.02571 
        5.89053         9.13997         1.01906 
        5.90623         9.06532         1.01246 
        5.92195         9.00932         1.00592 
        5.93767           8.941        0.999431 
        5.95336         8.89818        0.993015 
        5.96905         8.82735        0.986659 
        5.98476         8.74908        0.980349 
        6.00048          8.7027        0.974094 
        6.01617         8.63705        0.967902 
        6.03185         8.59351        0.961772 
        6.04756         8.53122        0.955681 
        6.06331         8.47939        0.949631 
        6.07903         8.42245        0.943646 
        6.09473          8.3634        0.937719 
        6.11044         8.30483        0.931839 
        6.12616         8.25086         0.92601 
        6.14186         8.17654        0.920237 
        6.15755         8.12472        0.914515 
        6.17326         8.06343        0.908837 
        6.18898          8.0362        0.903206 
        6.20467         7.98797        0.897633 
        6.22036         7.94853        0.892108 
         6.2361         7.87649        0.886615 
         6.2518         7.82138        0.881178 
        6.26748         7.76397        0.875799 
        6.28319         7.71292        0.870451 
        6.29893         7.67443        0.865143 
        6.31463         7.60539        0.859889 
        6.33033         7.56698        0.854681 
        6.34604         7.52036        0.849513 
        6.36177          7.4735        0.844383 
        6.37747         7.42791        0.839306 
