# k  (h/Mpc)    Pcb(k)  (Mpc/h)^3    Pcb_linear(k) (Mpc/h)^3   ShotnoiseSubtracted = true
      0.0200456          3279.4         3327.14 
      0.0350414         2763.57         2727.85 
      0.0492313         2141.19         2147.66 
      0.0637834         1815.22         1855.44 
      0.0800726         1476.91          1515.4 
       0.096163         1168.02         1151.66 
       0.111083          981.41         956.323 
       0.126058         844.363         858.236 
       0.142273         721.285         730.284 
       0.158546         599.994          593.09 
        0.17375         530.643         515.438 
       0.188953         483.081         470.175 
       0.204907         412.901         415.559 
       0.220756         370.103         357.149 
        0.23588         330.598          317.93 
         0.2514         301.346         291.622 
       0.267535         283.664         263.673 
       0.283568         250.295         234.538 
       0.299022         233.892         212.391 
       0.314451         225.545         195.975 
       0.330372         199.808         180.101 
       0.346141         184.975         164.288 
       0.361624         173.442         150.912 
       0.377134         159.191         140.064 
       0.392932         156.019         130.088 
       0.408854         145.118         120.396 
       0.424564           139.3         111.758 
       0.440253         127.342         104.348 
       0.455999         118.574         97.6623 
       0.471626         113.437         91.4151 
        0.48727         110.996         85.6627 
       0.502856         102.973         80.5294 
       0.518488         98.9224         75.8583 
       0.534347         93.8331          71.456 
       0.550082         90.8142         67.4014 
       0.565732         88.3115         63.7103 
       0.581496         82.7269         60.2971 
       0.597222         79.3725         57.1366 
       0.612804         77.2327         54.2199 
       0.628434         75.5337         51.5034 
       0.644267         71.7326         48.9545 
       0.660051         68.9009         46.5899 
       0.675724          66.731         44.3975 
       0.691403         65.8427         42.3467 
       0.707174         63.8807         40.4159 
       0.722871         61.7799         38.6152 
        0.73838         59.2059         36.9453 
       0.754018         56.6009          35.363 
       0.769845         55.7656         33.8576 
        0.78569         53.8049         32.4398 
       0.801365         52.6194         31.1186 
       0.817031         50.7775         29.8733 
       0.832809         50.0156         28.6895 
       0.848511         48.4576         27.5765 
       0.864097         47.4484         26.5313 
       0.879701         46.6785         25.5404 
       0.895507         45.1362         24.5893 
       0.911279          43.833         23.6896 
        0.92691         43.0319         22.8433 
       0.942635         42.3328         22.0344 
       0.958396         41.4427         21.2637 
       0.974128         40.3656          20.532 
       0.989692         39.1916         19.8427 
        1.00528          38.822         19.1846 
        1.02113         37.8625         18.5465 
        1.03692         37.1916         17.9404 
        1.05264         36.4901         17.3646 
        1.06832         35.8849         16.8155 
        1.08405         34.9077         16.2891 
        1.09979         34.5415         15.7854 
        1.11537         33.6367         15.3083 
        1.13105         33.1253         14.8485 
        1.14679         32.3535         14.4061 
        1.16256         31.9116         13.9812 
        1.17828         31.4714         13.5752 
        1.19395         31.0413         13.1869 
         1.2097         30.1962         12.8121 
        1.22537         29.8368          12.454 
          1.241         29.4038         12.1109 
        1.25666         29.0659         11.7801 
        1.27241         28.4928         11.4603 
        1.28819         27.5374          11.152 
        1.30392         27.9025         10.8562 
        1.31957         27.1825         10.5726 
        1.33529         26.6609         10.2983 
        1.35108          26.501         10.0328 
        1.36674         26.0065         9.77868 
         1.3824         25.5956         9.53378 
        1.39811         25.1126          9.2966 
        1.41389         24.8128         9.06672 
        1.42964         24.5606         8.84513 
        1.44531         24.1757         8.63216 
        1.46101         23.8266         8.42587 
        1.47667         23.6027         8.22705 
        1.49229         23.1603         8.03528 
        1.50793         22.8966         7.84951 
        1.52367         22.6678         7.66852 
        1.53953         22.2495         7.49211 
        1.55526         21.9914         7.32276 
        1.57092         21.9122         7.15942 
        1.58662         21.6488         7.00076 
        1.60235         21.2259         6.84669 
        1.61809         21.0787         6.69724 
        1.63369         20.7367         6.55366 
        1.64941         20.5778         6.41333 
        1.66519         20.1447         6.27667 
        1.68085         19.9023         6.14503 
        1.69652         19.9217         6.01718 
        1.71228          19.498         5.89231 
        1.72806          19.228         5.77093 
        1.74368         19.0815         5.65425 
        1.75933          18.963         5.54061 
        1.77505         18.6537         5.42961 
        1.79081         18.4788         5.32151 
         1.8065         18.3895         5.21686 
        1.82218         18.1496         5.11515 
        1.83797         18.0081         5.01551 
        1.85367         17.8565         4.91911 
        1.86928         17.6417         4.82586 
        1.88497         17.4254         4.73456 
        1.90073          17.197         4.64533 
        1.91647         16.8553          4.5585 
        1.93218         16.8235         4.47411 
        1.94787         16.5368         4.39202 
        1.96363         16.5075         4.31169 
        1.97935         16.3977         4.23357 
        1.99499         16.1783         4.15786 
        2.01064         16.0501         4.08391 
         2.0264         15.7506         4.01133 
        2.04216         15.8285         3.94057 
        2.05781         15.6262         3.87199 
        2.07353         15.4312         3.80483 
        2.08928         15.1576         3.73913 
        2.10499         15.0281         3.67519 
        2.12065          15.003         3.61295 
        2.13633         14.8313         3.55213 
        2.15211         14.6658         3.49233 
        2.16785         14.4906         3.43409 
        2.18349         14.4094         3.37757 
        2.19916         14.1917         3.32222 
        2.21489         14.1097         3.26795 
        2.23063         14.0417         3.21487 
         2.2463         13.8209         3.16323 
        2.26194         13.7371         3.11286 
        2.27765         13.5654         3.06335 
        2.29341         13.3784          3.0148 
        2.30914         13.3798         2.96743 
        2.32486         13.2112         2.92111 
        2.34061         13.1285         2.87571 
        2.35635         12.9646         2.83134 
        2.37203         12.8645         2.78807 
        2.38768          12.729          2.7458 
        2.40339         12.6643         2.70427 
        2.41914         12.5293         2.66352 
        2.43483           12.44         2.62376 
         2.4505         12.3765         2.58489 
        2.46622         12.1909         2.54669 
        2.48195         12.1572         2.50927 
        2.49759          11.963         2.47281 
        2.51328         11.9207         2.43699 
        2.52906         11.8054         2.40166 
        2.54479         11.6632         2.36717 
        2.56049         11.6398         2.33344 
        2.57618         11.5091         2.30041 
        2.59189         11.4741         2.26797 
        2.60758         11.3454         2.23622 
        2.62325         11.2476         2.20512 
        2.63898         11.1878         2.17451 
        2.65468         11.0562         2.14456 
        2.67044         10.9499         2.11505 
        2.68618         10.8482         2.08617 
        2.70184         10.8329         2.05796 
        2.71755         10.6859          2.0302 
        2.73329         10.5907         2.00292 
        2.74897         10.5369         1.97624 
        2.76462         10.4739         1.95011 
        2.78034         10.3731         1.92435 
        2.79607          10.278         1.89903 
        2.81179         10.2056         1.87421 
        2.82749         10.1533         1.84986 
        2.84321          10.055         1.82592 
        2.85893         10.0031         1.80242 
        2.87462         9.87876         1.77938 
        2.89033         9.81905         1.75673 
        2.90605         9.75486         1.73446 
        2.92176          9.6547         1.71259 
        2.93747         9.58106         1.69111 
        2.95318         9.50303            1.67 
        2.96891         9.42212         1.64925 
        2.98456         9.35068         1.62895 
        3.00023           9.321         1.60896 
        3.01596         9.17943         1.58926 
        3.03164         9.12788         1.56994 
        3.04738         9.07834         1.55089 
         3.0631         9.01423         1.53217 
        3.07883         8.95645         1.51376 
        3.09456         8.83375         1.49566 
        3.11026         8.81072         1.47789 
        3.12596         8.73925         1.46041 
        3.14163         8.68716         1.44326 
        3.15734         8.62369         1.42635 
        3.17308         8.54077         1.40967 
        3.18879          8.5032         1.39331 
        3.20447         8.41557         1.37723 
         3.2202         8.36541         1.36136 
         3.2359         8.30027         1.34578 
        3.25157         8.24435         1.33048 
        3.26729         8.18784         1.31537 
        3.28304         8.12941         1.30047 
        3.29877         8.06964         1.28582 
        3.31446         8.02732         1.27144 
        3.33014         7.94127         1.25729 
        3.34585         7.89073         1.24334 
        3.36158         7.83294         1.22958 
        3.37727         7.78116         1.21607 
        3.39294         7.73326         1.20278 
        3.40867         7.67487         1.18965 
        3.42439         7.57994         1.17672 
        3.44008         7.52409         1.16401 
        3.45578         7.48977         1.15149 
        3.47153         7.44728         1.13912 
        3.48724         7.38699         1.12696 
        3.50292         7.34672           1.115 
        3.51859         7.28602         1.10323 
        3.53431         7.23841         1.09159 
        3.55007         7.19977          1.0801 
        3.56577         7.11246         1.06881 
        3.58146         7.07349          1.0577 
        3.59719         7.03722         1.04672 
        3.61292         6.98936          1.0359 
        3.62859         6.93204         1.02528 
        3.64429         6.88659         1.01478 
        3.66003         6.83629         1.00441 
        3.67578         6.80581        0.994184 
        3.69146         6.74899        0.984142 
        3.70712         6.69914        0.974258 
        3.72284         6.65377        0.964476 
        3.73853         6.59769        0.954846 
        3.75422         6.55554        0.945346 
        3.76993         6.52104        0.935969 
        3.78564         6.47559        0.926725 
        3.80137         6.41247        0.917592 
        3.81707         6.37012        0.908602 
        3.83279         6.34541        0.899728 
        3.84853         6.29423        0.890959 
        3.86424         6.25202        0.882326 
        3.87992         6.21622        0.873821 
        3.89561         6.15519        0.865429 
        3.91134         6.11163        0.857132 
        3.92704         6.07073        0.848955 
        3.94273         6.02885        0.840893 
        3.95845         5.98906        0.832923 
        3.97418         5.94504        0.825056 
        3.98988         5.92079        0.817303 
        4.00554         5.87703        0.809672 
        4.02125         5.83724        0.802117 
        4.03698         5.79399        0.794648 
        4.05268         5.75636        0.787293 
        4.06839          5.7087        0.780026 
         4.0841         5.66308        0.772855 
        4.09983         5.63348        0.765765 
        4.11555         5.58989        0.758767 
        4.13124         5.55793        0.751878 
        4.14693         5.52253        0.745069 
        4.16266         5.47546         0.73833 
        4.17839         5.45154        0.731679 
        4.19408         5.40721        0.725127 
        4.20977         5.35411        0.718653 
        4.22551           5.326        0.712243 
        4.24123          5.2694        0.705919 
        4.25691         5.25484         0.69969 
        4.27259         5.22398        0.693535 
        4.28831         5.18193        0.687443 
        4.30404         5.14308        0.681419 
        4.31974         5.10996        0.675482 
        4.33543         5.07175        0.669619 
        4.35116         5.04561        0.663813 
        4.36688         5.02491        0.658078 
        4.38255         5.00018        0.652434 
        4.39825         4.94416        0.646845 
        4.41398         4.93449         0.64131 
         4.4297         4.89588        0.635847 
        4.44541         4.85712         0.63045 
        4.46111         4.80869         0.62512 
        4.47683         4.77894        0.619848 
        4.49251         4.75471        0.614649 
        4.50819         4.73013        0.609512 
         4.5239         4.67713        0.604426 
        4.53962         4.66498        0.599393 
        4.55535         4.63187        0.594416 
        4.57106         4.59882        0.589503 
        4.58678          4.5705        0.584645 
         4.6025         4.54381        0.579842 
        4.61821         4.52138        0.575094 
        4.63391         4.48426        0.570406 
         4.6496          4.4583        0.565772 
        4.66532         4.42158        0.561184 
        4.68103         4.39668         0.55665 
        4.69673         4.36427         0.55217 
        4.71241         4.34275        0.547744 
        4.72811         4.31791        0.543361 
        4.74384         4.29203         0.53902 
        4.75955         4.26527        0.534734 
        4.77525         4.22628        0.530498 
        4.79096         4.20572        0.526303 
        4.80669         4.18242        0.522152 
         4.8224         4.15678        0.518051 
        4.83809         4.12622        0.513999 
        4.85379         4.09548        0.509988 
         4.8695         4.07708        0.506017 
        4.88521         4.05763        0.502091 
        4.90093         4.03018        0.498206 
        4.91663         4.00133        0.494367 
        4.93234          3.9759        0.490564 
        4.94807         3.95196        0.486799 
        4.96377         3.92682        0.483082 
        4.97943          3.9073        0.479411 
        4.99514          3.8736         0.47577 
        5.01086         3.85242        0.472164 
        5.02654          3.8252        0.468605 
        5.04227          3.8081        0.465073 
          5.058          3.7861        0.461576 
        5.07371         3.76513        0.458123 
        5.08942         3.72939        0.454704 
        5.10513         3.72173        0.451321 
        5.12084         3.68971        0.447971 
        5.13656         3.66709        0.444656 
        5.15225         3.64629         0.44138 
        5.16796         3.62347        0.438133 
        5.18369          3.6022        0.434915 
         5.1994         3.57687        0.431737 
        5.21509         3.55492        0.428593 
        5.23079         3.53781        0.425477 
        5.24649         3.51735        0.422395 
        5.26217         3.49736        0.419346 
        5.27788         3.47607        0.416324 
        5.29359         3.45728        0.413331 
        5.30933         3.43389        0.410363 
        5.32504         3.42246         0.40743 
        5.34073         3.38701        0.404529 
        5.35646         3.37638        0.401651 
        5.37218         3.34945          0.3988 
        5.38789          3.3378        0.395983 
        5.40357         3.31834        0.393196 
        5.41929         3.30166         0.39043 
        5.43502         3.27362         0.38769 
         5.4507         3.25582        0.384984 
        5.46639         3.23692        0.382304 
        5.48212         3.22231        0.379643 
        5.49786         3.20075        0.377004 
        5.51353         3.17733        0.374404 
        5.52921           3.165        0.371827 
        5.54495         3.14722        0.369266 
        5.56066          3.1234        0.366732 
        5.57637         3.11243        0.364223 
        5.59207         3.09404         0.36174 
        5.60778          3.0716        0.359279 
        5.62346         3.05175        0.356845 
        5.63916         3.04225        0.354432 
        5.65487         3.01751         0.35204 
         5.6706         3.00869        0.349667 
        5.68633          2.9936        0.347316 
        5.70203         2.96886        0.344991 
        5.71773          2.9572        0.342688 
        5.73344         2.93317        0.340406 
        5.74916         2.91716        0.338142 
        5.76486         2.90693        0.335902 
        5.78054          2.8902        0.333686 
        5.79626         2.87479        0.331485 
          5.812         2.85171        0.329301 
         5.8277          2.8401        0.327143 
        5.84339         2.82466        0.325005 
        5.85911          2.8081        0.322882 
        5.87484         2.79105        0.320779 
        5.89053          2.7802        0.318699 
        5.90623         2.76005        0.316637 
        5.92195         2.74671        0.314589 
        5.93767         2.72969        0.312561 
        5.95336          2.7174        0.310555 
        5.96905          2.7001        0.308567 
        5.98476         2.68367        0.306594 
        6.00048         2.67746        0.304637 
        6.01617         2.66506        0.302701 
        6.03185         2.64105        0.300784 
        6.04756         2.63196        0.298879 
        6.06331         2.61838        0.296987 
        6.07903         2.60609        0.295115 
        6.09473         2.58718        0.293262 
        6.11044         2.57756        0.291422 
        6.12616         2.56266          0.2896 
        6.14186         2.54931        0.287794 
        6.15755          2.5382        0.286005 
        6.17326         2.51956        0.284229 
        6.18898         2.50608        0.282468 
        6.20467         2.49404        0.280725 
        6.22036         2.48002        0.278997 
         6.2361         2.46749        0.277279 
         6.2518         2.45631        0.275579 
        6.26748         2.44555        0.273897 
        6.28319         2.43254        0.272224 
        6.29893         2.41947        0.270564 
        6.31463         2.40473        0.268921 
        6.33033         2.39202        0.267292 
        6.34604         2.37691        0.265676 
        6.36177          2.3647        0.264072 
        6.37747         2.35701        0.262484 
