# k  (h/Mpc)    Pcb(k)  (Mpc/h)^3    Pcb_linear(k) (Mpc/h)^3   ShotnoiseSubtracted = true
      0.0200456         2883.09         2934.04 
      0.0350414         2367.01         2405.56 
      0.0492313         1889.26         1893.92 
      0.0637834         1651.79         1636.22 
      0.0800726         1345.95         1336.35 
       0.096163         1001.26         1015.59 
       0.111083         822.884         843.335 
       0.126058          757.79         756.836 
       0.142273         651.716         644.002 
       0.158546         536.681         523.017 
        0.17375         452.148          454.54 
       0.188953         425.332         414.625 
       0.204907         394.682         366.461 
       0.220756          333.86         314.952 
        0.23588         296.732         280.367 
         0.2514         266.604         257.167 
       0.267535         248.466          232.52 
       0.283568         225.401         206.827 
       0.299022         207.647         187.297 
       0.314451         188.854          172.82 
       0.330372         176.267         158.822 
       0.346141         160.648         144.878 
       0.361624         151.213         133.082 
       0.377134         143.593         123.516 
       0.392932         129.051         114.718 
       0.408854         124.822         106.172 
       0.424564         119.375         98.5542 
       0.440253         110.754         92.0192 
       0.455999         105.336         86.1236 
       0.471626         98.0808         80.6145 
        0.48727         95.1362         75.5417 
       0.502856         90.0285         71.0149 
       0.518488         86.7467         66.8957 
       0.534347          83.486         63.0136 
       0.550082         77.2675          59.438 
       0.565732         73.1909          56.183 
       0.581496         71.3458          53.173 
       0.597222         69.2729         50.3859 
       0.612804         65.2696         47.8139 
       0.628434         63.5026         45.4183 
       0.644267         62.0759         43.1705 
       0.660051         59.4538         41.0853 
       0.675724         56.8281         39.1519 
       0.691403         55.1402         37.3434 
       0.707174         53.8437         35.6408 
       0.722871         51.7055         34.0529 
        0.73838         50.3889         32.5802 
       0.754018         48.3356         31.1849 
       0.769845         47.1915         29.8573 
        0.78569          45.857         28.6071 
       0.801365         44.3831          27.442 
       0.817031         43.4646         26.3438 
       0.832809         42.7249         25.2999 
       0.848511          40.272         24.3183 
       0.864097         39.6548         23.3967 
       0.879701          39.051         22.5228 
       0.895507          38.267         21.6841 
       0.911279         37.1879         20.8907 
        0.92691         36.2329         20.1444 
       0.942635         35.0584         19.4311 
       0.958396         34.5326         18.7514 
       0.974128         33.5818         18.1062 
       0.989692         33.3188         17.4983 
        1.00528         32.5506         16.9179 
        1.02113         31.4031         16.3552 
        1.03692         30.8923         15.8207 
        1.05264         30.2101          15.313 
        1.06832         29.7708         14.8288 
        1.08405         29.0115         14.3646 
        1.09979         28.4705         13.9203 
        1.11537         27.9322         13.4997 
        1.13105         27.5573         13.0942 
        1.14679         27.1715          12.704 
        1.16256         26.3535         12.3294 
        1.17828         26.3093         11.9713 
        1.19395         25.4448         11.6289 
         1.2097         25.2435         11.2984 
        1.22537         24.6067         10.9826 
          1.241         24.3635           10.68 
        1.25666         23.7892         10.3883 
        1.27241          23.381         10.1062 
        1.28819         22.9807         9.83439 
        1.30392         22.8051         9.57352 
        1.31957         22.4836         9.32344 
        1.33529         22.1873         9.08153 
        1.35108         21.6346          8.8474 
        1.36674         21.4419         8.62334 
         1.3824         20.9802         8.40737 
        1.39811         20.7046         8.19822 
        1.41389         20.4985         7.99549 
        1.42964         20.3039         7.80009 
        1.44531         20.0467         7.61228 
        1.46101         19.5227         7.43036 
        1.47667         19.3104         7.25503 
        1.49229         19.1088         7.08592 
        1.50793         18.8166          6.9221 
        1.52367         18.5953         6.76249 
        1.53953         18.3403         6.60693 
        1.55526          18.078         6.45758 
        1.57092         17.9185         6.31354 
        1.58662          17.678         6.17363 
        1.60235         17.4099         6.03776 
        1.61809          17.224         5.90597 
        1.63369         16.9714         5.77935 
        1.64941         16.7691          5.6556 
        1.66519         16.6284         5.53509 
        1.68085         16.4081           5.419 
        1.69652          16.146         5.30626 
        1.71228         15.9702         5.19613 
        1.72806          15.927          5.0891 
        1.74368         15.6507          4.9862 
        1.75933         15.4581         4.88599 
        1.77505         15.2772         4.78811 
        1.79081         15.0305         4.69278 
         1.8065         14.9669         4.60049 
        1.82218          14.729          4.5108 
        1.83797         14.6642         4.42293 
        1.85367         14.4036         4.33792 
        1.86928         14.4055         4.25569 
        1.88497         14.1064         4.17518 
        1.90073          14.008         4.09648 
        1.91647          13.944         4.01992 
        1.93218         13.8017          3.9455 
        1.94787         13.5746         3.87311 
        1.96363         13.4875         3.80227 
        1.97935         13.3075         3.73338 
        1.99499         13.1112         3.66661 
        2.01064         12.9901          3.6014 
         2.0264         12.8646         3.53739 
        2.04216         12.7919           3.475 
        2.05781          12.609         3.41452 
        2.07353         12.5165         3.35529 
        2.08928          12.421         3.29736 
        2.10499         12.3513         3.24097 
        2.12065         12.1829         3.18608 
        2.13633         12.1101         3.13244 
        2.15211         11.9429         3.07971 
        2.16785         11.8284         3.02836 
        2.18349         11.7672         2.97852 
        2.19916          11.665         2.92971 
        2.21489         11.4914         2.88185 
        2.23063         11.4221         2.83504 
         2.2463         11.2735         2.78949 
        2.26194         11.1496         2.74508 
        2.27765          11.135         2.70142 
        2.29341         10.9766         2.65861 
        2.30914         10.9126         2.61683 
        2.32486         10.7811         2.57598 
        2.34061          10.709         2.53595 
        2.35635         10.6384         2.49682 
        2.37203         10.5158         2.45866 
        2.38768         10.4129         2.42139 
        2.40339         10.3363         2.38477 
        2.41914         10.1763         2.34883 
        2.43483         10.1652         2.31377 
         2.4505          10.072         2.27949 
        2.46622         9.98134          2.2458 
        2.48195         9.87869          2.2128 
        2.49759         9.83376         2.18065 
        2.51328         9.71978         2.14906 
        2.52906         9.68497         2.11791 
        2.54479         9.55972         2.08749 
        2.56049          9.4812         2.05775 
        2.57618         9.43387         2.02861 
        2.59189         9.32546         2.00001 
        2.60758         9.27313         1.97201 
        2.62325         9.17176         1.94459 
        2.63898           9.087          1.9176 
        2.65468         9.02667         1.89118 
        2.67044         8.94224         1.86516 
        2.68618         8.90974          1.8397 
        2.70184         8.80024         1.81481 
        2.71755         8.72347         1.79034 
        2.73329         8.68056         1.76628 
        2.74897         8.61124         1.74275 
        2.76462          8.5661          1.7197 
        2.78034           8.478         1.69699 
        2.79607         8.42091         1.67466 
        2.81179         8.35718         1.65277 
        2.82749         8.26811          1.6313 
        2.84321         8.24708         1.61019 
        2.85893         8.17886         1.58947 
        2.87462         8.09418         1.56915 
        2.89033         8.01722         1.54918 
        2.90605          7.9582         1.52953 
        2.92176         7.88411         1.51025 
        2.93747         7.85714         1.49131 
        2.95318         7.78952          1.4727 
        2.96891          7.7406         1.45439 
        2.98456         7.67945         1.43649 
        3.00023         7.60741         1.41887 
        3.01596         7.56584         1.40149 
        3.03164         7.51185         1.38445 
        3.04738         7.45483         1.36765 
         3.0631         7.40559         1.35114 
        3.07883         7.35427         1.33491 
        3.09456         7.28852         1.31895 
        3.11026         7.26019         1.30327 
        3.12596         7.18653         1.28786 
        3.14163         7.12506         1.27274 
        3.15734         7.06821         1.25782 
        3.17308         7.03994         1.24312 
        3.18879         6.97943         1.22869 
        3.20447         6.93919         1.21451 
         3.2202         6.87026         1.20052 
         3.2359         6.83271         1.18678 
        3.25157         6.77787         1.17328 
        3.26729         6.73602         1.15996 
        3.28304         6.68781         1.14682 
        3.29877         6.64177         1.13391 
        3.31446         6.57667         1.12122 
        3.33014         6.55047         1.10874 
        3.34585           6.513         1.09644 
        3.36158         6.47076          1.0843 
        3.37727          6.4352         1.07239 
        3.39294         6.38562         1.06068 
        3.40867         6.32146         1.04909 
        3.42439         6.27822         1.03769 
        3.44008         6.24269         1.02649 
        3.45578         6.21185         1.01544 
        3.47153         6.13741         1.00453 
        3.48724         6.13297        0.993807 
        3.50292         6.08281        0.983265 
        3.51859         6.01188        0.972883 
        3.53431         5.98224        0.962621 
        3.55007         5.96702        0.952483 
        3.56577         5.93032        0.942533 
        3.58146          5.8731        0.932732 
        3.59719         5.84377        0.923049 
        3.61292         5.80403        0.913509 
        3.62859         5.75466        0.904141 
        3.64429         5.72385        0.894889 
        3.66003         5.68193        0.885739 
        3.67578         5.63355        0.876722 
        3.69146         5.60748        0.867866 
        3.70712         5.56754        0.859151 
        3.72284         5.53502        0.850524 
        3.73853         5.50071        0.842032 
        3.75422         5.45993        0.833655 
        3.76993         5.41275        0.825385 
        3.78564         5.39377        0.817233 
        3.80137         5.35137        0.809179 
        3.81707         5.31316        0.801252 
        3.83279         5.28878        0.793426 
        3.84853         5.23757        0.785693 
        3.86424         5.21914         0.77808 
        3.87992         5.19136         0.77058 
        3.89561         5.12446        0.763179 
        3.91134         5.11925        0.755863 
        3.92704         5.07947        0.748651 
        3.94273         5.05353        0.741543 
        3.95845         5.03172        0.734514 
        3.97418          4.9744        0.727577 
        3.98988         4.95439        0.720739 
        4.00554         4.91121         0.71401 
        4.02125         4.88067        0.707348 
        4.03698         4.84058        0.700761 
        4.05268         4.81873        0.694275 
        4.06839         4.77738        0.687867 
         4.0841         4.75059        0.681543 
        4.09983         4.71003         0.67529 
        4.11555         4.68651         0.66912 
        4.13124         4.65665        0.663044 
        4.14693         4.62226         0.65704 
        4.16266         4.60022        0.651097 
        4.17839         4.56696        0.645232 
        4.19408         4.52963        0.639454 
        4.20977         4.50001        0.633744 
        4.22551         4.47375        0.628092 
        4.24123         4.44283        0.622515 
        4.25691          4.4127        0.617022 
        4.27259         4.38326        0.611595 
        4.28831         4.34987        0.606222 
        4.30404         4.32865         0.60091 
        4.31974         4.29416        0.595674 
        4.33543         4.28329        0.590504 
        4.35116         4.24599        0.585384 
        4.36688         4.22247        0.580327 
        4.38255         4.20216         0.57535 
        4.39825         4.17136         0.57042 
        4.41398         4.14715         0.56554 
         4.4297         4.12016        0.560722 
        4.44541         4.09365        0.555963 
        4.46111         4.06343        0.551262 
        4.47683         4.04691        0.546614 
        4.49251         4.01924        0.542029 
        4.50819         3.98152        0.537498 
         4.5239         3.97419        0.533014 
        4.53962          3.9377        0.528576 
        4.55535         3.91497        0.524186 
        4.57106         3.89373        0.519854 
        4.58678         3.87426         0.51557 
         4.6025         3.84109        0.511334 
        4.61821         3.82782        0.507147 
        4.63391         3.79704        0.503013 
         4.6496         3.77403        0.498927 
        4.66532         3.74047        0.494881 
        4.68103         3.72058        0.490882 
        4.69673         3.70675        0.486931 
        4.71241         3.68035        0.483029 
        4.72811         3.65562        0.479163 
        4.74384         3.64151        0.475336 
        4.75955         3.61338        0.471556 
        4.77525         3.60083         0.46782 
        4.79096         3.56845        0.464121 
        4.80669         3.55842         0.46046 
         4.8224         3.53648        0.456844 
        4.83809         3.51981         0.45327 
        4.85379         3.49202        0.449733 
         4.8695         3.46802        0.446232 
        4.88521         3.45221        0.442769 
        4.90093         3.42013        0.439344 
        4.91663         3.40985        0.435958 
        4.93234         3.38645        0.432604 
        4.94807         3.36666        0.429285 
        4.96377         3.34339        0.426006 
        4.97943         3.32688        0.422769 
        4.99514         3.30761        0.419558 
        5.01086         3.28679        0.416378 
        5.02654          3.2744         0.41324 
        5.04227         3.25111        0.410125 
          5.058         3.23289        0.407042 
        5.07371         3.21777        0.403996 
        5.08942         3.19208        0.400981 
        5.10513         3.18139        0.397998 
        5.12084         3.16362        0.395043 
        5.13656         3.13438         0.39212 
        5.15225          3.1208        0.389231 
        5.16796         3.09858        0.386368 
        5.18369         3.08296        0.383531 
         5.1994         3.06483        0.380727 
        5.21509         3.05575        0.377955 
        5.23079         3.03014        0.375208 
        5.24649          3.0201         0.37249 
        5.26217         2.99432        0.369801 
        5.27788         2.97592        0.367135 
        5.29359         2.96697        0.364496 
        5.30933         2.94748        0.361879 
        5.32504         2.92741        0.359292 
        5.34073         2.91131        0.356734 
        5.35646         2.89886        0.354196 
        5.37218         2.88705        0.351683 
        5.38789         2.86213        0.349198 
        5.40357         2.84801         0.34674 
        5.41929         2.83668        0.344301 
        5.43502         2.81711        0.341885 
         5.4507         2.80046        0.339499 
        5.46639         2.78296        0.337135 
        5.48212         2.77683        0.334788 
        5.49786         2.76137        0.332462 
        5.51353         2.74477        0.330169 
        5.52921         2.72426        0.327896 
        5.54495         2.71553        0.325637 
        5.56066         2.69875        0.323403 
        5.57637         2.68458        0.321191 
        5.59207          2.6609        0.319001 
        5.60778         2.65524        0.316831 
        5.62346         2.63993        0.314684 
        5.63916          2.6291        0.312556 
        5.65487         2.61492        0.310447 
         5.6706         2.59753        0.308354 
        5.68633         2.58302        0.306281 
        5.70203         2.57141        0.304231 
        5.71773         2.55607          0.3022 
        5.73344         2.54625        0.300187 
        5.74916         2.52981        0.298191 
        5.76486         2.51349        0.296216 
        5.78054          2.5028        0.294262 
        5.79626          2.4895         0.29232 
          5.812         2.48126        0.290394 
         5.8277         2.46281        0.288491 
        5.84339         2.45552        0.286606 
        5.85911         2.43841        0.284734 
        5.87484         2.42656        0.282879 
        5.89053         2.41183        0.281045 
        5.90623         2.40089        0.279226 
        5.92195         2.38567        0.277421 
        5.93767         2.37749        0.275633 
        5.95336         2.36443        0.273863 
        5.96905         2.34721         0.27211 
        5.98476         2.34674         0.27037 
        6.00048         2.32686        0.268645 
        6.01617         2.31355        0.266937 
        6.03185         2.30719        0.265246 
        6.04756         2.29062        0.263567 
        6.06331         2.27869        0.261898 
        6.07903         2.26575        0.260248 
        6.09473          2.2571        0.258613 
        6.11044         2.24665        0.256991 
        6.12616         2.23549        0.255384 
        6.14186         2.21859        0.253792 
        6.15755         2.21531        0.252213 
        6.17326         2.20099        0.250648 
        6.18898         2.19706        0.249095 
        6.20467         2.18141        0.247558 
        6.22036         2.16971        0.246034 
         6.2361         2.16375        0.244519 
         6.2518          2.1461         0.24302 
        6.26748         2.13966        0.241536 
        6.28319         2.12896        0.240061 
        6.29893         2.11884        0.238597 
        6.31463         2.10623        0.237148 
        6.33033         2.09935        0.235712 
        6.34604         2.08477        0.234287 
        6.36177         2.07444        0.232872 
        6.37747         2.06674        0.231471 
