# k  (h/Mpc)    Pcb(k)  (Mpc/h)^3    Pcb_linear(k) (Mpc/h)^3   ShotnoiseSubtracted = true
      0.0200456         53.4709         54.2708 
      0.0350414         44.4369         44.4956 
      0.0492313         35.1329         35.0318 
      0.0637834         30.3068         30.2651 
      0.0800726         24.7271         24.7185 
       0.096163         18.8357         18.7854 
       0.111083         15.6073         15.5991 
       0.126058         13.9877         13.9992 
       0.142273         11.9199         11.9121 
       0.158546         9.71328         9.67422 
        0.17375          8.4009          8.4076 
       0.188953          7.6593          7.6693 
       0.204907          6.8187         6.77842 
       0.220756         5.84652         5.82565 
        0.23588         5.20076         5.18593 
         0.2514         4.75177         4.75682 
       0.267535         4.29732         4.30091 
       0.283568         3.83212         3.82567 
       0.299022         3.47281         3.46443 
       0.314451           3.183         3.19665 
       0.330372         2.93349         2.93773 
       0.346141         2.67786          2.6798 
       0.361624         2.46482         2.46162 
       0.377134         2.29107         2.28467 
       0.392932         2.10389         2.12194 
       0.408854         1.96733         1.96385 
       0.424564         1.81851         1.82295 
       0.440253             1.7         1.70208 
       0.455999         1.59689         1.59303 
       0.471626         1.49676         1.49112 
        0.48727         1.39567         1.39729 
       0.502856         1.31036         1.31356 
       0.518488          1.2433         1.23737 
       0.534347         1.17475         1.16556 
       0.550082         1.09828         1.09942 
       0.565732         1.03102         1.03921 
       0.581496        0.984891         0.98354 
       0.597222        0.934373        0.931987 
       0.612804        0.884157        0.884411 
       0.628434        0.844225        0.840101 
       0.644267        0.799131        0.798524 
       0.660051        0.759216        0.759953 
       0.675724        0.725578        0.724192 
       0.691403        0.693683         0.69074 
       0.707174        0.660295        0.659247 
       0.722871        0.628086        0.629874 
        0.73838        0.605053        0.602636 
       0.754018        0.580778        0.576826 
       0.769845        0.555556         0.55227 
        0.78569        0.531258        0.529144 
       0.801365        0.508643        0.507593 
       0.817031        0.488959         0.48728 
       0.832809        0.469696        0.467971 
       0.848511         0.45056        0.449815 
       0.864097        0.432011        0.432767 
       0.879701         0.41558        0.416604 
       0.895507        0.403069        0.401091 
       0.911279        0.387638        0.386415 
        0.92691        0.372863         0.37261 
       0.942635        0.360441        0.359416 
       0.958396        0.347012        0.346845 
       0.974128        0.335176         0.33491 
       0.989692        0.324318        0.323665 
        1.00528        0.314393         0.31293 
        1.02113        0.301819        0.302522 
        1.03692        0.293019        0.292635 
        1.05264        0.283732        0.283244 
        1.06832        0.274997        0.274287 
        1.08405        0.265329        0.265701 
        1.09979        0.257069        0.257484 
        1.11537        0.251058        0.249703 
        1.13105        0.243078        0.242202 
        1.14679        0.236615        0.234986 
        1.16256        0.227749        0.228056 
        1.17828        0.221344        0.221432 
        1.19395        0.214618        0.215099 
         1.2097        0.208595        0.208986 
        1.22537        0.203834        0.203144 
          1.241        0.197758        0.197547 
        1.25666        0.192857        0.192151 
        1.27241         0.18721        0.186935 
        1.28819        0.182126        0.181906 
        1.30392        0.177192        0.177081 
        1.31957        0.172711        0.172455 
        1.33529        0.167782        0.167981 
        1.35108        0.163694         0.16365 
        1.36674         0.15854        0.159506 
         1.3824        0.156163        0.155511 
        1.39811        0.151519        0.151642 
        1.41389        0.147783        0.147892 
        1.42964         0.14485        0.144278 
        1.44531        0.140456        0.140804 
        1.46101        0.137499        0.137439 
        1.47667        0.133628        0.134196 
        1.49229         0.13086        0.131068 
        1.50793        0.127459        0.128038 
        1.52367        0.124734        0.125086 
        1.53953        0.122353        0.122208 
        1.55526        0.119539        0.119446 
        1.57092        0.116109        0.116781 
        1.58662         0.11396        0.114193 
        1.60235        0.111822         0.11168 
        1.61809        0.108638        0.109243 
        1.63369        0.106618          0.1069 
        1.64941        0.104601        0.104611 
        1.66519         0.10207        0.102382 
        1.68085       0.0996761        0.100235 
        1.69652       0.0975333       0.0981496 
        1.71228       0.0960206       0.0961127 
        1.72806       0.0933849       0.0941329 
        1.74368       0.0919356       0.0922297 
        1.75933       0.0900271        0.090376 
        1.77505       0.0881012       0.0885655 
        1.79081       0.0865587       0.0868021 
         1.8065        0.084399       0.0850951 
        1.82218        0.083023       0.0834362 
        1.83797       0.0813286       0.0818108 
        1.85367       0.0797778       0.0802384 
        1.86928       0.0783785       0.0787174 
        1.88497        0.076994       0.0772282 
        1.90073       0.0754029       0.0757725 
        1.91647       0.0738052       0.0743563 
        1.93218       0.0723789       0.0729798 
        1.94787       0.0709679       0.0716407 
        1.96363       0.0699115       0.0703305 
        1.97935       0.0684312       0.0690562 
        1.99499       0.0672941       0.0678212 
        2.01064       0.0662765        0.066615 
         2.0264       0.0650859        0.065431 
        2.04216        0.063743       0.0642769 
        2.05781       0.0627099       0.0631583 
        2.07353       0.0613091       0.0620627 
        2.08928       0.0604017       0.0609911 
        2.10499       0.0591125        0.059948 
        2.12065       0.0583788       0.0589329 
        2.13633       0.0572332       0.0579407 
        2.15211       0.0565579       0.0569653 
        2.16785       0.0555591       0.0560154 
        2.18349       0.0542975       0.0550935 
        2.19916       0.0538086       0.0541907 
        2.21489       0.0530117       0.0533054 
        2.23063       0.0519299       0.0524396 
         2.2463       0.0508586       0.0515972 
        2.26194       0.0500824       0.0507757 
        2.27765       0.0493136       0.0499681 
        2.29341       0.0487282       0.0491762 
        2.30914        0.047794       0.0484034 
        2.32486       0.0470052       0.0476478 
        2.34061        0.046322       0.0469074 
        2.35635        0.045541       0.0461835 
        2.37203       0.0448761       0.0454777 
        2.38768       0.0441107       0.0447883 
        2.40339       0.0434183       0.0441109 
        2.41914        0.042916       0.0434462 
        2.43483       0.0420145       0.0427977 
         2.4505       0.0414658       0.0421636 
        2.46622         0.04092       0.0415405 
        2.48195       0.0401725       0.0409301 
        2.49759       0.0396538       0.0403353 
        2.51328       0.0392407       0.0397511 
        2.52906       0.0385361       0.0391748 
        2.54479       0.0380104       0.0386123 
        2.56049       0.0374809       0.0380621 
        2.57618       0.0369004       0.0375232 
        2.59189       0.0363853       0.0369941 
        2.60758       0.0359096       0.0364762 
        2.62325       0.0353453       0.0359689 
        2.63898       0.0348289       0.0354697 
        2.65468       0.0343672       0.0349811 
        2.67044       0.0339711       0.0344998 
        2.68618        0.033442       0.0340288 
        2.70184       0.0329472       0.0335685 
        2.71755       0.0324213       0.0331158 
        2.73329       0.0320063       0.0326708 
        2.74897       0.0317208       0.0322355 
        2.76462       0.0311677       0.0318093 
        2.78034        0.030751       0.0313891 
        2.79607       0.0304252       0.0309762 
        2.81179       0.0299633       0.0305712 
        2.82749       0.0295596       0.0301741 
        2.84321       0.0291603       0.0297837 
        2.85893       0.0287626       0.0294004 
        2.87462       0.0284588       0.0290245 
        2.89033       0.0281499        0.028655 
        2.90605       0.0276657       0.0282917 
        2.92176       0.0274348        0.027935 
        2.93747       0.0270223       0.0275847 
        2.95318       0.0266289       0.0272404 
        2.96891       0.0263717       0.0269019 
        2.98456       0.0261114       0.0265707 
        3.00023       0.0256892       0.0262447 
        3.01596       0.0252989       0.0259232 
        3.03164       0.0251622       0.0256081 
        3.04738         0.02478       0.0252974 
         3.0631        0.024379        0.024992 
        3.07883       0.0240957       0.0246918 
        3.09456       0.0239387       0.0243965 
        3.11026       0.0235857       0.0241066 
        3.12596       0.0233525       0.0238215 
        3.14163       0.0230205       0.0235418 
        3.15734       0.0227757       0.0232659 
        3.17308       0.0224734       0.0229939 
        3.18879        0.022264        0.022727 
        3.20447       0.0220222       0.0224648 
         3.2202       0.0217496        0.022206 
         3.2359        0.021506       0.0219517 
        3.25157       0.0212329       0.0217021 
        3.26729       0.0210746       0.0214557 
        3.28304       0.0207647       0.0212127 
        3.29877       0.0205789       0.0209738 
        3.31446       0.0203384       0.0207392 
        3.33014       0.0200526       0.0205084 
        3.34585        0.019829       0.0202808 
        3.36158       0.0196458       0.0200563 
        3.37727       0.0194528        0.019836 
        3.39294       0.0192589       0.0196193 
        3.40867       0.0190917       0.0194051 
        3.42439         0.01889       0.0191942 
        3.44008       0.0186725       0.0189869 
        3.45578       0.0184545       0.0187826 
        3.47153       0.0182683       0.0185808 
        3.48724       0.0181352       0.0183824 
        3.50292       0.0178268       0.0181874 
        3.51859       0.0176684       0.0179954 
        3.53431       0.0175697       0.0178056 
        3.55007       0.0174351        0.017618 
        3.56577       0.0172585        0.017434 
        3.58146       0.0169722       0.0172527 
        3.59719       0.0168416       0.0170736 
        3.61292       0.0166475       0.0168971 
        3.62859       0.0165287       0.0167239 
        3.64429       0.0163637       0.0165527 
        3.66003        0.016225       0.0163835 
        3.67578       0.0160768       0.0162167 
        3.69146       0.0159191       0.0160529 
        3.70712       0.0157977       0.0158917 
        3.72284        0.015622       0.0157321 
        3.73853       0.0154726        0.015575 
        3.75422       0.0153804       0.0154201 
        3.76993        0.015177       0.0152671 
        3.78564       0.0151171       0.0151163 
        3.80137       0.0149545       0.0149674 
        3.81707       0.0147775       0.0148207 
        3.83279       0.0146716        0.014676 
        3.84853       0.0145512       0.0145329 
        3.86424       0.0143965       0.0143921 
        3.87992       0.0142708       0.0142534 
        3.89561       0.0141902       0.0141165 
        3.91134       0.0140732       0.0139812 
        3.92704       0.0138915       0.0138478 
        3.94273       0.0138446       0.0137163 
        3.95845       0.0136798       0.0135863 
        3.97418       0.0135502        0.013458 
        3.98988       0.0134934       0.0133315 
        4.00554       0.0133039        0.013207 
        4.02125       0.0131624       0.0130838 
        4.03698       0.0130403        0.012962 
        4.05268         0.01289        0.012842 
        4.06839       0.0127362       0.0127234 
         4.0841       0.0125913       0.0126065 
        4.09983       0.0124375       0.0124908 
        4.11555       0.0123107       0.0123767 
        4.13124       0.0121681       0.0122643 
        4.14693       0.0120562       0.0121532 
        4.16266       0.0118793       0.0120433 
        4.17839       0.0117912       0.0119348 
        4.19408       0.0116593        0.011828 
        4.20977        0.011566       0.0117223 
        4.22551       0.0114554       0.0116178 
        4.24123       0.0113402       0.0115146 
        4.25691       0.0112287        0.011413 
        4.27259       0.0111209       0.0113126 
        4.28831       0.0110602       0.0112133 
        4.30404       0.0109402        0.011115 
        4.31974       0.0108323       0.0110182 
        4.33543        0.010738       0.0109225 
        4.35116       0.0106549       0.0108278 
        4.36688       0.0105846       0.0107343 
        4.38255        0.010516       0.0106422 
        4.39825       0.0104861        0.010551 
        4.41398       0.0104235       0.0104608 
         4.4297       0.0103594       0.0103717 
        4.44541       0.0102893       0.0102836 
        4.46111       0.0102029       0.0101967 
        4.47683       0.0102036       0.0101107 
        4.49251       0.0101109       0.0100259 
        4.50819       0.0101008      0.00994209 
         4.5239        0.010069      0.00985914 
        4.53962       0.0100255      0.00977704 
        4.55535      0.00999955      0.00969586 
        4.57106       0.0100002      0.00961572 
        4.58678       0.0099504      0.00953648 
         4.6025      0.00996073      0.00945813 
        4.61821      0.00995482      0.00938068 
        4.63391      0.00992976      0.00930421 
         4.6496      0.00994402      0.00922863 
        4.66532      0.00990587      0.00915379 
        4.68103      0.00993109      0.00907983 
        4.69673      0.00991004      0.00900675 
        4.71241      0.00994736      0.00893457 
        4.72811      0.00995288      0.00886307 
        4.74384      0.00996292      0.00879227 
        4.75955       0.0099894      0.00872236 
        4.77525       0.0100273      0.00865325 
        4.79096       0.0100702      0.00858483 
        4.80669       0.0100657      0.00851711 
         4.8224       0.0101128      0.00845022 
        4.83809       0.0101153      0.00838412 
        4.85379       0.0102371       0.0083187 
         4.8695       0.0102737      0.00825393 
        4.88521       0.0102821      0.00818989 
        4.90093       0.0103554      0.00812652 
        4.91663       0.0104699       0.0080639 
        4.93234       0.0104834      0.00800187 
        4.94807       0.0105855      0.00794046 
        4.96377       0.0106659      0.00787982 
        4.97943       0.0107147      0.00781995 
        4.99514       0.0108473      0.00776055 
        5.01086       0.0108732      0.00770174 
        5.02654       0.0110146      0.00764369 
        5.04227       0.0110832      0.00758607 
          5.058       0.0112137      0.00752903 
        5.07371       0.0113365       0.0074727 
        5.08942       0.0114614      0.00741694 
        5.10513        0.011505      0.00736175 
        5.12084       0.0116823       0.0073071 
        5.13656       0.0117471      0.00725303 
        5.15225       0.0118938       0.0071996 
        5.16796       0.0120606      0.00714663 
        5.18369       0.0122174      0.00709415 
         5.1994       0.0123843       0.0070423 
        5.21509        0.012566      0.00699102 
        5.23079       0.0126284       0.0069402 
        5.24649       0.0128886      0.00688993 
        5.26217       0.0130286       0.0068402 
        5.27788       0.0132344      0.00679089 
        5.29359       0.0134245      0.00674207 
        5.30933       0.0136133      0.00669366 
        5.32504       0.0137902      0.00664582 
        5.34073       0.0140452       0.0065985 
        5.35646       0.0142167      0.00655155 
        5.37218       0.0143988      0.00650506 
        5.38789       0.0146486       0.0064591 
        5.40357       0.0148451      0.00641364 
        5.41929       0.0150686      0.00636852 
        5.43502        0.015353      0.00632384 
         5.4507       0.0156871      0.00627969 
        5.46639       0.0159669      0.00623597 
        5.48212       0.0160375      0.00619257 
        5.49786       0.0164683      0.00614953 
        5.51353       0.0167194      0.00610712 
        5.52921       0.0169625      0.00606508 
        5.54495       0.0173491      0.00602331 
        5.56066       0.0176349      0.00598198 
        5.57637       0.0179648      0.00594105 
        5.59207       0.0182883      0.00590055 
        5.60778        0.018639      0.00586041 
        5.62346       0.0190276      0.00582071 
        5.63916        0.019353      0.00578134 
        5.65487       0.0196709      0.00574232 
         5.6706        0.020008      0.00570362 
        5.68633       0.0204867      0.00566526 
        5.70203       0.0208748      0.00562734 
        5.71773       0.0214342      0.00558978 
        5.73344       0.0217176      0.00555255 
        5.74916       0.0221942      0.00551562 
        5.76486       0.0227065      0.00547909 
        5.78054       0.0231267      0.00544295 
        5.79626       0.0234672      0.00540703 
          5.812       0.0241098      0.00537141 
         5.8277       0.0245678      0.00533622 
        5.84339        0.025128      0.00530134 
        5.85911       0.0257166      0.00526672 
        5.87484       0.0262574      0.00523241 
        5.89053        0.026872      0.00519848 
        5.90623       0.0276092      0.00516484 
        5.92195       0.0281338      0.00513144 
        5.93767       0.0287098      0.00509836 
        5.95336       0.0292213      0.00506563 
        5.96905       0.0301236      0.00503321 
        5.98476       0.0306513      0.00500102 
        6.00048       0.0312629      0.00496911 
        6.01617       0.0320556      0.00493752 
        6.03185        0.032614      0.00490625 
        6.04756       0.0336478      0.00487518 
        6.06331       0.0342599      0.00484432 
        6.07903       0.0351333      0.00481379 
        6.09473       0.0357327      0.00478355 
        6.11044       0.0368326      0.00475356 
        6.12616       0.0376945      0.00472382 
        6.14186       0.0384089      0.00469437 
        6.15755       0.0393472      0.00466518 
        6.17326       0.0403343      0.00463622 
        6.18898       0.0414769      0.00460749 
        6.20467        0.042453      0.00457906 
        6.22036       0.0434921      0.00455088 
         6.2361       0.0445178      0.00452286 
         6.2518       0.0457639      0.00449512 
        6.26748       0.0465418      0.00446768 
        6.28319       0.0478776       0.0044404 
        6.29893       0.0489866      0.00441332 
        6.31463       0.0504769      0.00438652 
        6.33033       0.0516322      0.00435995 
        6.34604       0.0529241      0.00433359 
        6.36177       0.0542886      0.00430742 
        6.37747       0.0556928      0.00428152 
