# k  (h/Mpc)    Pcb(k)  (Mpc/h)^3    Pcb_linear(k) (Mpc/h)^3   ShotnoiseSubtracted = true
      0.0200456         16335.9         16639.9 
      0.0350414         13924.8         13642.7 
      0.0492313         10449.5           10741 
      0.0637834         8731.21         9279.54 
      0.0800726         7041.87         7578.89 
       0.096163         5784.65         5759.74 
       0.111083         4888.02         4782.82 
       0.126058          4079.1         4292.26 
       0.142273         3575.95         3652.34 
       0.158546         2997.24         2966.19 
        0.17375         2714.77         2577.84 
       0.188953         2565.27         2351.47 
       0.204907         2222.76         2078.32 
       0.220756         2015.85         1786.19 
        0.23588         1817.37         1590.05 
         0.2514         1656.12         1458.48 
       0.267535         1605.13         1318.69 
       0.283568          1433.5         1172.98 
       0.299022         1379.56         1062.22 
       0.314451         1428.75          980.12 
       0.330372         1267.92         900.732 
       0.346141         1171.61         821.648 
       0.361624         1128.47         754.751 
       0.377134          1079.7         700.497 
       0.392932         1044.71         650.605 
       0.408854         995.983         602.133 
       0.424564         976.305         558.932 
       0.440253         908.803          521.87 
       0.455999         871.475         488.434 
       0.471626         887.202         457.191 
        0.48727         843.616         428.421 
       0.502856         799.646         402.748 
       0.518488         787.592         379.387 
       0.534347         746.049          357.37 
       0.550082         717.273         337.092 
       0.565732         711.349         318.632 
       0.581496         698.354         301.561 
       0.597222         680.118         285.755 
       0.612804         669.066         271.168 
       0.628434         642.363         257.582 
       0.644267         622.723         244.834 
       0.660051         614.729         233.008 
       0.675724         606.554         222.043 
       0.691403         589.782         211.786 
       0.707174          570.77          202.13 
       0.722871         560.672         193.125 
        0.73838         556.311         184.773 
       0.754018         540.626          176.86 
       0.769845         532.902          169.33 
        0.78569         522.902          162.24 
       0.801365         507.889         155.632 
       0.817031         500.856         149.404 
       0.832809         495.989         143.484 
       0.848511         484.689         137.917 
       0.864097         476.588          132.69 
       0.879701         470.637         127.734 
       0.895507         454.793         122.978 
       0.911279         448.406         118.478 
        0.92691         443.296         114.245 
       0.942635         441.365           110.2 
       0.958396         425.611         106.345 
       0.974128         420.443         102.686 
       0.989692          405.52         99.2383 
        1.00528         406.282         95.9469 
        1.02113         396.979         92.7557 
        1.03692         390.386         89.7243 
        1.05264         384.342         86.8449 
        1.06832         380.531         84.0986 
        1.08405         374.578         81.4661 
        1.09979         368.944         78.9467 
        1.11537         358.211         76.5608 
        1.13105         354.287         74.2611 
        1.14679         349.511         72.0487 
        1.16256         345.683         69.9237 
        1.17828         340.794          67.893 
        1.19395         333.159         65.9512 
         1.2097         331.857         64.0768 
        1.22537         323.681         62.2857 
          1.241         320.275         60.5696 
        1.25666         315.119         58.9151 
        1.27241          308.91         57.3157 
        1.28819         304.974          55.774 
        1.30392         301.861         54.2945 
        1.31957         294.774         52.8762 
        1.33529         291.361         51.5043 
        1.35108         287.981         50.1764 
        1.36674         283.025         48.9057 
         1.3824         280.151         47.6809 
        1.39811         275.567         46.4947 
        1.41389         269.192          45.345 
        1.42964         267.544         44.2368 
        1.44531         262.636         43.1717 
        1.46101           259.1         42.1399 
        1.47667         255.023         41.1456 
        1.49229         252.279         40.1865 
        1.50793         249.285         39.2574 
        1.52367         245.196         38.3522 
        1.53953         240.077           37.47 
        1.55526         239.388          36.623 
        1.57092         236.031         35.8061 
        1.58662         230.904         35.0126 
        1.60235         228.397          34.242 
        1.61809          225.32         33.4946 
        1.63369         221.344         32.7765 
        1.64941         219.455         32.0747 
        1.66519         215.599         31.3912 
        1.68085         211.907         30.7329 
        1.69652          209.95         30.0935 
        1.71228         207.033         29.4689 
        1.72806         203.614         28.8619 
        1.74368         202.388         28.2784 
        1.75933         199.936           27.71 
        1.77505         195.976         27.1549 
        1.79081         193.292         26.6142 
         1.8065         190.861         26.0908 
        1.82218         187.267         25.5822 
        1.83797         185.988         25.0838 
        1.85367         183.127         24.6017 
        1.86928         179.914         24.1354 
        1.88497         178.344         23.6788 
        1.90073         175.875         23.2325 
        1.91647         173.212         22.7982 
        1.93218         171.503         22.3762 
        1.94787         168.561         21.9656 
        1.96363         168.319         21.5639 
        1.97935         164.598         21.1732 
        1.99499         163.469         20.7945 
        2.01064         159.959         20.4247 
         2.0264         158.133         20.0617 
        2.04216         156.881         19.7078 
        2.05781         154.343         19.3648 
        2.07353         152.063         19.0289 
        2.08928         150.666         18.7004 
        2.10499         148.311         18.3805 
        2.12065         147.496         18.0693 
        2.13633         144.953         17.7651 
        2.15211         142.904          17.466 
        2.16785         140.788         17.1748 
        2.18349         138.904         16.8921 
        2.19916         137.987         16.6153 
        2.21489         136.093         16.3439 
        2.23063         134.213         16.0784 
         2.2463         133.045         15.8201 
        2.26194         130.747         15.5682 
        2.27765         129.115         15.3206 
        2.29341         127.959         15.0778 
        2.30914         126.351         14.8409 
        2.32486         124.536         14.6092 
        2.34061         122.881         14.3822 
        2.35635          121.56         14.1602 
        2.37203         120.272         13.9438 
        2.38768         118.699         13.7325 
        2.40339         117.169         13.5248 
        2.41914         115.606         13.3209 
        2.43483         114.405         13.1221 
         2.4505         113.537         12.9277 
        2.46622         111.318         12.7366 
        2.48195         110.196         12.5495 
        2.49759         108.907         12.3671 
        2.51328         108.351          12.188 
        2.52906         106.352         12.0113 
        2.54479          104.89         11.8388 
        2.56049         103.363         11.6701 
        2.57618         102.563         11.5049 
        2.59189         101.755         11.3427 
        2.60758         100.262         11.1839 
        2.62325         99.4644         11.0284 
        2.63898         98.4478         10.8753 
        2.65468         97.1337         10.7255 
        2.67044         95.6564         10.5779 
        2.68618         94.8174         10.4335 
        2.70184         93.4561         10.2924 
        2.71755         92.1842         10.1536 
        2.73329         91.3925         10.0171 
        2.74897         90.4915         9.88368 
        2.76462         89.1073         9.75299 
        2.78034         88.4086         9.62415 
        2.79607         87.6884         9.49755 
        2.81179         86.0932         9.37339 
        2.82749         85.5046         9.25162 
        2.84321         84.3114         9.13191 
        2.85893         83.4579         9.01439 
        2.87462         82.5251         8.89916 
        2.89033         81.4185         8.78587 
        2.90605          81.137         8.67447 
        2.92176         79.8716          8.5651 
        2.93747         79.0529         8.45769 
        2.95318         78.2688         8.35212 
        2.96891         77.3606         8.24833 
        2.98456         76.5157         8.14679 
        3.00023         75.7064         8.04684 
        3.01596         75.0901         7.94827 
        3.03164         74.2238         7.85166 
        3.04738         73.3352         7.75639 
         3.0631         72.7062         7.66276 
        3.07883         71.8493         7.57069 
        3.09456         71.0058         7.48017 
        3.11026         70.1918         7.39129 
        3.12596         69.5591         7.30388 
        3.14163         68.9956          7.2181 
        3.15734          68.161         7.13352 
        3.17308         67.3152         7.05011 
        3.18879         66.6122         6.96828 
        3.20447         66.0568         6.88789 
         3.2202         65.3963         6.80853 
         3.2359         64.4954         6.73058 
        3.25157         63.8798         6.65405 
        3.26729         63.2424          6.5785 
        3.28304         62.4604         6.50398 
        3.29877          61.789         6.43074 
        3.31446         61.5528         6.35879 
        3.33014         60.7654         6.28803 
        3.34585         60.2169         6.21824 
        3.36158         59.5182         6.14943 
        3.37727         59.1917         6.08189 
        3.39294         58.3542         6.01544 
        3.40867          57.925         5.94975 
        3.42439         57.2427         5.88509 
        3.44008         56.6991         5.82153 
        3.45578         56.2518         5.75888 
        3.47153         55.6592         5.69702 
        3.48724         54.9604         5.63619 
        3.50292         54.4939         5.57641 
        3.51859          53.991         5.51753 
        3.53431         53.2847         5.45933 
        3.55007         52.8714         5.40184 
        3.56577         52.4429         5.34541 
        3.58146         51.7376         5.28982 
        3.59719         51.3222         5.23491 
        3.61292         50.8282          5.1808 
        3.62859         50.3739         5.12767 
        3.64429         49.8898          5.0752 
        3.66003         49.5724         5.02331 
        3.67578         48.9336         4.97217 
        3.69146         48.5633         4.92195 
        3.70712         48.0329         4.87252 
        3.72284         47.5728         4.82359 
        3.73853         47.1214         4.77543 
        3.75422          46.635         4.72792 
        3.76993         46.3044         4.68102 
        3.78564         45.7757         4.63479 
        3.80137         45.3411         4.58911 
        3.81707         44.8954         4.54415 
        3.83279         44.5486         4.49977 
        3.84853         44.0563         4.45591 
        3.86424         43.7494         4.41274 
        3.87992         43.3053          4.3702 
        3.89561         43.0558         4.32823 
        3.91134         42.5315         4.28674 
        3.92704          42.223         4.24584 
        3.94273         41.8748         4.20552 
        3.95845         41.3226         4.16566 
        3.97418         41.0183         4.12632 
        3.98988         40.6923         4.08754 
        4.00554         40.2879         4.04938 
        4.02125         39.9232         4.01159 
        4.03698         39.6251         3.97424 
        4.05268         39.2329         3.93745 
        4.06839         38.9139         3.90111 
         4.0841         38.4872         3.86525 
        4.09983         38.1766         3.82979 
        4.11555         37.7674         3.79479 
        4.13124         37.5394         3.76033 
        4.14693          37.123         3.72628 
        4.16266         36.8355         3.69258 
        4.17839         36.4678         3.65932 
        4.19408         36.2277         3.62655 
        4.20977         35.8949         3.59417 
        4.22551         35.5351         3.56211 
        4.24123         35.2507         3.53048 
        4.25691         34.9587         3.49933 
        4.27259          34.734         3.46855 
        4.28831         34.3329         3.43808 
        4.30404         34.1371         3.40795 
        4.31974         33.7776         3.37826 
        4.33543         33.5124         3.34894 
        4.35116         33.1772          3.3199 
        4.36688         32.9186         3.29122 
        4.38255         32.6949         3.26299 
        4.39825         32.2476         3.23504 
        4.41398         32.1865         3.20736 
         4.4297         31.8548         3.18003 
        4.44541         31.5425         3.15304 
        4.46111          31.279         3.12638 
        4.47683         31.0991         3.10002 
        4.49251         30.6897         3.07402 
        4.50819         30.4566         3.04832 
         4.5239         30.2245         3.02289 
        4.53962         29.9967         2.99772 
        4.55535         29.7445         2.97283 
        4.57106         29.5822         2.94826 
        4.58678         29.2394         2.92396 
         4.6025         29.1216         2.89994 
        4.61821         28.8161         2.87619 
        4.63391         28.6003         2.85275 
         4.6496         28.3472         2.82957 
        4.66532         28.1071         2.80663 
        4.68103         27.9438         2.78395 
        4.69673         27.6831         2.76154 
        4.71241         27.5166         2.73941 
        4.72811         27.2434         2.71749 
        4.74384          27.056         2.69578 
        4.75955          26.837         2.67434 
        4.77525         26.6374         2.65316 
        4.79096         26.4141         2.63218 
        4.80669         26.2051         2.61142 
         4.8224         26.0024          2.5909 
        4.83809         25.8239         2.57064 
        4.85379         25.5315         2.55058 
         4.8695         25.3629         2.53072 
        4.88521         25.1509         2.51109 
        4.90093         24.9271         2.49166 
        4.91663         24.7733         2.47246 
        4.93234         24.5225         2.45344 
        4.94807         24.4112         2.43461 
        4.96377         24.1323         2.41602 
        4.97943         23.9739         2.39766 
        4.99514         23.7617         2.37945 
        5.01086         23.6203         2.36141 
        5.02654         23.4743         2.34362 
        5.04227         23.2443         2.32595 
          5.058         23.0353         2.30846 
        5.07371         22.8962         2.29119 
        5.08942         22.7098         2.27409 
        5.10513         22.4725         2.25717 
        5.12084          22.337         2.24042 
        5.13656         22.1705         2.22384 
        5.15225         22.0684         2.20746 
        5.16796         21.8494         2.19121 
        5.18369         21.6918         2.17512 
         5.1994         21.5277         2.15923 
        5.21509         21.3499          2.1435 
        5.23079         21.1951         2.12792 
        5.24649         21.0521         2.11251 
        5.26217          20.828         2.09726 
        5.27788         20.7377         2.08214 
        5.29359         20.5655         2.06717 
        5.30933         20.3671         2.05233 
        5.32504         20.2824         2.03766 
        5.34073         20.1339         2.02315 
        5.35646         19.9311         2.00876 
        5.37218         19.8309          1.9945 
        5.38789         19.6469         1.98041 
        5.40357         19.4967         1.96647 
        5.41929         19.3623         1.95264 
        5.43502         19.2549         1.93894 
         5.4507         19.0599          1.9254 
        5.46639         18.9034           1.912 
        5.48212         18.7905         1.89869 
        5.49786         18.6927          1.8855 
        5.51353         18.5328         1.87249 
        5.52921         18.3764          1.8596 
        5.54495         18.2321         1.84679 
        5.56066         18.1613         1.83412 
        5.57637         17.9885         1.82157 
        5.59207         17.8692         1.80916 
        5.60778         17.7556         1.79685 
        5.62346         17.6094         1.78468 
        5.63916         17.4692          1.7726 
        5.65487         17.3863         1.76064 
         5.6706         17.1952         1.74877 
        5.68633         17.1089         1.73701 
        5.70203         17.0045         1.72539 
        5.71773         16.8807         1.71387 
        5.73344         16.7412         1.70246 
        5.74916         16.6689         1.69113 
        5.76486         16.4953         1.67993 
        5.78054         16.4067         1.66885 
        5.79626         16.2704         1.65784 
          5.812         16.1763         1.64692 
         5.8277         16.0466         1.63613 
        5.84339         15.9305         1.62543 
        5.85911         15.8499         1.61482 
        5.87484         15.7136          1.6043 
        5.89053         15.5998          1.5939 
        5.90623          15.511         1.58358 
        5.92195          15.353         1.57334 
        5.93767         15.2964          1.5632 
        5.95336         15.1832         1.55316 
        5.96905         15.0921         1.54322 
        5.98476         14.9824         1.53335 
        6.00048         14.8869         1.52357 
        6.01617         14.7751         1.51388 
        6.03185         14.6814          1.5043 
        6.04756         14.5955         1.49477 
        6.06331         14.4397         1.48531 
        6.07903         14.3777         1.47595 
        6.09473         14.2808         1.46668 
        6.11044         14.1934         1.45748 
        6.12616          14.051         1.44836 
        6.14186         13.9772         1.43933 
        6.15755         13.9172         1.43038 
        6.17326         13.7867          1.4215 
        6.18898         13.7117         1.41269 
        6.20467         13.6034         1.40398 
        6.22036         13.5337         1.39534 
         6.2361         13.4129         1.38674 
         6.2518           13.36         1.37824 
        6.26748         13.2566         1.36983 
        6.28319         13.1799         1.36146 
        6.29893         13.0968         1.35316 
        6.31463         12.9946         1.34494 
        6.33033         12.8926          1.3368 
        6.34604         12.7829         1.32871 
        6.36177         12.7201         1.32069 
        6.37747         12.6525         1.31275 
