# k  (h/Mpc)    Pcb(k)  (Mpc/h)^3    Pcb_linear(k) (Mpc/h)^3   ShotnoiseSubtracted = true
      0.0200456         1568.05         1594.12 
      0.0350414         1292.41         1306.99 
      0.0492313         1029.05         1029.01 
      0.0637834         896.091         888.993 
      0.0800726         730.692         726.069 
       0.096163         547.265         551.792 
       0.111083         450.697         458.201 
       0.126058         411.987         411.205 
       0.142273         353.328         349.899 
       0.158546         289.049         284.166 
        0.17375         245.592         246.961 
       0.188953         228.526         225.274 
       0.204907         209.802         199.106 
       0.220756         177.507          171.12 
        0.23588         157.813         152.329 
         0.2514         142.624         139.724 
       0.267535         131.147         126.333 
       0.283568         118.246         112.373 
       0.299022         108.358         101.762 
       0.314451         98.0259         93.8969 
       0.330372          91.401         86.2914 
       0.346141         83.4871          78.715 
       0.361624         77.8868         72.3063 
       0.377134         73.6251         67.1087 
       0.392932         65.7122         62.3289 
       0.408854         63.4696         57.6853 
       0.424564         59.8511         53.5465 
       0.440253         55.3966         49.9959 
       0.455999         52.6686         46.7927 
       0.471626         49.5005         43.7995 
        0.48727         47.1539         41.0434 
       0.502856           44.28         38.5839 
       0.518488         42.5287         36.3458 
       0.534347         40.8364         34.2366 
       0.550082         37.5887         32.2939 
       0.565732         35.1098         30.5254 
       0.581496         34.5404           28.89 
       0.597222         33.4047         27.3757 
       0.612804         31.2458         25.9783 
       0.628434         30.2092         24.6767 
       0.644267         29.4137         23.4554 
       0.660051         27.9027         22.3225 
       0.675724          26.585         21.2721 
       0.691403         25.7682         20.2895 
       0.707174          24.874         19.3644 
       0.722871         23.9054         18.5016 
        0.73838         23.1776         17.7015 
       0.754018         22.3344         16.9434 
       0.769845         21.5231         16.2221 
        0.78569         20.9313         15.5428 
       0.801365         20.1504         14.9098 
       0.817031         19.6573         14.3131 
       0.832809         19.2191         13.7459 
       0.848511         18.0918         13.2127 
       0.864097         17.7205         12.7119 
       0.879701         17.2616         12.2371 
       0.895507         16.6719         11.7814 
       0.911279         16.3807         11.3504 
        0.92691         15.8879         10.9449 
       0.942635         15.2491         10.5573 
       0.958396         14.8825          10.188 
       0.974128         14.5288         9.83747 
       0.989692         14.4086         9.50718 
        1.00528          13.912         9.19185 
        1.02113         13.3976         8.88614 
        1.03692         13.1889         8.59572 
        1.05264         12.8281         8.31987 
        1.06832         12.5968         8.05677 
        1.08405         12.1643         7.80457 
        1.09979         11.9208         7.56321 
        1.11537         11.7501         7.33464 
        1.13105         11.4616         7.11432 
        1.14679         11.2512         6.90237 
        1.16256         10.9419         6.69879 
        1.17828         10.8196         6.50424 
        1.19395          10.502         6.31822 
         1.2097           10.23         6.13865 
        1.22537         10.0115         5.96706 
          1.241         9.88569         5.80266 
        1.25666         9.77839         5.64415 
        1.27241         9.49263         5.49093 
        1.28819         9.28308         5.34323 
        1.30392          9.1686         5.20149 
        1.31957         8.99203         5.06562 
        1.33529         8.84484         4.93418 
        1.35108         8.61761         4.80697 
        1.36674         8.57571         4.68524 
         1.3824         8.27978          4.5679 
        1.39811         8.19607         4.45426 
        1.41389         8.07356         4.34412 
        1.42964         7.94885         4.23795 
        1.44531         7.82897         4.13591 
        1.46101         7.67706         4.03707 
        1.47667         7.51862         3.94181 
        1.49229          7.4596         3.84993 
        1.50793         7.26364         3.76092 
        1.52367         7.23895          3.6742 
        1.53953          7.0734         3.58968 
        1.55526         6.94922         3.50854 
        1.57092         6.91558         3.43028 
        1.58662          6.7514         3.35426 
        1.60235         6.66836         3.28044 
        1.61809         6.56129         3.20883 
        1.63369         6.46094         3.14004 
        1.64941         6.38639          3.0728 
        1.66519         6.31139         3.00733 
        1.68085         6.18972         2.94425 
        1.69652         6.10117           2.883 
        1.71228         6.02416         2.82317 
        1.72806          5.9371         2.76501 
        1.74368         5.84315         2.70911 
        1.75933         5.78766         2.65466 
        1.77505         5.70728         2.60148 
        1.79081         5.59552         2.54968 
         1.8065         5.55877         2.49954 
        1.82218           5.498         2.45081 
        1.83797         5.45129         2.40307 
        1.85367         5.36273         2.35688 
        1.86928          5.3039         2.31221 
        1.88497         5.21014         2.26846 
        1.90073          5.1413          2.2257 
        1.91647         5.08314          2.1841 
        1.93218         5.05385         2.14367 
        1.94787         4.99044         2.10434 
        1.96363         4.92389         2.06585 
        1.97935         4.85398         2.02842 
        1.99499         4.77015         1.99214 
        2.01064         4.74435         1.95672 
         2.0264         4.70461         1.92194 
        2.04216          4.6476         1.88804 
        2.05781         4.58393         1.85518 
        2.07353         4.53331           1.823 
        2.08928         4.49778         1.79152 
        2.10499         4.44573         1.76088 
        2.12065          4.4148         1.73107 
        2.13633         4.35342         1.70192 
        2.15211          4.3004         1.67327 
        2.16785         4.25728         1.64537 
        2.18349         4.22933         1.61829 
        2.19916         4.13785         1.59177 
        2.21489         4.12012         1.56577 
        2.23063         4.07876         1.54033 
         2.2463         4.04501         1.51559 
        2.26194         3.99308         1.49146 
        2.27765         3.95984         1.46774 
        2.29341         3.92587         1.44448 
        2.30914          3.8944         1.42178 
        2.32486         3.85826         1.39958 
        2.34061         3.81222         1.37783 
        2.35635          3.7495         1.35657 
        2.37203         3.74693         1.33584 
        2.38768           3.711         1.31559 
        2.40339         3.68695         1.29569 
        2.41914         3.63553         1.27617 
        2.43483         3.60449         1.25712 
         2.4505         3.55674         1.23849 
        2.46622         3.54568         1.22019 
        2.48195         3.49994         1.20226 
        2.49759         3.47182         1.18479 
        2.51328         3.43951         1.16763 
        2.52906         3.42623          1.1507 
        2.54479         3.38483         1.13418 
        2.56049         3.34984         1.11802 
        2.57618         3.33184         1.10219 
        2.59189         3.31746         1.08665 
        2.60758         3.26557         1.07143 
        2.62325         3.24812         1.05653 
        2.63898         3.20658         1.04187 
        2.65468         3.18381         1.02752 
        2.67044         3.16621         1.01338 
        2.68618         3.13047        0.999544 
        2.70184          3.1081        0.986025 
        2.71755         3.08758        0.972726 
        2.73329         3.05595        0.959655 
        2.74897         3.03899        0.946871 
        2.76462         3.00531        0.934351 
        2.78034         3.00341        0.922008 
        2.79607         2.95347        0.909879 
        2.81179           2.936        0.897984 
        2.82749         2.92754        0.886319 
        2.84321         2.89297        0.874851 
        2.85893         2.87736        0.863592 
        2.87462           2.851        0.852552 
        2.89033         2.81879        0.841699 
        2.90605         2.80298        0.831027 
        2.92176         2.78862        0.820549 
        2.93747         2.76481        0.810259 
        2.95318         2.74799        0.800146 
        2.96891         2.72395        0.790203 
        2.98456         2.70772        0.780475 
        3.00023         2.68653        0.770899 
        3.01596         2.67151        0.761456 
        3.03164         2.64848        0.752201 
        3.04738         2.62002        0.743074 
         3.0631         2.60324        0.734104 
        3.07883         2.59137        0.725283 
        3.09456         2.57915        0.716611 
        3.11026         2.55308        0.708096 
        3.12596         2.54153        0.699722 
        3.14163         2.51432        0.691505 
        3.15734         2.50884        0.683402 
        3.17308         2.48775        0.675411 
        3.18879         2.47654        0.667572 
        3.20447         2.45284         0.65987 
         3.2202         2.43523        0.652267 
         3.2359         2.42098        0.644799 
        3.25157         2.40335        0.637468 
        3.26729         2.38761         0.63023 
        3.28304         2.37401        0.623091 
        3.29877          2.3551        0.616074 
        3.31446         2.33491        0.609182 
        3.33014          2.3326        0.602402 
        3.34585         2.31207        0.595717 
        3.36158         2.29257        0.589125 
        3.37727         2.28583        0.582654 
        3.39294         2.26359        0.576287 
        3.40867         2.24971        0.569995 
        3.42439         2.23469          0.5638 
        3.44008         2.22469        0.557712 
        3.45578         2.21764        0.551709 
        3.47153         2.19239        0.545783 
        3.48724         2.18368        0.539956 
        3.50292         2.17434        0.534228 
        3.51859         2.16344        0.528587 
        3.53431         2.14635        0.523012 
        3.55007         2.13754        0.517504 
        3.56577         2.11843        0.512098 
        3.58146         2.10742        0.506772 
        3.59719         2.09526        0.501512 
        3.61292         2.08807        0.496328 
        3.62859         2.07062        0.491239 
        3.64429         2.05868        0.486211 
        3.66003          2.0438         0.48124 
        3.67578         2.03545        0.476341 
        3.69146         2.02464         0.47153 
        3.70712         2.00224        0.466794 
        3.72284         2.00458        0.462107 
        3.73853         1.98433        0.457493 
        3.75422         1.97721        0.452942 
        3.76993         1.96616        0.448449 
        3.78564         1.95475         0.44402 
        3.80137         1.93932        0.439644 
        3.81707          1.9339        0.435337 
        3.83279         1.91612        0.431085 
        3.84853         1.90841        0.426883 
        3.86424         1.90083        0.422747 
        3.87992         1.88865        0.418672 
        3.89561         1.87985        0.414651 
        3.91134         1.86832        0.410676 
        3.92704         1.85593        0.406758 
        3.94273         1.85181        0.402895 
        3.95845         1.83787        0.399077 
        3.97418         1.83081        0.395307 
        3.98988          1.8137        0.391593 
        4.00554         1.80807        0.387936 
        4.02125         1.79574        0.384316 
        4.03698         1.78168        0.380738 
        4.05268          1.7672        0.377214 
        4.06839         1.75508        0.373732 
         4.0841         1.74704        0.370296 
        4.09983         1.73599        0.366899 
        4.11555         1.72562        0.363546 
        4.13124         1.71698        0.360245 
        4.14693         1.70335        0.356983 
        4.16266         1.69271        0.353754 
        4.17839         1.68253        0.350568 
        4.19408         1.67369        0.347428 
        4.20977         1.66548        0.344326 
        4.22551         1.65446        0.341255 
        4.24123           1.644        0.338225 
        4.25691         1.63515        0.335241 
        4.27259         1.62419        0.332292 
        4.28831         1.61425        0.329373 
        4.30404         1.60915        0.326487 
        4.31974          1.5923        0.323642 
        4.33543         1.58964        0.320833 
        4.35116         1.57886        0.318051 
        4.36688         1.57002        0.315304 
        4.38255         1.56284        0.312599 
        4.39825         1.55691        0.309921 
        4.41398         1.54825        0.307269 
         4.4297         1.53747        0.304652 
        4.44541         1.53182        0.302066 
        4.46111         1.52632        0.299512 
        4.47683         1.51678        0.296986 
        4.49251         1.50919        0.294495 
        4.50819         1.50193        0.292034 
         4.5239         1.49061        0.289597 
        4.53962         1.48557        0.287186 
        4.55535         1.47607        0.284801 
        4.57106          1.4724        0.282447 
        4.58678         1.46484         0.28012 
         4.6025         1.45867        0.277818 
        4.61821          1.4529        0.275543 
        4.63391         1.44182        0.273297 
         4.6496         1.43598        0.271077 
        4.66532         1.42987        0.268879 
        4.68103         1.42228        0.266706 
        4.69673         1.41907         0.26456 
        4.71241         1.41082         0.26244 
        4.72811         1.40675        0.260339 
        4.74384         1.39656         0.25826 
        4.75955         1.39097        0.256206 
        4.77525         1.38387        0.254176 
        4.79096         1.37674        0.252166 
        4.80669         1.37664        0.250177 
         4.8224         1.36746        0.248212 
        4.83809         1.36226        0.246271 
        4.85379         1.35715        0.244349 
         4.8695         1.35067        0.242447 
        4.88521         1.34477        0.240566 
        4.90093         1.34139        0.238704 
        4.91663         1.33593        0.236865 
        4.93234          1.3258        0.235043 
        4.94807         1.32245        0.233239 
        4.96377         1.31881        0.231458 
        4.97943          1.3129        0.229699 
        4.99514         1.30495        0.227955 
        5.01086         1.30387        0.226227 
        5.02654         1.29751        0.224522 
        5.04227          1.2898         0.22283 
          5.058         1.28784        0.221154 
        5.07371         1.28102        0.219499 
        5.08942         1.27724        0.217861 
        5.10513         1.27323         0.21624 
        5.12084         1.26845        0.214635 
        5.13656         1.26394        0.213047 
        5.15225         1.25978        0.211477 
        5.16796         1.25042        0.209922 
        5.18369         1.24912         0.20838 
         5.1994         1.24244        0.206857 
        5.21509          1.2403        0.205351 
        5.23079         1.23675        0.203858 
        5.24649         1.23255        0.202381 
        5.26217         1.22481        0.200921 
        5.27788         1.22309        0.199472 
        5.29359         1.21944        0.198038 
        5.30933         1.21548        0.196616 
        5.32504          1.2108        0.195211 
        5.34073         1.20653        0.193821 
        5.35646          1.2024        0.192442 
        5.37218         1.19966        0.191076 
        5.38789         1.19396        0.189726 
        5.40357         1.18742        0.188391 
        5.41929         1.18896        0.187066 
        5.43502          1.1828        0.185753 
         5.4507         1.18209        0.184457 
        5.46639         1.17609        0.183172 
        5.48212         1.16818        0.181897 
        5.49786         1.16823        0.180633 
        5.51353         1.16199        0.179388 
        5.52921         1.16247        0.178152 
        5.54495         1.15565        0.176926 
        5.56066         1.15279        0.175712 
        5.57637         1.14995        0.174509 
        5.59207          1.1458         0.17332 
        5.60778         1.14218        0.172141 
        5.62346         1.14041        0.170975 
        5.63916         1.13643        0.169818 
        5.65487         1.13261        0.168672 
         5.6706         1.13142        0.167535 
        5.68633         1.12696        0.166409 
        5.70203         1.12161        0.165295 
        5.71773         1.12064        0.164191 
        5.73344         1.11491        0.163098 
        5.74916          1.1166        0.162013 
        5.76486         1.10922         0.16094 
        5.78054         1.10656        0.159878 
        5.79626         1.10466        0.158823 
          5.812         1.10132        0.157777 
         5.8277         1.09802        0.156743 
        5.84339         1.09492        0.155719 
        5.85911         1.09037        0.154702 
        5.87484         1.08896        0.153694 
        5.89053         1.08548        0.152698 
        5.90623           1.083        0.151709 
        5.92195         1.07729        0.150728 
        5.93767         1.07606        0.149757 
        5.95336         1.07324        0.148795 
        5.96905         1.06935        0.147843 
        5.98476         1.06749        0.146898 
        6.00048         1.06548         0.14596 
        6.01617         1.06078        0.145032 
        6.03185         1.05729        0.144114 
        6.04756         1.05702        0.143201 
        6.06331         1.05371        0.142295 
        6.07903         1.05087        0.141398 
        6.09473         1.04882         0.14051 
        6.11044         1.04365        0.139629 
        6.12616         1.04212        0.138755 
        6.14186         1.04058         0.13789 
        6.15755         1.03555        0.137033 
        6.17326         1.03559        0.136182 
        6.18898         1.03208        0.135338 
        6.20467         1.03012        0.134503 
        6.22036         1.02655        0.133675 
         6.2361         1.02395        0.132852 
         6.2518         1.02134        0.132037 
        6.26748         1.01768        0.131232 
        6.28319         1.01783         0.13043 
        6.29893         1.01265        0.129635 
        6.31463         1.00996        0.128847 
        6.33033         1.01005        0.128067 
        6.34604         1.00527        0.127293 
        6.36177         1.00381        0.126524 
        6.37747         1.00256        0.125763 
