# k  (h/Mpc)    Pcb(k)  (Mpc/h)^3    Pcb_linear(k) (Mpc/h)^3   ShotnoiseSubtracted = true
      0.0200456         19968.6         20534.8 
      0.0350414         15943.4         16836.1 
      0.0492313         12810.8         13255.2 
      0.0637834         11446.5         11451.6 
      0.0800726         9239.53          9352.9 
       0.096163         6653.38         7107.94 
       0.111083         5498.55         5902.34 
       0.126058         5126.65         5296.95 
       0.142273         4434.07         4507.25 
       0.158546          3987.5          3660.5 
        0.17375         3255.62         3181.24 
       0.188953         3201.27         2901.88 
       0.204907          3024.3         2564.79 
       0.220756         2659.91         2204.29 
        0.23588         2386.07         1962.23 
         0.2514         2103.42         1799.87 
       0.267535         2127.57         1627.36 
       0.283568         1940.56         1447.54 
       0.299022         1842.46         1310.86 
       0.314451         1766.02         1209.54 
       0.330372         1625.63         1111.57 
       0.346141          1588.9         1013.97 
       0.361624         1526.83         931.417 
       0.377134         1426.57         864.464 
       0.392932         1384.52         802.893 
       0.408854         1357.01         743.076 
       0.424564         1260.92         689.762 
       0.440253         1235.79         644.025 
       0.455999         1216.96         602.763 
       0.471626         1166.73         564.206 
        0.48727         1131.47         528.702 
       0.502856         1093.66          497.02 
       0.518488         1090.05         468.191 
       0.534347         1025.99          441.02 
       0.550082         1007.74         415.995 
       0.565732         998.173         393.214 
       0.581496         955.681         372.148 
       0.597222         934.769         352.642 
       0.612804         921.239          334.64 
       0.628434         901.164         317.874 
       0.644267          875.55         302.142 
       0.660051         853.421         287.548 
       0.675724         850.093         274.017 
       0.691403         822.687          261.36 
       0.707174         800.632         249.443 
       0.722871         785.027          238.33 
        0.73838         770.087         228.023 
       0.754018         760.331         218.257 
       0.769845         746.358         208.966 
        0.78569         734.571         200.215 
       0.801365         716.112         192.061 
       0.817031         700.154         184.375 
       0.832809         692.585         177.069 
       0.848511         676.924         170.199 
       0.864097         659.214         163.749 
       0.879701         649.434         157.633 
       0.895507         651.083         151.763 
       0.911279         633.843          146.21 
        0.92691          625.66         140.987 
       0.942635         608.344         135.994 
       0.958396         591.535         131.238 
       0.974128         587.025         126.722 
       0.989692         580.696         122.467 
        1.00528         563.299         118.405 
        1.02113         563.607         114.467 
        1.03692         547.172         110.726 
        1.05264         540.735         107.173 
        1.06832         529.787         103.784 
        1.08405         526.115         100.535 
        1.09979         515.047         97.4259 
        1.11537         505.549         94.4815 
        1.13105         499.416         91.6435 
        1.14679         489.454         88.9132 
        1.16256         473.914         86.2908 
        1.17828         476.886         83.7848 
        1.19395         465.103         81.3885 
         1.2097         455.707         79.0754 
        1.22537         447.762          76.865 
          1.241         441.259         74.7473 
        1.25666         436.167         72.7054 
        1.27241         426.748         70.7316 
        1.28819         420.945         68.8291 
        1.30392         412.677         67.0033 
        1.31957         409.058          65.253 
        1.33529          403.47         63.5599 
        1.35108         395.806         61.9213 
        1.36674         388.088         60.3531 
         1.3824         384.955         58.8416 
        1.39811         376.528         57.3778 
        1.41389         373.429          55.959 
        1.42964         368.944         54.5913 
        1.44531         363.178         53.2769 
        1.46101         355.426         52.0037 
        1.47667         350.769         50.7766 
        1.49229          345.46          49.593 
        1.50793         338.311         48.4465 
        1.52367         336.808         47.3294 
        1.53953         330.428         46.2406 
        1.55526         324.655         45.1954 
        1.57092         324.157         44.1873 
        1.58662         317.536         43.2081 
        1.60235         312.012         42.2571 
        1.61809         306.923         41.3348 
        1.63369         303.812         40.4486 
        1.64941         299.809         39.5825 
        1.66519         295.133          38.739 
        1.68085         292.002         37.9265 
        1.69652          286.18         37.1375 
        1.71228         281.163         36.3668 
        1.72806         276.085         35.6177 
        1.74368         274.165         34.8975 
        1.75933         269.928         34.1962 
        1.77505         267.751         33.5111 
        1.79081         263.356         32.8439 
         1.8065         259.034          32.198 
        1.82218         255.978         31.5703 
        1.83797         254.538         30.9553 
        1.85367         248.751         30.3603 
        1.86928         244.675         29.7848 
        1.88497         242.158         29.2213 
        1.90073         239.536         28.6705 
        1.91647         236.234         28.1347 
        1.93218         232.006         27.6138 
        1.94787         228.618         27.1072 
        1.96363         225.618         26.6114 
        1.97935         223.849         26.1292 
        1.99499         219.625         25.6619 
        2.01064         217.276         25.2055 
         2.0264         214.942         24.7576 
        2.04216         211.868         24.3208 
        2.05781         208.518         23.8976 
        2.07353         205.543          23.483 
        2.08928         203.243         23.0776 
        2.10499         200.687         22.6829 
        2.12065         198.428         22.2988 
        2.13633         195.328         21.9234 
        2.15211         192.367         21.5543 
        2.16785         190.613         21.1949 
        2.18349         187.387         20.8461 
        2.19916         185.626         20.5045 
        2.21489         183.439         20.1695 
        2.23063         180.949         19.8419 
         2.2463         177.499         19.5231 
        2.26194         175.656         19.2123 
        2.27765         173.589         18.9067 
        2.29341         172.032         18.6071 
        2.30914         170.021         18.3147 
        2.32486         167.675         18.0288 
        2.34061         164.742         17.7486 
        2.35635         163.334         17.4748 
        2.37203         161.335         17.2077 
        2.38768         158.939         16.9468 
        2.40339         157.506         16.6905 
        2.41914         155.456          16.439 
        2.43483         154.057         16.1936 
         2.4505         152.058         15.9537 
        2.46622          150.27         15.7179 
        2.48195         148.111          15.487 
        2.49759         146.562         15.2619 
        2.51328         145.075         15.0409 
        2.52906         142.781         14.8228 
        2.54479         140.723           14.61 
        2.56049         139.753         14.4018 
        2.57618         138.021         14.1979 
        2.59189         136.495         13.9977 
        2.60758         134.609         13.8017 
        2.62325         132.938         13.6098 
        2.63898         131.757         13.4209 
        2.65468          129.72          13.236 
        2.67044          128.56         13.0539 
        2.68618         127.204         12.8757 
        2.70184         125.893         12.7015 
        2.71755         124.221         12.5302 
        2.73329         122.541         12.3619 
        2.74897         121.569         12.1972 
        2.76462         119.678         12.0359 
        2.78034         118.638         11.8769 
        2.79607         117.637         11.7207 
        2.81179         116.062         11.5674 
        2.82749         114.847         11.4172 
        2.84321         113.392         11.2694 
        2.85893         111.902         11.1244 
        2.87462         110.326         10.9822 
        2.89033         109.529         10.8424 
        2.90605         108.657         10.7049 
        2.92176          107.02         10.5699 
        2.93747         106.102         10.4374 
        2.95318         105.076         10.3071 
        2.96891         103.816          10.179 
        2.98456         102.857         10.0537 
        3.00023         101.735         9.93038 
        3.01596         100.093         9.80874 
        3.03164         99.7011         9.68951 
        3.04738         98.4796         9.57195 
         3.0631         97.3528          9.4564 
        3.07883         96.3448         9.34277 
        3.09456         95.5982         9.23106 
        3.11026          94.466         9.12138 
        3.12596         93.7238         9.01351 
        3.14163         92.4155         8.90765 
        3.15734         91.4853         8.80328 
        3.17308         90.4083         8.70034 
        3.18879         89.5275         8.59936 
        3.20447         88.7511         8.50015 
         3.2202         87.5973         8.40221 
         3.2359         86.8237         8.30602 
        3.25157         85.7809         8.21157 
        3.26729         85.3236         8.11833 
        3.28304         84.3143         8.02638 
        3.29877         83.4314         7.93599 
        3.31446         82.6997         7.84721 
        3.33014          81.638         7.75988 
        3.34585         80.9078         7.67376 
        3.36158         79.8657         7.58884 
        3.37727         79.6609         7.50548 
        3.39294         78.8107         7.42348 
        3.40867         77.3952         7.34242 
        3.42439         76.9807         7.26263 
        3.44008         76.2725         7.18419 
        3.45578         75.2141         7.10687 
        3.47153         74.8711         7.03054 
        3.48724          74.072         6.95547 
        3.50292         73.4153         6.88169 
        3.51859         72.6016         6.80903 
        3.53431         71.7717          6.7372 
        3.55007          71.249         6.66625 
        3.56577         70.5642         6.59662 
        3.58146         69.7496         6.52802 
        3.59719           69.05         6.46025 
        3.61292         68.5663         6.39348 
        3.62859          67.593         6.32791 
        3.64429         67.2294         6.26316 
        3.66003         66.5917         6.19912 
        3.67578         65.9547         6.13601 
        3.69146         65.3211         6.07403 
        3.70712         64.6818         6.01303 
        3.72284         64.0306         5.95266 
        3.73853         63.7435         5.89323 
        3.75422         62.8085         5.83459 
        3.76993         62.2877         5.77672 
        3.78564           61.75         5.71966 
        3.80137         61.0258         5.66329 
        3.81707         60.7003         5.60781 
        3.83279         60.1156         5.55304 
        3.84853         59.5606         5.49892 
        3.86424         58.8839         5.44563 
        3.87992         58.4756         5.39314 
        3.89561         57.8237         5.34135 
        3.91134         57.4022         5.29014 
        3.92704         56.9965         5.23967 
        3.94273         56.3337         5.18992 
        3.95845         55.8152         5.14073 
        3.97418         55.4042         5.09217 
        3.98988         54.8136         5.04432 
        4.00554         54.4256         4.99722 
        4.02125         53.8839         4.95059 
        4.03698         53.4061          4.9045 
        4.05268         52.9728          4.8591 
        4.06839         52.4663         4.81425 
         4.0841         51.9193         4.76999 
        4.09983         51.5909         4.72623 
        4.11555         51.0787         4.68304 
        4.13124         50.7912         4.64052 
        4.14693         50.2708          4.5985 
        4.16266         49.9611         4.55691 
        4.17839         49.4522         4.51586 
        4.19408         49.0007         4.47542 
        4.20977          48.527         4.43546 
        4.22551         48.0431          4.3959 
        4.24123         47.7084         4.35687 
        4.25691          47.265         4.31842 
        4.27259         46.9865         4.28044 
        4.28831         46.3748         4.24284 
        4.30404         46.1472         4.20566 
        4.31974         45.5891         4.16901 
        4.33543         45.2612         4.13283 
        4.35116         44.9815         4.09699 
        4.36688         44.5902          4.0616 
        4.38255          44.173         4.02676 
        4.39825         43.8522         3.99227 
        4.41398         43.3655         3.95811 
         4.4297         43.1459         3.92439 
        4.44541         42.7997         3.89108 
        4.46111         42.3176         3.85818 
        4.47683         41.9971         3.82565 
        4.49251         41.6521         3.79356 
        4.50819          41.224         3.76185 
         4.5239         40.9835         3.73046 
        4.53962         40.6084          3.6994 
        4.55535          40.245         3.66868 
        4.57106          39.907         3.63836 
        4.58678         39.5907         3.60838 
         4.6025         39.2649         3.57873 
        4.61821         38.9754         3.54943 
        4.63391         38.6903         3.52049 
         4.6496         38.2028          3.4919 
        4.66532          38.078         3.46358 
        4.68103         37.7315         3.43559 
        4.69673         37.3319         3.40794 
        4.71241         37.0413         3.38063 
        4.72811         36.8237         3.35357 
        4.74384         36.5084         3.32678 
        4.75955         36.2589         3.30033 
        4.77525         35.9515         3.27419 
        4.79096         35.6346         3.24829 
        4.80669          35.315         3.22267 
         4.8224         35.0306         3.19736 
        4.83809         34.7845         3.17235 
        4.85379         34.5304          3.1476 
         4.8695         34.2315         3.12309 
        4.88521         33.9234         3.09886 
        4.90093         33.7055         3.07488 
        4.91663         33.4824         3.05119 
        4.93234          33.138         3.02772 
        4.94807         32.9536         3.00448 
        4.96377         32.6967         2.98154 
        4.97943         32.4048         2.95888 
        4.99514         32.1911         2.93641 
        5.01086          31.961         2.91415 
        5.02654         31.6453         2.89219 
        5.04227          31.407         2.87039 
          5.058         31.2006         2.84881 
        5.07371         30.9478         2.82749 
        5.08942         30.6738         2.80639 
        5.10513         30.4943         2.78551 
        5.12084         30.1913         2.76483 
        5.13656         29.9727         2.74437 
        5.15225         29.7365         2.72416 
        5.16796         29.6142         2.70412 
        5.18369         29.3092         2.68426 
         5.1994         29.0599         2.66464 
        5.21509         28.8524         2.64524 
        5.23079         28.6388         2.62601 
        5.24649         28.4403         2.60699 
        5.26217         28.2136         2.58817 
        5.27788          28.051         2.56951 
        5.29359          27.782         2.55104 
        5.30933         27.6058         2.53272 
        5.32504         27.3609         2.51462 
        5.34073         27.2021         2.49672 
        5.35646         27.0389         2.47895 
        5.37218          26.792         2.46136 
        5.38789         26.6383         2.44397 
        5.40357         26.4068         2.42677 
        5.41929         26.2354          2.4097 
        5.43502         26.0468         2.39279 
         5.4507         25.7803         2.37609 
        5.46639         25.6542         2.35954 
        5.48212          25.478         2.34312 
        5.49786         25.3515         2.32684 
        5.51353           25.09         2.31079 
        5.52921         24.8966         2.29488 
        5.54495         24.7138         2.27908 
        5.56066          24.526         2.26344 
        5.57637         24.3245         2.24795 
        5.59207         24.2237         2.23263 
        5.60778         24.0107         2.21744 
        5.62346         23.8303         2.20242 
        5.63916         23.6484         2.18752 
        5.65487         23.5006         2.17276 
         5.6706         23.3089         2.15811 
        5.68633         23.1113          2.1436 
        5.70203         23.0035         2.12925 
        5.71773         22.8058         2.11504 
        5.73344         22.7262         2.10095 
        5.74916          22.497         2.08698 
        5.76486         22.3205         2.07316 
        5.78054         22.1805         2.05948 
        5.79626         22.0026         2.04589 
          5.812         21.8548         2.03241 
         5.8277         21.6903          2.0191 
        5.84339         21.5167          2.0059 
        5.85911         21.4601          1.9928 
        5.87484         21.3035         1.97982 
        5.89053         21.1329         1.96698 
        5.90623         20.9549         1.95425 
        5.92195         20.8338         1.94162 
        5.93767         20.7001          1.9291 
        5.95336         20.4999         1.91672 
        5.96905         20.3891         1.90445 
        5.98476         20.2485         1.89227 
        6.00048         20.1179         1.88019 
        6.01617          19.981         1.86824 
        6.03185         19.8337         1.85641 
        6.04756         19.6937         1.84465 
        6.06331         19.5418         1.83298 
        6.07903         19.3822         1.82142 
        6.09473         19.2621         1.80998 
        6.11044         19.1569         1.79863 
        6.12616          18.984         1.78738 
        6.14186         18.8957         1.77624 
        6.15755         18.7335         1.76519 
        6.17326         18.6182         1.75424 
        6.18898         18.4995         1.74337 
        6.20467         18.3957         1.73261 
        6.22036         18.2783         1.72194 
         6.2361         18.1301         1.71134 
         6.2518         18.0395         1.70085 
        6.26748         17.9074         1.69047 
        6.28319         17.7597         1.68014 
        6.29893         17.6317          1.6699 
        6.31463         17.5143         1.65976 
        6.33033         17.4282          1.6497 
        6.34604         17.3374         1.63973 
        6.36177         17.1967         1.62983 
        6.37747         17.0468         1.62003 
