# k  (h/Mpc)    Pcb(k)  (Mpc/h)^3    Pcb_linear(k) (Mpc/h)^3   ShotnoiseSubtracted = true
      0.0200456         4566.18         4634.08 
      0.0350414         3855.25         3799.39 
      0.0492313         2974.91         2991.29 
      0.0637834         2515.77         2584.28 
      0.0800726         2044.84         2110.66 
       0.096163         1626.77         1604.05 
       0.111083          1369.2         1331.98 
       0.126058         1171.17         1195.36 
       0.142273         1003.15         1017.15 
       0.158546         837.057         826.063 
        0.17375         742.311         717.909 
       0.188953         678.482         654.866 
       0.204907         579.586         578.796 
       0.220756         521.398         497.441 
        0.23588         466.595         442.817 
         0.2514         424.153         406.175 
       0.267535           403.6         367.247 
       0.283568         355.279         326.667 
       0.299022          334.85         295.821 
       0.314451         326.852         272.956 
       0.330372         286.928         250.847 
       0.346141         266.603         228.823 
       0.361624         252.092         210.193 
       0.377134         231.691         195.083 
       0.392932          227.45         181.189 
       0.408854         213.634          167.69 
       0.424564         205.057         155.658 
       0.440253          186.65         145.337 
       0.455999         175.891         136.025 
       0.471626           169.9         127.324 
        0.48727         165.478         119.312 
       0.502856         152.563         112.162 
       0.518488         148.894         105.656 
       0.534347         140.755         99.5248 
       0.550082         136.989         93.8774 
       0.565732         133.895         88.7365 
       0.581496         124.709         83.9825 
       0.597222         121.081         79.5805 
       0.612804         118.208         75.5181 
       0.628434         115.045         71.7346 
       0.644267         109.481         68.1844 
       0.660051         105.617         64.8909 
       0.675724         103.564         61.8373 
       0.691403         101.704         58.9809 
       0.707174         98.7799         56.2918 
       0.722871         96.0996         53.7837 
        0.73838         92.8884         51.4579 
       0.754018          88.365         49.2541 
       0.769845         87.5445         47.1572 
        0.78569         84.5956         45.1825 
       0.801365          82.883         43.3424 
       0.817031         79.9723         41.6079 
       0.832809         78.8674         39.9591 
       0.848511         76.6696         38.4089 
       0.864097         75.5604         36.9532 
       0.879701         74.1195          35.573 
       0.895507         71.6243         34.2483 
       0.911279         70.5084         32.9952 
        0.92691         68.3646         31.8164 
       0.942635          67.409         30.6898 
       0.958396         66.8196         29.6164 
       0.974128         65.1459         28.5973 
       0.989692         63.6291         27.6371 
        1.00528         62.6381         26.7205 
        1.02113         61.4858         25.8318 
        1.03692          60.735         24.9875 
        1.05264         59.4483         24.1856 
        1.06832         58.2859         23.4208 
        1.08405         57.0255         22.6877 
        1.09979         56.9146         21.9861 
        1.11537         55.3153         21.3216 
        1.13105         54.1221         20.6812 
        1.14679         53.3389          20.065 
        1.16256         52.7413         19.4732 
        1.17828         51.8783         18.9077 
        1.19395         51.1013         18.3669 
         1.2097         50.2927         17.8449 
        1.22537         49.5511         17.3461 
          1.241         48.6943         16.8682 
        1.25666         48.2288         16.4074 
        1.27241         47.5644          15.962 
        1.28819         46.0023         15.5326 
        1.30392         46.4935         15.1206 
        1.31957         45.4057         14.7256 
        1.33529         44.5912         14.3435 
        1.35108         44.0822         13.9737 
        1.36674         43.7575         13.6199 
         1.3824         42.9204         13.2788 
        1.39811         42.0044         12.9484 
        1.41389         41.6614         12.6282 
        1.42964         41.1704         12.3196 
        1.44531         40.4473          12.023 
        1.46101         40.1931         11.7357 
        1.47667         39.7241         11.4587 
        1.49229          39.069         11.1916 
        1.50793         38.5261         10.9329 
        1.52367         38.1086         10.6808 
        1.53953         37.6921         10.4351 
        1.55526         37.1075         10.1992 
        1.57092         36.9116         9.97173 
        1.58662         36.4108         9.75075 
        1.60235          35.786         9.53615 
        1.61809         35.5587           9.328 
        1.63369         35.1919         9.12802 
        1.64941          34.779         8.93257 
        1.66519         34.0339         8.74222 
        1.68085          33.649         8.55887 
        1.69652         33.5998          8.3808 
        1.71228         33.0393         8.20687 
        1.72806         32.5878         8.03782 
        1.74368         32.3319         7.87531 
        1.75933         31.9402         7.71703 
        1.77505          31.682         7.56243 
        1.79081         31.3012         7.41186 
         1.8065         30.8554          7.2661 
        1.82218           30.57         7.12445 
        1.83797         30.4316         6.98566 
        1.85367         30.1734          6.8514 
        1.86928          29.785         6.72152 
        1.88497          29.426         6.59436 
        1.90073         29.0735         6.47007 
        1.91647         28.7244         6.34914 
        1.93218         28.7931          6.2316 
        1.94787         28.2536         6.11726 
        1.96363         28.1636         6.00538 
        1.97935          27.582         5.89657 
        1.99499         27.3437         5.79111 
        2.01064         27.1737         5.68812 
         2.0264         26.7915         5.58703 
        2.04216         26.6359         5.48847 
        2.05781         26.3704         5.39296 
        2.07353         26.0519         5.29941 
        2.08928         25.7439         5.20791 
        2.10499         25.4898         5.11884 
        2.12065         25.2798         5.03216 
        2.13633         25.1072         4.94744 
        2.15211          24.766         4.86416 
        2.16785         24.6424         4.78305 
        2.18349         24.3199         4.70433 
        2.19916         24.0881         4.62724 
        2.21489         23.8916         4.55164 
        2.23063         23.7117         4.47771 
         2.2463         23.4018         4.40578 
        2.26194         23.1813         4.33563 
        2.27765         22.9108         4.26667 
        2.29341         22.7209         4.19906 
        2.30914          22.557         4.13307 
        2.32486         22.4096         4.06855 
        2.34061         22.1949         4.00533 
        2.35635         21.9329         3.94352 
        2.37203         21.7217         3.88325 
        2.38768         21.4674         3.82439 
        2.40339         21.3611         3.76655 
        2.41914         21.0841         3.70978 
        2.43483         20.8728         3.65441 
         2.4505         20.7274         3.60027 
        2.46622         20.5301         3.54706 
        2.48195          20.408         3.49494 
        2.49759         20.0826         3.44416 
        2.51328         20.0617         3.39426 
        2.52906         19.8418         3.34506 
        2.54479         19.6307         3.29703 
        2.56049         19.4336         3.25005 
        2.57618         19.3343         3.20403 
        2.59189          19.175         3.15885 
        2.60758         18.9085         3.11463 
        2.62325         18.7516         3.07132 
        2.63898         18.6319         3.02869 
        2.65468         18.4111         2.98697 
        2.67044         18.3074         2.94587 
        2.68618         18.1396         2.90565 
        2.70184         17.9402         2.86635 
        2.71755          17.854         2.82769 
        2.73329          17.589         2.78969 
        2.74897         17.5475         2.75253 
        2.76462         17.3569         2.71613 
        2.78034         17.1938         2.68025 
        2.79607         17.0117         2.64499 
        2.81179         16.8762         2.61042 
        2.82749         16.7296         2.57651 
        2.84321         16.5845         2.54317 
        2.85893          16.416         2.51044 
        2.87462         16.3529         2.47835 
        2.89033         16.2057          2.4468 
        2.90605         16.0653         2.41578 
        2.92176         15.8632         2.38531 
        2.93747          15.769          2.3554 
        2.95318         15.6239           2.326 
        2.96891         15.5045          2.2971 
        2.98456         15.4086         2.26882 
        3.00023         15.3025         2.24098 
        3.01596           15.09         2.21353 
        3.03164         15.0724         2.18663 
        3.04738         14.8635          2.1601 
         3.0631         14.7088         2.13402 
        3.07883          14.614         2.10838 
        3.09456         14.5495         2.08317 
        3.11026         14.4462         2.05842 
        3.12596         14.2971         2.03407 
        3.14163         14.1847         2.01019 
        3.15734         13.9979         1.98663 
        3.17308         13.9259          1.9634 
        3.18879         13.8459         1.94061 
        3.20447         13.6605         1.91822 
         3.2202         13.5753         1.89612 
         3.2359         13.4768         1.87442 
        3.25157         13.3832          1.8531 
        3.26729         13.2849         1.83206 
        3.28304         13.1626         1.81131 
        3.29877         13.0154         1.79091 
        3.31446         12.9429         1.77088 
        3.33014         12.8288         1.75117 
        3.34585           12.76         1.73173 
        3.36158         12.6214         1.71257 
        3.37727         12.5316         1.69376 
        3.39294         12.4318         1.67525 
        3.40867         12.3189         1.65696 
        3.42439         12.2752         1.63895 
        3.44008         12.1069         1.62125 
        3.45578         12.0322          1.6038 
        3.47153         11.9042         1.58658 
        3.48724         11.8568         1.56964 
        3.50292         11.7327         1.55299 
        3.51859         11.6587         1.53659 
        3.53431         11.5335         1.52038 
        3.55007         11.4562         1.50437 
        3.56577         11.3304         1.48866 
        3.58146         11.2913         1.47317 
        3.59719         11.1996         1.45788 
        3.61292         11.1066         1.44281 
        3.62859         11.0354         1.42802 
        3.64429         10.9283          1.4134 
        3.66003         10.8513         1.39895 
        3.67578         10.7684         1.38471 
        3.69146         10.6949         1.37072 
        3.70712         10.6201         1.35696 
        3.72284         10.4869         1.34333 
        3.73853         10.4139         1.32992 
        3.75422         10.3345         1.31669 
        3.76993         10.2541         1.30363 
        3.78564          10.177         1.29075 
        3.80137         10.1104         1.27803 
        3.81707         10.0176         1.26551 
        3.83279         9.94712         1.25315 
        3.84853         9.88271         1.24094 
        3.86424         9.81427         1.22891 
        3.87992         9.73032         1.21707 
        3.89561          9.6299         1.20538 
        3.91134         9.55194         1.19382 
        3.92704         9.49487         1.18243 
        3.94273         9.39629         1.17121 
        3.95845         9.36552         1.16011 
        3.97418         9.28598         1.14915 
        3.98988         9.21456         1.13835 
        4.00554         9.13799         1.12772 
        4.02125         9.06687          1.1172 
        4.03698         9.01801          1.1068 
        4.05268         8.92695         1.09655 
        4.06839         8.85683         1.08643 
         4.0841         8.79016         1.07644 
        4.09983         8.70373         1.06657 
        4.11555         8.60676         1.05682 
        4.13124         8.57549         1.04722 
        4.14693         8.51838         1.03774 
        4.16266         8.44412         1.02836 
        4.17839          8.3801         1.01909 
        4.19408         8.33074         1.00997 
        4.20977          8.2668         1.00095 
        4.22551         8.21419        0.992021 
        4.24123         8.14221        0.983213 
        4.25691         8.09377        0.974537 
        4.27259         8.01355        0.965965 
        4.28831         7.95977        0.957479 
        4.30404         7.88372        0.949089 
        4.31974         7.83403        0.940819 
        4.33543         7.78645        0.932654 
        4.35116         7.71665        0.924567 
        4.36688         7.65754         0.91658 
        4.38255         7.59681        0.908718 
        4.39825         7.53512        0.900933 
        4.41398          7.4866        0.893225 
         4.4297          7.4346        0.885616 
        4.44541         7.37231        0.878098 
        4.46111         7.34314        0.870674 
        4.47683         7.25826        0.863332 
        4.49251         7.21093        0.856091 
        4.50819         7.17289        0.848935 
         4.5239         7.11659        0.841852 
        4.53962         7.05122        0.834842 
        4.55535         7.00865         0.82791 
        4.57106         6.94389        0.821067 
        4.58678         6.90303        0.814301 
         4.6025         6.86868        0.807611 
        4.61821         6.79432        0.800998 
        4.63391         6.73729        0.794468 
         4.6496         6.71142        0.788015 
        4.66532         6.65658        0.781624 
        4.68103         6.61266        0.775308 
        4.69673         6.58211        0.769069 
        4.71241         6.51448        0.762905 
        4.72811         6.49461          0.7568 
        4.74384         6.41042        0.750754 
        4.75955         6.38602        0.744785 
        4.77525         6.32365        0.738884 
        4.79096         6.28694        0.733041 
        4.80669         6.23889         0.72726 
         4.8224         6.19352        0.721547 
        4.83809         6.15194        0.715903 
        4.85379         6.10329        0.710317 
         4.8695         6.07152        0.704787 
        4.88521         6.03864        0.699318 
        4.90093          5.9796        0.693908 
        4.91663           5.943         0.68856 
        4.93234         5.89475        0.683264 
        4.94807         5.87113         0.67802 
        4.96377         5.81961        0.672842 
        4.97943         5.77735         0.66773 
        4.99514         5.74202        0.662658 
        5.01086          5.6888        0.657636 
        5.02654         5.65096        0.652679 
        5.04227         5.61977         0.64776 
          5.058         5.58628        0.642889 
        5.07371         5.53717        0.638079 
        5.08942          5.5009        0.633318 
        5.10513         5.45413        0.628605 
        5.12084         5.43004        0.623939 
        5.13656         5.40635        0.619322 
        5.15225         5.35137         0.61476 
        5.16796         5.32431        0.610237 
        5.18369         5.27134        0.605755 
         5.1994         5.24824        0.601328 
        5.21509         5.20207         0.59695 
        5.23079         5.16554         0.59261 
        5.24649          5.1407        0.588317 
        5.26217         5.09761        0.584071 
        5.27788         5.06144        0.579861 
        5.29359         5.03379        0.575692 
        5.30933         4.99832        0.571559 
        5.32504         4.97591        0.567473 
        5.34073         4.93191        0.563433 
        5.35646         4.89398        0.559424 
        5.37218         4.86925        0.555454 
        5.38789         4.83432        0.551529 
        5.40357         4.79502        0.547648 
        5.41929         4.75997        0.543795 
        5.43502         4.73757         0.53998 
         5.4507         4.71303        0.536211 
        5.46639         4.67365        0.532477 
        5.48212          4.6546        0.528771 
        5.49786         4.63462        0.525096 
        5.51353         4.58794        0.521475 
        5.52921         4.56793        0.517885 
        5.54495         4.52832        0.514318 
        5.56066         4.50169        0.510789 
        5.57637         4.46315        0.507295 
        5.59207         4.44465        0.503836 
        5.60778         4.41553        0.500409 
        5.62346         4.37876        0.497019 
        5.63916         4.36354        0.493657 
        5.65487          4.3333        0.490325 
         5.6706         4.29757        0.487021 
        5.68633         4.27484        0.483746 
        5.70203         4.24635        0.480508 
        5.71773         4.23413        0.477301 
        5.73344          4.1851        0.474121 
        5.74916         4.16369        0.470968 
        5.76486         4.14117        0.467849 
        5.78054         4.11516        0.464762 
        5.79626         4.08909        0.461696 
          5.812         4.06408        0.458654 
         5.8277         4.03814        0.455649 
        5.84339         4.01126        0.452671 
        5.85911         3.98173        0.449715 
        5.87484          3.9601        0.446785 
        5.89053         3.93964        0.443888 
        5.90623         3.91617        0.441016 
        5.92195         3.89477        0.438164 
        5.93767          3.8599        0.435339 
        5.95336         3.83832        0.432544 
        5.96905         3.81323        0.429776 
        5.98476         3.79835        0.427027 
        6.00048         3.77316        0.424303 
        6.01617         3.74358        0.421605 
        6.03185           3.724        0.418935 
        6.04756         3.69658        0.416282 
        6.06331         3.68025        0.413647 
        6.07903         3.65521         0.41104 
        6.09473         3.63854        0.408458 
        6.11044         3.61518        0.405897 
        6.12616         3.58879        0.403358 
        6.14186         3.56187        0.400843 
        6.15755         3.54751        0.398351 
        6.17326         3.52635        0.395878 
        6.18898         3.50413        0.393425 
        6.20467         3.48557        0.390997 
        6.22036         3.46668        0.388591 
         6.2361         3.44172        0.386198 
         6.2518         3.42149         0.38383 
        6.26748         3.40453        0.381487 
        6.28319         3.38553        0.379157 
        6.29893         3.36624        0.376845 
        6.31463         3.34372        0.374556 
        6.33033         3.32901        0.372288 
        6.34604         3.30322        0.370037 
        6.36177         3.28888        0.367802 
        6.37747         3.26924        0.365591 
