# k  (h/Mpc)    Pcb(k)  (Mpc/h)^3    Pcb_linear(k) (Mpc/h)^3   ShotnoiseSubtracted = true
      0.0200456         20643.4           21056 
      0.0350414         17635.3         17263.4 
      0.0492313         13125.4         13591.6 
      0.0637834         10942.5         11742.3 
      0.0800726         8806.01         9590.27 
       0.096163         7293.03         7288.33 
       0.111083         6157.52         6052.14 
       0.126058         5125.78         5431.39 
       0.142273         4520.77         4621.64 
       0.158546         3785.41          3753.4 
        0.17375         3457.39         3261.98 
       0.188953         3301.52         2975.53 
       0.204907         2869.02         2629.89 
       0.220756         2609.95         2260.23 
        0.23588         2356.85         2012.04 
         0.2514         2160.06         1845.55 
       0.267535         2082.59         1668.67 
       0.283568         1879.15         1484.28 
       0.299022         1807.84         1344.13 
       0.314451         1878.02         1240.24 
       0.330372          1702.3         1139.78 
       0.346141         1572.65         1039.71 
       0.361624         1510.11         955.056 
       0.377134         1454.71         886.403 
       0.392932         1398.86          823.27 
       0.408854         1340.26         761.934 
       0.424564         1318.12         707.268 
       0.440253         1244.03          660.37 
       0.455999         1192.71         618.061 
       0.471626         1203.33         578.525 
        0.48727         1152.31         542.121 
       0.502856         1113.77         509.634 
       0.518488         1077.72         480.073 
       0.534347         1036.37         452.213 
       0.550082         997.622         426.553 
       0.565732         982.167         403.194 
       0.581496         961.377         381.593 
       0.597222         948.329         361.592 
       0.612804         927.372         343.133 
       0.628434          892.84         325.942 
       0.644267         869.904         309.811 
       0.660051         860.051         294.846 
       0.675724          849.46         280.971 
       0.691403         818.423         267.993 
       0.707174         799.057         255.774 
       0.722871          787.35         244.378 
        0.73838         775.038          233.81 
       0.754018         762.508         223.797 
       0.769845         747.039         214.269 
        0.78569         730.105         205.297 
       0.801365         709.942         196.936 
       0.817031         701.484         189.055 
       0.832809         688.627         181.563 
       0.848511         675.832         174.519 
       0.864097         671.432         167.905 
       0.879701         668.188         161.634 
       0.895507         641.926         155.615 
       0.911279         638.144         149.921 
        0.92691         625.502         144.565 
       0.942635         620.621         139.446 
       0.958396         605.372         134.569 
       0.974128         595.666         129.938 
       0.989692         578.691         125.575 
        1.00528         577.866          121.41 
        1.02113         562.997         117.372 
        1.03692         553.812         113.536 
        1.05264         547.128         109.893 
        1.06832           537.2         106.418 
        1.08405         532.813         103.086 
        1.09979         521.301         99.8985 
        1.11537         510.106         96.8794 
        1.13105         502.171         93.9694 
        1.14679         494.028         91.1698 
        1.16256          490.05         88.4809 
        1.17828         482.058         85.9112 
        1.19395         474.409         83.4541 
         1.2097         468.582         81.0823 
        1.22537         457.795         78.8158 
          1.241         452.582         76.6443 
        1.25666         445.781         74.5507 
        1.27241         439.042         72.5268 
        1.28819          430.47         70.5759 
        1.30392         429.387         68.7038 
        1.31957         418.895         66.9091 
        1.33529         415.678         65.1731 
        1.35108         410.904         63.4928 
        1.36674         401.193         61.8848 
         1.3824         394.888          60.335 
        1.39811         390.929          58.834 
        1.41389         384.479         57.3792 
        1.42964         378.635         55.9769 
        1.44531         372.455         54.6291 
        1.46101         364.726         53.3235 
        1.47667         363.874         52.0653 
        1.49229         355.936         50.8517 
        1.50793         351.206          49.676 
        1.52367         343.873         48.5306 
        1.53953         339.894         47.4142 
        1.55526         335.666         46.3424 
        1.57092         328.867         45.3088 
        1.58662         324.953         44.3047 
        1.60235         320.207         43.3296 
        1.61809         316.868         42.3838 
        1.63369         313.265         41.4752 
        1.64941         307.156         40.5871 
        1.66519         303.053         39.7222 
        1.68085         297.488         38.8891 
        1.69652         294.191           38.08 
        1.71228         289.081         37.2897 
        1.72806         285.597         36.5216 
        1.74368         283.207         35.7832 
        1.75933         279.072          35.064 
        1.77505         274.511         34.3616 
        1.79081         271.591         33.6774 
         1.8065         268.212         33.0151 
        1.82218         262.029         32.3715 
        1.83797         258.997         31.7409 
        1.85367           254.7         31.1308 
        1.86928         251.074         30.5407 
        1.88497         247.781         29.9629 
        1.90073         245.935         29.3982 
        1.91647         242.066         28.8487 
        1.93218         238.818         28.3147 
        1.94787         233.444         27.7951 
        1.96363         231.822         27.2868 
        1.97935         228.529         26.7924 
        1.99499         226.017         26.3132 
        2.01064         220.966         25.8452 
         2.0264          219.36         25.3859 
        2.04216         217.113         24.9381 
        2.05781         213.769         24.5041 
        2.07353          213.15          24.079 
        2.08928         209.517         23.6633 
        2.10499         206.532         23.2586 
        2.12065         203.027         22.8647 
        2.13633         200.346         22.4798 
        2.15211         198.481         22.1014 
        2.16785         195.661         21.7328 
        2.18349         193.491         21.3751 
        2.19916         190.711         21.0249 
        2.21489         188.997         20.6814 
        2.23063         186.831         20.3455 
         2.2463          183.53         20.0186 
        2.26194          180.73         19.6999 
        2.27765         178.113         19.3866 
        2.29341         176.838         19.0793 
        2.30914         175.046         18.7795 
        2.32486         172.759         18.4864 
        2.34061         169.736         18.1991 
        2.35635         168.544         17.9183 
        2.37203         166.268         17.6444 
        2.38768         164.801         17.3769 
        2.40339         161.269         17.1141 
        2.41914          159.79         16.8562 
        2.43483         158.303         16.6046 
         2.4505         156.713         16.3586 
        2.46622         154.339         16.1169 
        2.48195         153.092           15.88 
        2.49759         150.594         15.6493 
        2.51328         149.179         15.4226 
        2.52906         147.386          15.199 
        2.54479          145.52         14.9808 
        2.56049         144.102         14.7673 
        2.57618         142.395         14.5582 
        2.59189         140.731         14.3529 
        2.60758         138.885          14.152 
        2.62325         137.331         13.9552 
        2.63898         135.647         13.7615 
        2.65468         134.084          13.572 
        2.67044         132.936         13.3852 
        2.68618         130.805         13.2025 
        2.70184         129.544         13.0239 
        2.71755         127.735         12.8482 
        2.73329         125.913         12.6756 
        2.74897         125.107         12.5067 
        2.76462          123.85         12.3414 
        2.78034         122.398         12.1783 
        2.79607         120.919         12.0181 
        2.81179         119.587          11.861 
        2.82749         118.154         11.7069 
        2.84321          116.96         11.5554 
        2.85893         115.395         11.4067 
        2.87462         114.207         11.2609 
        2.89033         113.197         11.1176 
        2.90605         111.693         10.9766 
        2.92176         110.242         10.8382 
        2.93747         109.495         10.7023 
        2.95318         108.376         10.5687 
        2.96891         107.056         10.4374 
        2.98456         106.084         10.3089 
        3.00023         104.642         10.1824 
        3.01596         103.872         10.0577 
        3.03164         102.797         9.93543 
        3.04738          101.37         9.81488 
         3.0631         100.523         9.69639 
        3.07883         99.2271         9.57989 
        3.09456         98.3842         9.46534 
        3.11026         96.8878         9.35287 
        3.12596         96.2069         9.24226 
        3.14163         95.5095         9.13373 
        3.15734         94.1404          9.0267 
        3.17308         93.5626         8.92115 
        3.18879         92.5416         8.81761 
        3.20447         91.5475         8.71588 
         3.2202         90.5899         8.61546 
         3.2359         89.6282         8.51682 
        3.25157         88.8644         8.41998 
        3.26729         87.5897         8.32437 
        3.28304         87.0596         8.23009 
        3.29877         86.1109          8.1374 
        3.31446         85.2186         8.04636 
        3.33014          84.473         7.95682 
        3.34585          83.523         7.86852 
        3.36158         82.4836         7.78144 
        3.37727         81.9031         7.69597 
        3.39294         81.0277         7.61188 
        3.40867         80.0687         7.52876 
        3.42439         79.6358         7.44695 
        3.44008         78.3909         7.36652 
        3.45578         78.0617         7.28724 
        3.47153         76.9922         7.20897 
        3.48724          76.497         7.13199 
        3.50292         75.8351         7.05634 
        3.51859         74.9701         6.98184 
        3.53431         74.3431         6.90819 
        3.55007         73.5825         6.83544 
        3.56577         72.9316         6.76403 
        3.58146         72.2643         6.69369 
        3.59719         71.4325         6.62421 
        3.61292         70.8455         6.55574 
        3.62859          70.046         6.48851 
        3.64429         69.6127         6.42211 
        3.66003         68.8624         6.35645 
        3.67578         68.3414         6.29174 
        3.69146         67.5006         6.22819 
        3.70712         66.8931         6.16564 
        3.72284         66.4524         6.10373 
        3.73853          65.575         6.04279 
        3.75422         65.0144         5.98267 
        3.76993         64.2525         5.92333 
        3.78564         63.8473         5.86482 
        3.80137         63.2018         5.80702 
        3.81707         62.7083         5.75013 
        3.83279         62.0269         5.69397 
        3.84853         61.6958         5.63848 
        3.86424         60.9899         5.58384 
        3.87992         60.4577         5.53002 
        3.89561         59.9209         5.47691 
        3.91134         59.3181          5.4244 
        3.92704         58.7938         5.37265 
        3.94273         58.2299         5.32164 
        3.95845          57.794          5.2712 
        3.97418         57.3138         5.22141 
        3.98988         56.6295         5.17234 
        4.00554         56.0358         5.12405 
        4.02125         55.6906         5.07624 
        4.03698         55.1426         5.02897 
        4.05268         54.6947         4.98242 
        4.06839         54.1335         4.93643 
         4.0841         53.8051         4.89105 
        4.09983         53.3491         4.84618 
        4.11555         52.9028          4.8019 
        4.13124         52.3259          4.7583 
        4.14693         51.8943         4.71521 
        4.16266         51.4502         4.67256 
        4.17839         50.9504         4.63047 
        4.19408         50.4554           4.589 
        4.20977         50.0733         4.54803 
        4.22551         49.6748         4.50746 
        4.24123         49.2778         4.46744 
        4.25691         48.7626         4.42802 
        4.27259         48.4894         4.38907 
        4.28831         48.0826         4.35052 
        4.30404         47.5533          4.3124 
        4.31974            47.2         4.27482 
        4.33543         46.7901         4.23772 
        4.35116         46.2611         4.20097 
        4.36688         46.0876         4.16468 
        4.38255         45.6407         4.12896 
        4.39825         45.1558         4.09359 
        4.41398         44.7937         4.05856 
         4.4297          44.444         4.02399 
        4.44541         44.0729         3.98983 
        4.46111         43.7552          3.9561 
        4.47683         43.3947         3.92274 
        4.49251         43.1286         3.88984 
        4.50819         42.6132         3.85732 
         4.5239         42.2941         3.82514 
        4.53962         42.0091         3.79329 
        4.55535         41.6058         3.76179 
        4.57106          41.315          3.7307 
        4.58678         40.9077         3.69996 
         4.6025         40.5775         3.66956 
        4.61821          40.216         3.63951 
        4.63391         39.7589         3.60984 
         4.6496         39.6365         3.58052 
        4.66532          39.325         3.55148 
        4.68103         39.0222         3.52278 
        4.69673         38.5938         3.49443 
        4.71241          38.281         3.46643 
        4.72811         38.1024         3.43869 
        4.74384         37.7249         3.41122 
        4.75955         37.4586         3.38409 
        4.77525         37.1191         3.35728 
        4.79096         36.8032         3.33073 
        4.80669         36.4523         3.30446 
         4.8224         36.2401         3.27851 
        4.83809         35.9633         3.25287 
        4.85379         35.6128         3.22748 
         4.8695         35.3829         3.20235 
        4.88521         35.1504         3.17751 
        4.90093         34.8072         3.15292 
        4.91663         34.5568         3.12862 
        4.93234         34.3205         3.10456 
        4.94807         34.0198         3.08073 
        4.96377         33.7698         3.05721 
        4.97943         33.5244         3.03398 
        4.99514         33.2361         3.01093 
        5.01086         33.0013         2.98811 
        5.02654         32.7912         2.96559 
        5.04227         32.5221         2.94324 
          5.058         32.2279         2.92111 
        5.07371         32.0042         2.89925 
        5.08942         31.6939         2.87762 
        5.10513         31.4932         2.85621 
        5.12084         31.2267           2.835 
        5.13656         31.0943         2.81403 
        5.15225         30.8132          2.7933 
        5.16796         30.5337         2.77274 
        5.18369         30.2988         2.75238 
         5.1994         30.0185         2.73227 
        5.21509         29.8619         2.71237 
        5.23079         29.6341         2.69265 
        5.24649          29.478         2.67315 
        5.26217         29.2168         2.65385 
        5.27788          28.954         2.63473 
        5.29359         28.7646         2.61578 
        5.30933         28.5213           2.597 
        5.32504         28.3553         2.57844 
        5.34073         28.1317         2.56008 
        5.35646         27.9382         2.54187 
        5.37218         27.7248         2.52383 
        5.38789          27.535           2.506 
        5.40357         27.2844         2.48836 
        5.41929         27.0774         2.47085 
        5.43502         26.9431         2.45352 
         5.4507         26.7106         2.43639 
        5.46639         26.5345         2.41943 
        5.48212         26.3702         2.40259 
        5.49786         26.1462         2.38589 
        5.51353         25.9025         2.36944 
        5.52921         25.7482         2.35312 
        5.54495         25.5543         2.33692 
        5.56066         25.3164         2.32088 
        5.57637         25.1452           2.305 
        5.59207         25.0186         2.28929 
        5.60778         24.8513         2.27372 
        5.62346         24.6538         2.25831 
        5.63916         24.4991         2.24304 
        5.65487         24.3096          2.2279 
         5.6706         24.1273         2.21289 
        5.68633         23.9292           2.198 
        5.70203         23.7617         2.18329 
        5.71773         23.5807         2.16872 
        5.73344         23.4344         2.15427 
        5.74916         23.2403         2.13995 
        5.76486         23.0794         2.12577 
        5.78054         22.9222         2.11175 
        5.79626         22.7974         2.09782 
          5.812         22.5945           2.084 
         5.8277         22.4721         2.07034 
        5.84339         22.2786         2.05681 
        5.85911         22.1272         2.04338 
        5.87484         21.9671         2.03007 
        5.89053         21.8265          2.0169 
        5.90623         21.6687         2.00385 
        5.92195          21.506         1.99089 
        5.93767         21.3551         1.97806 
        5.95336         21.2354         1.96536 
        5.96905         21.0254         1.95278 
        5.98476         20.9054         1.94029 
        6.00048         20.7498         1.92791 
        6.01617         20.6081         1.91566 
        6.03185         20.4421         1.90353 
        6.04756         20.2934         1.89147 
        6.06331         20.1936          1.8795 
        6.07903         20.1035         1.86765 
        6.09473         19.9225         1.85592 
        6.11044         19.7824         1.84428 
        6.12616         19.6638         1.83274 
        6.14186         19.5581         1.82132 
        6.15755          19.425         1.80999 
        6.17326          19.278         1.79876 
        6.18898         19.1397         1.78761 
        6.20467         18.9979         1.77658 
        6.22036         18.8841         1.76565 
         6.2361         18.7759         1.75478 
         6.2518          18.654         1.74401 
        6.26748         18.4916         1.73337 
        6.28319         18.3694         1.72278 
        6.29893         18.2527         1.71228 
        6.31463         18.1191         1.70188 
        6.33033         18.0117         1.69157 
        6.34604         17.8995         1.68134 
        6.36177         17.7632         1.67119 
        6.37747         17.6556         1.66114 
