# k  (h/Mpc)    Pcb(k)  (Mpc/h)^3    Pcb_linear(k) (Mpc/h)^3   ShotnoiseSubtracted = true
      0.0200456         16214.4         16639.9 
      0.0350414         13006.8         13642.7 
      0.0492313         10448.4           10741 
      0.0637834         9305.34         9279.54 
      0.0800726         7524.11         7578.89 
       0.096163          5439.1         5759.74 
       0.111083         4478.28         4782.82 
       0.126058         4183.19         4292.26 
       0.142273         3616.54         3652.34 
       0.158546         3198.81         2966.19 
        0.17375         2611.73         2577.84 
       0.188953         2559.76         2351.47 
       0.204907         2419.81         2078.32 
       0.220756         2115.14         1786.19 
        0.23588         1888.31         1590.05 
         0.2514         1660.79         1458.48 
       0.267535         1669.78         1318.69 
       0.283568         1522.83         1172.98 
       0.299022         1438.36         1062.22 
       0.314451         1379.14          980.12 
       0.330372         1274.32         900.732 
       0.346141          1218.3         821.648 
       0.361624         1170.18         754.751 
       0.377134         1092.48         700.497 
       0.392932         1061.03         650.605 
       0.408854          1034.2         602.133 
       0.424564         968.552         558.932 
       0.440253         949.912          521.87 
       0.455999         918.258         488.434 
       0.471626         876.843         457.191 
        0.48727         851.499         428.421 
       0.502856         828.227         402.748 
       0.518488         819.058         379.387 
       0.534347         770.187          357.37 
       0.550082         748.254         337.092 
       0.565732         749.265         318.632 
       0.581496         710.548         301.561 
       0.597222         698.818         285.755 
       0.612804         682.587         271.168 
       0.628434         664.205         257.582 
       0.644267         646.796         244.834 
       0.660051         626.672         233.008 
       0.675724         624.598         222.043 
       0.691403          603.98         211.786 
       0.707174         586.304          202.13 
       0.722871         579.419         193.125 
        0.73838         570.317         184.773 
       0.754018         555.538          176.86 
       0.769845         544.154          169.33 
        0.78569          536.27          162.24 
       0.801365         522.347         155.632 
       0.817031         509.128         149.404 
       0.832809         504.702         143.484 
       0.848511         492.634         137.917 
       0.864097         481.089          132.69 
       0.879701         474.229         127.734 
       0.895507         470.901         122.978 
       0.911279         456.509         118.478 
        0.92691         448.915         114.245 
       0.942635         440.625           110.2 
       0.958396         428.817         106.345 
       0.974128         422.814         102.686 
       0.989692         417.575         99.2383 
        1.00528          410.35         95.9469 
        1.02113          406.83         92.7557 
        1.03692         395.643         89.7243 
        1.05264          390.94         86.8449 
        1.06832         382.797         84.0986 
        1.08405           376.6         81.4661 
        1.09979         370.993         78.9467 
        1.11537         362.579         76.5608 
        1.13105         356.181         74.2611 
        1.14679         353.325         72.0487 
        1.16256         341.824         69.9237 
        1.17828         341.364          67.893 
        1.19395         334.674         65.9512 
         1.2097         330.256         64.0768 
        1.22537         321.426         62.2857 
          1.241         320.666         60.5696 
        1.25666         313.397         58.9151 
        1.27241         309.179         57.3157 
        1.28819         304.152          55.774 
        1.30392         297.013         54.2945 
        1.31957         296.824         52.8762 
        1.33529         290.912         51.5043 
        1.35108          285.29         50.1764 
        1.36674         281.704         48.9057 
         1.3824         278.791         47.6809 
        1.39811         275.356         46.4947 
        1.41389         271.693          45.345 
        1.42964         267.835         44.2368 
        1.44531         262.984         43.1717 
        1.46101         260.488         42.1399 
        1.47667         255.378         41.1456 
        1.49229         252.344         40.1865 
        1.50793         248.206         39.2574 
        1.52367         244.128         38.3522 
        1.53953         240.659           37.47 
        1.55526         235.568          36.623 
        1.57092         234.554         35.8061 
        1.58662         230.848         35.0126 
        1.60235         227.174          34.242 
        1.61809         224.524         33.4946 
        1.63369         220.999         32.7765 
        1.64941         217.329         32.0747 
        1.66519         215.225         31.3912 
        1.68085          213.11         30.7329 
        1.69652         208.148         30.0935 
        1.71228         205.407         29.4689 
        1.72806         202.514         28.8619 
        1.74368         199.988         28.2784 
        1.75933         197.276           27.71 
        1.77505          195.05         27.1549 
        1.79081         192.934         26.6142 
         1.8065         189.713         26.0908 
        1.82218          187.14         25.5822 
        1.83797         185.641         25.0838 
        1.85367         182.046         24.6017 
        1.86928         179.778         24.1354 
        1.88497         177.102         23.6788 
        1.90073         175.553         23.2325 
        1.91647         174.137         22.7982 
        1.93218         171.317         22.3762 
        1.94787         168.563         21.9656 
        1.96363         165.401         21.5639 
        1.97935         164.819         21.1732 
        1.99499         161.773         20.7945 
        2.01064         160.377         20.4247 
         2.0264         158.119         20.0617 
        2.04216         155.844         19.7078 
        2.05781         154.087         19.3648 
        2.07353         151.975         19.0289 
        2.08928         149.506         18.7004 
        2.10499         147.033         18.3805 
        2.12065         146.035         18.0693 
        2.13633         145.125         17.7651 
        2.15211         141.805          17.466 
        2.16785         139.808         17.1748 
        2.18349         138.856         16.8921 
        2.19916         136.579         16.6153 
        2.21489          135.58         16.3439 
        2.23063         133.266         16.0784 
         2.2463         131.183         15.8201 
        2.26194         129.809         15.5682 
        2.27765          128.66         15.3206 
        2.29341         126.722         15.0778 
        2.30914         125.578         14.8409 
        2.32486         123.989         14.6092 
        2.34061         122.071         14.3822 
        2.35635         120.799         14.1602 
        2.37203         119.499         13.9438 
        2.38768         117.639         13.7325 
        2.40339         116.762         13.5248 
        2.41914         115.384         13.3209 
        2.43483         113.728         13.1221 
         2.4505         112.787         12.9277 
        2.46622         110.816         12.7366 
        2.48195         109.785         12.5495 
        2.49759         108.703         12.3671 
        2.51328         107.306          12.188 
        2.52906         105.655         12.0113 
        2.54479         104.763         11.8388 
        2.56049         103.532         11.6701 
        2.57618         101.938         11.5049 
        2.59189         101.199         11.3427 
        2.60758         100.113         11.1839 
        2.62325         98.7262         11.0284 
        2.63898         97.2247         10.8753 
        2.65468         96.5456         10.7255 
        2.67044          95.158         10.5779 
        2.68618         93.8943         10.4335 
        2.70184         93.5485         10.2924 
        2.71755           92.29         10.1536 
        2.73329         90.9256         10.0171 
        2.74897         90.2317         9.88368 
        2.76462         89.0148         9.75299 
        2.78034         88.2079         9.62415 
        2.79607         86.9888         9.49755 
        2.81179          85.983         9.37339 
        2.82749          85.017         9.25162 
        2.84321         84.3023         9.13191 
        2.85893         83.1163         9.01439 
        2.87462         82.2236         8.89916 
        2.89033         81.3831         8.78587 
        2.90605         80.0488         8.67447 
        2.92176           79.75          8.5651 
        2.93747         78.9876         8.45769 
        2.95318         77.5949         8.35212 
        2.96891         76.9859         8.24833 
        2.98456         76.0401         8.14679 
        3.00023         75.3715         8.04684 
        3.01596         74.6472         7.94827 
        3.03164         73.6154         7.85166 
        3.04738         72.9191         7.75639 
         3.0631         72.3703         7.66276 
        3.07883         71.4369         7.57069 
        3.09456           70.87         7.48017 
        3.11026         69.9696         7.39129 
        3.12596         69.4225         7.30388 
        3.14163         68.2019          7.2181 
        3.15734         67.7593         7.13352 
        3.17308         67.0703         7.05011 
        3.18879         66.3061         6.96828 
        3.20447         65.4622         6.88789 
         3.2202         65.1336         6.80853 
         3.2359         64.1728         6.73058 
        3.25157         63.7032         6.65405 
        3.26729         63.0829          6.5785 
        3.28304         62.4072         6.50398 
        3.29877         61.6684         6.43074 
        3.31446         61.0394         6.35879 
        3.33014         60.5375         6.28803 
        3.34585         59.7494         6.21824 
        3.36158         59.4133         6.14943 
        3.37727         58.8194         6.08189 
        3.39294         58.1045         6.01544 
        3.40867         57.5909         5.94975 
        3.42439         57.2274         5.88509 
        3.44008         56.4013         5.82153 
        3.45578          55.802         5.75888 
        3.47153         55.2996         5.69702 
        3.48724         54.8242         5.63619 
        3.50292          54.317         5.57641 
        3.51859         53.9388         5.51753 
        3.53431         53.2214         5.45933 
        3.55007         52.8161         5.40184 
        3.56577         52.4288         5.34541 
        3.58146         51.6961         5.28982 
        3.59719         50.9609         5.23491 
        3.61292         50.6412          5.1808 
        3.62859         50.1504         5.12767 
        3.64429         49.6621          5.0752 
        3.66003         49.2514         5.02331 
        3.67578         48.6648         4.97217 
        3.69146         48.2163         4.92195 
        3.70712         47.9196         4.87252 
        3.72284         47.4814         4.82359 
        3.73853         46.9281         4.77543 
        3.75422         46.3648         4.72792 
        3.76993         46.0707         4.68102 
        3.78564         45.6933         4.63479 
        3.80137         45.2848         4.58911 
        3.81707         44.7887         4.54415 
        3.83279         44.4831         4.49977 
        3.84853          43.895         4.45591 
        3.86424         43.6122         4.41274 
        3.87992         43.2044          4.3702 
        3.89561         42.8648         4.32823 
        3.91134         42.3642         4.28674 
        3.92704         42.0389         4.24584 
        3.94273         41.6537         4.20552 
        3.95845         41.2781         4.16566 
        3.97418         40.9152         4.12632 
        3.98988         40.5719         4.08754 
        4.00554         40.0938         4.04938 
        4.02125         39.7791         4.01159 
        4.03698         39.6112         3.97424 
        4.05268         39.3221         3.93745 
        4.06839          38.869         3.90111 
         4.0841         38.4849         3.86525 
        4.09983         38.1293         3.82979 
        4.11555         37.7909         3.79479 
        4.13124         37.4087         3.76033 
        4.14693         37.1517         3.72628 
        4.16266         36.7241         3.69258 
        4.17839         36.4879         3.65932 
        4.19408         36.1684         3.62655 
        4.20977         35.8531         3.59417 
        4.22551         35.5091         3.56211 
        4.24123         35.2033         3.53048 
        4.25691          34.852         3.49933 
        4.27259         34.5848         3.46855 
        4.28831         34.3291         3.43808 
        4.30404         33.9646         3.40795 
        4.31974         33.7125         3.37826 
        4.33543         33.4506         3.34894 
        4.35116          33.117          3.3199 
        4.36688         32.8644         3.29122 
        4.38255          32.647         3.26299 
        4.39825         32.3137         3.23504 
        4.41398         32.0345         3.20736 
         4.4297         31.8577         3.18003 
        4.44541          31.476         3.15304 
        4.46111         31.2686         3.12638 
        4.47683         31.0409         3.10002 
        4.49251         30.7729         3.07402 
        4.50819         30.4886         3.04832 
         4.5239         30.2155         3.02289 
        4.53962         29.9329         2.99772 
        4.55535         29.7714         2.97283 
        4.57106         29.5134         2.94826 
        4.58678         29.2927         2.92396 
         4.6025         29.1151         2.89994 
        4.61821         28.8461         2.87619 
        4.63391         28.5095         2.85275 
         4.6496         28.2739         2.82957 
        4.66532         28.0534         2.80663 
        4.68103         27.8715         2.78395 
        4.69673         27.6269         2.76154 
        4.71241         27.4086         2.73941 
        4.72811         27.2031         2.71749 
        4.74384          26.977         2.69578 
        4.75955         26.7762         2.67434 
        4.77525         26.5301         2.65316 
        4.79096         26.3516         2.63218 
        4.80669         26.1863         2.61142 
         4.8224          25.908          2.5909 
        4.83809         25.7178         2.57064 
        4.85379          25.463         2.55058 
         4.8695         25.3197         2.53072 
        4.88521         25.1086         2.51109 
        4.90093         24.9499         2.49166 
        4.91663         24.7635         2.47246 
        4.93234          24.533         2.45344 
        4.94807         24.3367         2.43461 
        4.96377         24.1406         2.41602 
        4.97943         23.9765         2.39766 
        4.99514         23.7232         2.37945 
        5.01086         23.6552         2.36141 
        5.02654         23.3619         2.34362 
        5.04227         23.2388         2.32595 
          5.058         23.0933         2.30846 
        5.07371         22.8982         2.29119 
        5.08942         22.6927         2.27409 
        5.10513         22.5344         2.25717 
        5.12084         22.3365         2.24042 
        5.13656         22.1975         2.22384 
        5.15225         22.0285         2.20746 
        5.16796         21.8934         2.19121 
        5.18369         21.7538         2.17512 
         5.1994         21.5368         2.15923 
        5.21509         21.3648          2.1435 
        5.23079         21.1807         2.12792 
        5.24649         21.0828         2.11251 
        5.26217          20.883         2.09726 
        5.27788         20.7376         2.08214 
        5.29359         20.5936         2.06717 
        5.30933         20.4027         2.05233 
        5.32504         20.2586         2.03766 
        5.34073         20.1242         2.02315 
        5.35646         19.9967         2.00876 
        5.37218          19.853          1.9945 
        5.38789         19.6699         1.98041 
        5.40357         19.5606         1.96647 
        5.41929          19.392         1.95264 
        5.43502         19.2768         1.93894 
         5.4507         19.1081          1.9254 
        5.46639         18.9464           1.912 
        5.48212          18.803         1.89869 
        5.49786         18.6977          1.8855 
        5.51353          18.524         1.87249 
        5.52921         18.4639          1.8596 
        5.54495         18.2836         1.84679 
        5.56066         18.1792         1.83412 
        5.57637         18.0404         1.82157 
        5.59207         17.8721         1.80916 
        5.60778         17.7771         1.79685 
        5.62346         17.6569         1.78468 
        5.63916         17.5002          1.7726 
        5.65487         17.4041         1.76064 
         5.6706          17.284         1.74877 
        5.68633         17.1809         1.73701 
        5.70203         17.0472         1.72539 
        5.71773         16.9159         1.71387 
        5.73344         16.7701         1.70246 
        5.74916          16.675         1.69113 
        5.76486         16.5182         1.67993 
        5.78054         16.4404         1.66885 
        5.79626         16.3368         1.65784 
          5.812         16.2151         1.64692 
         5.8277         16.0816         1.63613 
        5.84339         15.9692         1.62543 
        5.85911         15.8912         1.61482 
        5.87484         15.7461          1.6043 
        5.89053         15.6217          1.5939 
        5.90623         15.5201         1.58358 
        5.92195         15.4404         1.57334 
        5.93767         15.3119          1.5632 
        5.95336         15.1982         1.55316 
        5.96905         15.1086         1.54322 
        5.98476         15.0055         1.53335 
        6.00048         14.8984         1.52357 
        6.01617         14.7735         1.51388 
        6.03185         14.6998          1.5043 
        6.04756         14.5781         1.49477 
        6.06331         14.4932         1.48531 
        6.07903         14.3812         1.47595 
        6.09473         14.2766         1.46668 
        6.11044          14.187         1.45748 
        6.12616         14.0818         1.44836 
        6.14186         14.0226         1.43933 
        6.15755         13.9002         1.43038 
        6.17326         13.8158          1.4215 
        6.18898         13.7319         1.41269 
        6.20467         13.6073         1.40398 
        6.22036         13.5464         1.39534 
         6.2361         13.4339         1.38674 
         6.2518         13.3395         1.37824 
        6.26748         13.2816         1.36983 
        6.28319         13.1826         1.36146 
        6.29893         13.0722         1.35316 
        6.31463         12.9878         1.34494 
        6.33033         12.9178          1.3368 
        6.34604          12.824         1.32871 
        6.36177         12.7608         1.32069 
        6.37747         12.6715         1.31275 
