# k  (h/Mpc)    Pcb(k)  (Mpc/h)^3    Pcb_linear(k) (Mpc/h)^3   ShotnoiseSubtracted = true
      0.0200456         9822.52         10042.4 
      0.0350414         7953.17         8233.56 
      0.0492313         6380.07         6482.36 
      0.0637834         5644.49         5600.33 
      0.0800726         4579.78         4573.97 
       0.096163         3342.18         3476.09 
       0.111083         2741.06          2886.5 
       0.126058         2559.84         2590.44 
       0.142273         2211.37         2204.24 
       0.158546         1893.21         1790.14 
        0.17375         1557.14         1555.76 
       0.188953         1509.98         1419.14 
       0.204907         1425.75         1254.29 
       0.220756         1227.42         1077.99 
        0.23588         1091.36         959.617 
         0.2514          962.93         880.212 
       0.267535         945.016         795.851 
       0.283568         863.633         707.911 
       0.299022         808.809         641.065 
       0.314451         766.458         591.516 
       0.330372         710.506         543.604 
       0.346141         654.743         495.876 
       0.361624         627.734         455.503 
       0.377134         588.988          422.76 
       0.392932         564.232         392.649 
       0.408854         543.778         363.396 
       0.424564         518.829         337.323 
       0.440253         503.052         314.956 
       0.455999         476.495         294.777 
       0.471626         444.267         275.921 
        0.48727         436.792         258.558 
       0.502856         423.186         243.064 
       0.518488         418.792         228.965 
       0.534347         393.739         215.678 
       0.550082         373.308         203.439 
       0.565732         371.953         192.299 
       0.581496          353.12         181.996 
       0.597222          346.21         172.457 
       0.612804         333.759         163.653 
       0.628434         323.215         155.454 
       0.644267         313.184         147.761 
       0.660051         308.785         140.623 
       0.675724         304.777         134.006 
       0.691403         296.208         127.816 
       0.707174         284.029         121.989 
       0.722871         281.559         116.553 
        0.73838         276.582         111.513 
       0.754018         268.425         106.737 
       0.769845         260.611         102.193 
        0.78569          259.17          97.914 
       0.801365         252.329         93.9262 
       0.817031         245.031         90.1674 
       0.832809         240.676         86.5944 
       0.848511           235.8         83.2349 
       0.864097         232.322         80.0803 
       0.879701          227.52         77.0893 
       0.895507         221.801         74.2187 
       0.911279         217.594         71.5031 
        0.92691         215.431         68.9486 
       0.942635         212.319         66.5071 
       0.958396         210.907         64.1809 
       0.974128         204.842         61.9724 
       0.989692         200.131         59.8917 
        1.00528         196.897         57.9053 
        1.02113         195.967         55.9794 
        1.03692         189.002         54.1499 
        1.05264         186.637         52.4121 
        1.06832         183.395         50.7547 
        1.08405         180.672         49.1659 
        1.09979         179.731         47.6454 
        1.11537         173.891         46.2055 
        1.13105         173.425         44.8176 
        1.14679         171.966         43.4824 
        1.16256         169.019         42.1999 
        1.17828         165.129         40.9743 
        1.19395         163.817         39.8025 
         1.2097         160.923         38.6713 
        1.22537         159.101         37.5903 
          1.241         156.273         36.5546 
        1.25666         153.547         35.5561 
        1.27241         151.816         34.5908 
        1.28819         149.929         33.6604 
        1.30392         148.307         32.7675 
        1.31957          145.79         31.9115 
        1.33529         143.213         31.0835 
        1.35108         141.483         30.2822 
        1.36674          140.12         29.5153 
         1.3824         137.417         28.7761 
        1.39811         136.357         28.0602 
        1.41389          133.99         27.3663 
        1.42964         132.387         26.6975 
        1.44531         129.017         26.0547 
        1.46101          128.31          25.432 
        1.47667         126.631         24.8319 
        1.49229         124.785         24.2531 
        1.50793          123.55         23.6924 
        1.52367         122.519         23.1461 
        1.53953         120.156         22.6137 
        1.55526         118.461         22.1025 
        1.57092         117.483         21.6095 
        1.58662         115.687         21.1306 
        1.60235         114.552         20.6655 
        1.61809         112.838         20.2145 
        1.63369         111.202         19.7811 
        1.64941         110.158         19.3575 
        1.66519         108.396          18.945 
        1.68085         107.053         18.5477 
        1.69652         104.787         18.1618 
        1.71228         104.501         17.7849 
        1.72806         102.762         17.4186 
        1.74368         102.008         17.0664 
        1.75933         100.732         16.7234 
        1.77505         99.2895         16.3884 
        1.79081         97.9933         16.0621 
         1.8065         97.1381         15.7462 
        1.82218         94.9749         15.4392 
        1.83797         94.7272         15.1385 
        1.85367         93.1421         14.8475 
        1.86928         92.6291          14.566 
        1.88497         90.8871         14.2905 
        1.90073         89.9209         14.0211 
        1.91647         88.8813         13.7591 
        1.93218         87.9227         13.5043 
        1.94787         86.6068         13.2566 
        1.96363         85.2272         13.0141 
        1.97935          84.695         12.7783 
        1.99499          83.584         12.5498 
        2.01064         82.6323         12.3266 
         2.0264          81.127         12.1075 
        2.04216         80.2894         11.8939 
        2.05781         79.4756         11.6869 
        2.07353         78.4969         11.4842 
        2.08928         77.3137         11.2859 
        2.10499         76.8374         11.0929 
        2.12065         75.8659         10.9051 
        2.13633         75.1573         10.7215 
        2.15211         74.4116          10.541 
        2.16785         73.1567         10.3652 
        2.18349         72.5337         10.1946 
        2.19916         71.6961         10.0276 
        2.21489         71.3082         9.86375 
        2.23063         70.0245         9.70354 
         2.2463         69.3699         9.54766 
        2.26194         68.2429         9.39564 
        2.27765          67.627          9.2462 
        2.29341         66.8933         9.09967 
        2.30914         66.0004         8.95666 
        2.32486         65.0103         8.81686 
        2.34061         64.4928         8.67984 
        2.35635         63.8933         8.54591 
        2.37203         62.8573          8.4153 
        2.38768         62.2115         8.28773 
        2.40339         61.6742         8.16239 
        2.41914         61.2833         8.03938 
        2.43483         60.5852         7.91937 
         2.4505         59.6953         7.80206 
        2.46622          59.133         7.68675 
        2.48195         58.5197         7.57379 
        2.49759         57.7496         7.46374 
        2.51328         57.0421         7.35563 
        2.52906         56.6203           7.249 
        2.54479         56.0227         7.14491 
        2.56049         55.2367         7.04309 
        2.57618         54.4982         6.94338 
        2.59189         54.0218         6.84547 
        2.60758         53.5468         6.74964 
        2.62325          52.973         6.65577 
        2.63898         52.4561          6.5634 
        2.65468          51.626         6.47299 
        2.67044         51.2632         6.38392 
        2.68618         50.8449         6.29676 
        2.70184         50.1881          6.2116 
        2.71755         49.7685         6.12782 
        2.73329         48.8102         6.04548 
        2.74897         48.4775         5.96494 
        2.76462         47.7013         5.88607 
        2.78034         47.4672         5.80831 
        2.79607          46.889          5.7319 
        2.81179         46.4167         5.65697 
        2.82749         45.7659         5.58348 
        2.84321         45.4769         5.51124 
        2.85893         44.8163         5.44031 
        2.87462         44.4274         5.37077 
        2.89033          43.949         5.30239 
        2.90605         43.4462         5.23517 
        2.92176         43.1463         5.16916 
        2.93747         42.5613         5.10433 
        2.95318         42.0845         5.04062 
        2.96891         41.6615         4.97799 
        2.98456         41.1294          4.9167 
        3.00023          40.785         4.85638 
        3.01596         40.4318         4.79689 
        3.03164         40.0694         4.73859 
        3.04738         39.5133         4.68109 
         3.0631         39.0548         4.62458 
        3.07883         38.7435         4.56902 
        3.09456         38.3604         4.51439 
        3.11026         38.0581         4.46074 
        3.12596         37.5541         4.40799 
        3.14163         37.2186         4.35623 
        3.15734         36.8494         4.30518 
        3.17308         36.4641         4.25484 
        3.18879         35.9194         4.20546 
        3.20447         35.7251         4.15694 
         3.2202         35.2872         4.10904 
         3.2359         35.0306           4.062 
        3.25157         34.6961         4.01581 
        3.26729         34.4325         3.97021 
        3.28304          34.036         3.92524 
        3.29877         33.5712         3.88104 
        3.31446         33.2957         3.83762 
        3.33014         33.0494         3.79491 
        3.34585         32.6778          3.7528 
        3.36158         32.2959         3.71127 
        3.37727         31.9872          3.6705 
        3.39294         31.7511          3.6304 
        3.40867          31.494         3.59076 
        3.42439         31.0818         3.55174 
        3.44008         30.7869         3.51338 
        3.45578         30.6314         3.47557 
        3.47153         30.1691         3.43823 
        3.48724         29.8591         3.40152 
        3.50292         29.6238         3.36544 
        3.51859         29.3917         3.32991 
        3.53431          29.077         3.29478 
        3.55007         28.8943         3.26008 
        3.56577         28.5384         3.22603 
        3.58146         28.3727         3.19248 
        3.59719         28.0546         3.15934 
        3.61292         27.7139         3.12669 
        3.62859         27.4508         3.09462 
        3.64429         27.2319         3.06295 
        3.66003         27.0863         3.03164 
        3.67578         26.6743         3.00077 
        3.69146         26.4589         2.97046 
        3.70712         26.1662         2.94063 
        3.72284         25.9936          2.9111 
        3.73853         25.6776         2.88204 
        3.75422         25.5179         2.85337 
        3.76993          25.376         2.82506 
        3.78564         25.1005         2.79716 
        3.80137         24.8369         2.76959 
        3.81707         24.5237         2.74246 
        3.83279         24.3577         2.71567 
        3.84853         24.1084         2.68921 
        3.86424          23.911         2.66315 
        3.87992         23.6761         2.63748 
        3.89561         23.4865         2.61215 
        3.91134         23.1971         2.58711 
        3.92704         23.0196         2.56242 
        3.94273         22.8548         2.53809 
        3.95845         22.5943         2.51404 
        3.97418         22.3654         2.49029 
        3.98988         22.2106         2.46689 
        4.00554         22.0469         2.44385 
        4.02125         21.8512         2.42105 
        4.03698         21.6298         2.39851 
        4.05268         21.4033         2.37631 
        4.06839         21.2606         2.35438 
         4.0841         21.0759         2.33273 
        4.09983         20.8258         2.31133 
        4.11555         20.6616         2.29021 
        4.13124         20.4669         2.26941 
        4.14693         20.3136         2.24886 
        4.16266         20.1595         2.22852 
        4.17839         19.9271         2.20845 
        4.19408          19.767         2.18867 
        4.20977         19.6241         2.16913 
        4.22551         19.5228         2.14978 
        4.24123         19.3128          2.1307 
        4.25691         19.1308          2.1119 
        4.27259         18.9103         2.09332 
        4.28831         18.7416         2.07493 
        4.30404         18.5931         2.05675 
        4.31974         18.4081         2.03883 
        4.33543         18.2838         2.02113 
        4.35116         18.1672         2.00361 
        4.36688         18.0243          1.9863 
        4.38255         17.9174         1.96926 
        4.39825         17.7386         1.95239 
        4.41398         17.5728         1.93568 
         4.4297         17.3756          1.9192 
        4.44541         17.2474          1.9029 
        4.46111         17.1296         1.88682 
        4.47683         17.0039         1.87091 
        4.49251         16.8544         1.85521 
        4.50819         16.7177         1.83971 
         4.5239         16.5572         1.82436 
        4.53962         16.3644         1.80917 
        4.55535           16.27         1.79414 
        4.57106         16.1446         1.77931 
        4.58678         16.0438         1.76465 
         4.6025         15.9169         1.75015 
        4.61821          15.749         1.73582 
        4.63391         15.5945         1.72167 
         4.6496         15.5241         1.70769 
        4.66532         15.3596         1.69384 
        4.68103         15.2442         1.68015 
        4.69673         15.1184         1.66663 
        4.71241         15.0319         1.65327 
        4.72811         14.8878         1.64004 
        4.74384         14.7888         1.62694 
        4.75955         14.6251           1.614 
        4.77525         14.5231         1.60122 
        4.79096         14.4001         1.58856 
        4.80669         14.3086         1.57603 
         4.8224         14.1695         1.56365 
        4.83809         14.0722         1.55142 
        4.85379         13.9729         1.53931 
         4.8695         13.8437         1.52733 
        4.88521         13.7182         1.51548 
        4.90093         13.6523         1.50375 
        4.91663         13.5315         1.49216 
        4.93234         13.4106         1.48068 
        4.94807         13.3125         1.46932 
        4.96377         13.1954          1.4581 
        4.97943         13.0813         1.44702 
        4.99514         13.0149         1.43603 
        5.01086         12.9053         1.42515 
        5.02654         12.8133         1.41441 
        5.04227         12.7335         1.40374 
          5.058         12.6127         1.39319 
        5.07371         12.5286         1.38277 
        5.08942         12.4136         1.37245 
        5.10513         12.3474         1.36224 
        5.12084         12.2206         1.35212 
        5.13656         12.1778         1.34212 
        5.15225         12.0632         1.33223 
        5.16796         11.9588         1.32243 
        5.18369         11.8823         1.31272 
         5.1994         11.7539         1.30312 
        5.21509         11.6991         1.29363 
        5.23079          11.617         1.28423 
        5.24649         11.5417         1.27493 
        5.26217         11.4271         1.26573 
        5.27788         11.3705          1.2566 
        5.29359         11.2694         1.24757 
        5.30933         11.1665         1.23861 
        5.32504          11.125         1.22976 
        5.34073         11.0085           1.221 
        5.35646         10.9409         1.21231 
        5.37218         10.8563         1.20371 
        5.38789         10.7738         1.19521 
        5.40357          10.705         1.18679 
        5.41929          10.624         1.17845 
        5.43502          10.546         1.17018 
         5.4507         10.4651         1.16201 
        5.46639         10.3876         1.15392 
        5.48212         10.2986         1.14589 
        5.49786         10.2628         1.13792 
        5.51353         10.1481         1.13008 
        5.52921         10.0889          1.1223 
        5.54495         10.0204         1.11457 
        5.56066         9.95521         1.10692 
        5.57637         9.89351         1.09935 
        5.59207         9.80052         1.09185 
        5.60778         9.74375         1.08442 
        5.62346         9.68994         1.07708 
        5.63916         9.60631         1.06979 
        5.65487         9.52673         1.06257 
         5.6706         9.46117         1.05541 
        5.68633         9.40906         1.04831 
        5.70203         9.33351          1.0413 
        5.71773         9.24166         1.03435 
        5.73344         9.20364         1.02746 
        5.74916         9.14998         1.02062 
        5.76486         9.06648         1.01386 
        5.78054         9.02478         1.00718 
        5.79626         8.95025         1.00053 
          5.812         8.88974        0.993938 
         5.8277         8.82974        0.987425 
        5.84339         8.75662        0.980972 
        5.85911          8.7259        0.974565 
        5.87484         8.62672        0.968217 
        5.89053         8.58908        0.961939 
        5.90623         8.51753        0.955714 
        5.92195         8.47566        0.949534 
        5.93767         8.41501        0.943413 
        5.95336         8.35594        0.937356 
        5.96905          8.2944        0.931356 
        5.98476         8.23489          0.9254 
        6.00048         8.18671        0.919495 
        6.01617         8.13221        0.913651 
        6.03185         8.07777        0.907864 
        6.04756         8.02184        0.902115 
        6.06331         7.97068        0.896404 
        6.07903         7.90877        0.890754 
        6.09473          7.8623         0.88516 
        6.11044         7.81551        0.879609 
        6.12616         7.76096        0.874107 
        6.14186         7.71212        0.868658 
        6.15755         7.65079        0.863256 
        6.17326         7.59068        0.857897 
        6.18898         7.56595        0.852581 
        6.20467          7.5129         0.84732 
        6.22036         7.45977        0.842105 
         6.2361         7.40956         0.83692 
         6.2518         7.35455        0.831788 
        6.26748         7.30587         0.82671 
        6.28319         7.27168        0.821662 
        6.29893         7.21928        0.816651 
        6.31463         7.15947        0.811692 
        6.33033         7.12918        0.806776 
        6.34604         7.07489        0.801897 
        6.36177         7.03729        0.797055 
        6.37747         6.98923        0.792262 
