# k  (h/Mpc)    Pcb(k)  (Mpc/h)^3    Pcb_linear(k) (Mpc/h)^3   ShotnoiseSubtracted = true
      0.0200456         11235.3         11407.3 
      0.0350414         8079.92         7846.91 
      0.0492313         5648.17         5690.85 
      0.0637834         4634.26         4808.87 
      0.0800726         3537.51         3674.92 
       0.096163         2708.39         2598.05 
       0.111083         2264.61         2154.08 
       0.126058         1909.73         1934.91 
       0.142273         1587.77         1560.27 
       0.158546          1293.5         1219.97 
        0.17375         1158.48            1076 
       0.188953         1073.44         979.023 
       0.204907         897.553         831.143 
       0.220756         801.761         699.307 
        0.23588         721.054         629.873 
         0.2514         646.687         575.789 
       0.267535         620.641         506.606 
       0.283568         540.613         444.596 
       0.299022         516.338          404.72 
       0.314451         518.878         372.218 
       0.330372           444.7         336.269 
       0.346141         412.142         303.762 
       0.361624          392.96         279.258 
       0.377134         365.879           258.4 
       0.392932         355.036         237.526 
       0.408854         337.294          218.14 
       0.424564         325.236         202.133 
       0.440253         293.772         188.157 
       0.455999         280.169         174.924 
       0.471626         279.517         162.812 
        0.48727         265.492         152.121 
       0.502856         243.247         142.573 
       0.518488         243.893         133.701 
       0.534347         226.652         125.367 
       0.550082         220.848         117.882 
       0.565732         219.059         111.096 
       0.581496          205.44         104.779 
       0.597222          200.39         98.9291 
       0.612804         194.311         93.5957 
       0.628434         188.045         88.6604 
       0.644267         179.337          84.021 
       0.660051         175.631         79.7267 
       0.675724         173.567         75.7613 
       0.691403         169.076         72.0664 
       0.707174         163.121         68.6003 
       0.722871         160.535         65.3786 
        0.73838         158.877         62.4005 
       0.754018         149.637         59.5871 
       0.769845         149.573         56.9179 
        0.78569         145.459          54.411 
       0.801365         140.977         52.0809 
       0.817031         137.531         49.8899 
       0.832809         135.081         47.8121 
       0.848511         131.896         45.8629 
       0.864097         129.465         44.0367 
       0.879701         127.909          42.309 
       0.895507         124.281         40.6544 
       0.911279         121.256         39.0926 
        0.92691         118.877         37.6265 
       0.942635         116.542         36.2282 
       0.958396         115.347         34.8987 
       0.974128         112.876          33.639 
       0.989692         110.067         32.4545 
        1.00528         108.758         31.3259 
        1.02113         105.977         30.2338 
        1.03692         105.531         29.1983 
        1.05264         104.287         28.2166 
        1.06832         101.144         27.2819 
        1.08405         100.043         26.3876 
        1.09979         99.3745         25.5332 
        1.11537         96.7305         24.7254 
        1.13105          95.559         23.9481 
        1.14679         94.0537         23.2016 
        1.16256         92.1871         22.4857 
        1.17828         91.3718         21.8026 
        1.19395         89.1099         21.1505 
         1.2097         88.7508         20.5219 
        1.22537         86.8756         19.9222 
          1.241         86.5573         19.3484 
        1.25666          83.691         18.7961 
        1.27241         83.1068         18.2628 
        1.28819         82.5704         17.7496 
        1.30392         80.9782         17.2577 
        1.31957         80.1555         16.7868 
        1.33529         79.0529         16.3319 
        1.35108         78.5619         15.8922 
        1.36674         77.1596          15.472 
         1.3824         76.6214         15.0675 
        1.39811         74.7435         14.6762 
        1.41389         73.8082         14.2974 
        1.42964         72.8558         13.9328 
        1.44531         72.3278         13.5827 
        1.46101          71.615         13.2441 
        1.47667         70.5828          12.918 
        1.49229         69.7279          12.604 
        1.50793         68.8287         12.3001 
        1.52367         68.3931         12.0043 
        1.53953         67.2996         11.7163 
        1.55526         66.0746         11.4402 
        1.57092         66.1153         11.1742 
        1.58662         65.1175         10.9161 
        1.60235         64.2551         10.6657 
        1.61809         63.1458         10.4231 
        1.63369         62.5187         10.1902 
        1.64941         62.3001         9.96288 
        1.66519         60.8041          9.7417 
        1.68085         60.4067         9.52886 
        1.69652         59.2864         9.32237 
        1.71228         58.9697         9.12087 
        1.72806         58.5057         8.92521 
        1.74368         57.5657         8.73729 
        1.75933         57.1454         8.55445 
        1.77505         56.5323         8.37603 
        1.79081         55.7801         8.20242 
         1.8065         55.4397          8.0345 
        1.82218           53.95         7.87147 
        1.83797         53.6287         7.71188 
        1.85367         53.2243         7.55762 
        1.86928         52.7824         7.40855 
        1.88497         51.9515          7.2627 
        1.90073         51.2512         7.12028 
        1.91647         51.0989         6.98182 
        1.93218         50.6336         6.84737 
        1.94787         49.8776         6.71668 
        1.96363         49.2272         6.58891 
        1.97935         48.7406         6.46474 
        1.99499          48.188          6.3445 
        2.01064         47.5927         6.22717 
         2.0264         47.4484         6.11208 
        2.04216         46.6186         5.99998 
        2.05781         46.1673         5.89142 
        2.07353         45.4454         5.78517 
        2.08928          45.316         5.68133 
        2.10499         44.9037         5.58033 
        2.12065         44.3411         5.48211 
        2.13633         44.0774         5.38619 
        2.15211         43.4195         5.29195 
        2.16785         42.7014         5.20025 
        2.18349         42.3438         5.11131 
        2.19916         41.9562         5.02427 
        2.21489         41.7509         4.93899 
        2.23063         41.1431         4.85564 
         2.2463         40.7977         4.77461 
        2.26194         40.3747         4.69563 
        2.27765         39.9059         4.61805 
        2.29341         39.3801         4.54203 
        2.30914         39.0345         4.46789 
        2.32486         38.5464         4.39546 
        2.34061         38.2812         4.32452 
        2.35635         37.8762         4.25522 
        2.37203         37.4916         4.18769 
        2.38768         37.3222         4.12177 
        2.40339         36.8782         4.05704 
        2.41914         36.5791         3.99356 
        2.43483         36.0253         3.93167 
         2.4505          35.866          3.8712 
        2.46622         35.3899         3.81181 
        2.48195         35.1112         3.75367 
        2.49759         34.6869         3.69705 
        2.51328         34.3309         3.64146 
        2.52906         34.0529         3.58668 
        2.54479         33.8171         3.53323 
        2.56049         33.4847         3.48097 
        2.57618         33.1218         3.42983 
        2.59189         32.7744         3.37965 
        2.60758          32.379         3.33055 
        2.62325         32.3073         3.28249 
        2.63898         31.9249         3.23522 
        2.65468         31.4664         3.18899 
        2.67044         31.3306         3.14347 
        2.68618         31.0385         3.09894 
        2.70184         30.6799         3.05546 
        2.71755         30.3829         3.01271 
        2.73329         30.1264         2.97072 
        2.74897         29.7906         2.92967 
        2.76462         29.5304         2.88949 
        2.78034         29.2587         2.84991 
        2.79607         29.0073         2.81103 
        2.81179         28.7269         2.77292 
        2.82749         28.4315         2.73556 
        2.84321          28.167         2.69886 
        2.85893         27.9461         2.66284 
        2.87462         27.7581         2.62755 
        2.89033           27.44         2.59286 
        2.90605         27.1971         2.55878 
        2.92176         26.9828         2.52533 
        2.93747         26.6963          2.4925 
        2.95318         26.5587         2.46025 
        2.96891           26.21         2.42856 
        2.98456         26.0295         2.39757 
        3.00023         25.6817         2.36707 
        3.01596         25.4176         2.33702 
        3.03164         25.1994         2.30758 
        3.04738         25.0829         2.27856 
         3.0631          24.828         2.25005 
        3.07883         24.5126         2.22203 
        3.09456         24.2812          2.1945 
        3.11026         24.0469         2.16747 
        3.12596         23.8123         2.14091 
        3.14163         23.6736         2.11486 
        3.15734         23.5001         2.08918 
        3.17308         23.1798         2.06387 
        3.18879         23.0436         2.03905 
        3.20447         22.8692         2.01467 
         3.2202         22.6001         1.99062 
         3.2359         22.3758         1.96701 
        3.25157         22.1857         1.94384 
        3.26729         22.0954         1.92098 
        3.28304         21.8405         1.89844 
        3.29877         21.6466         1.87629 
        3.31446         21.4827         1.85455 
        3.33014         21.1983         1.83317 
        3.34585         21.1188         1.81209 
        3.36158         20.8368         1.79132 
        3.37727         20.6997         1.77095 
        3.39294          20.593          1.7509 
        3.40867         20.3533          1.7311 
        3.42439           20.15         1.71162 
        3.44008          19.978         1.69248 
        3.45578         19.8207         1.67361 
        3.47153         19.6411           1.655 
        3.48724         19.5359          1.6367 
        3.50292         19.2933         1.61872 
        3.51859         19.1741         1.60102 
        3.53431         19.0006         1.58354 
        3.55007          18.782         1.56627 
        3.56577         18.6705         1.54933 
        3.58146         18.4745         1.53265 
        3.59719         18.3388         1.51618 
        3.61292         18.2113         1.49995 
        3.62859         17.9705         1.48403 
        3.64429         17.8248         1.46831 
        3.66003         17.7456         1.45277 
        3.67578         17.6278         1.43746 
        3.69146         17.4357         1.42243 
        3.70712         17.2486         1.40764 
        3.72284         17.1417         1.39301 
        3.73853         17.0273         1.37861 
        3.75422         16.8053         1.36442 
        3.76993          16.694         1.35041 
        3.78564         16.5505         1.33661 
        3.80137         16.4002         1.32297 
        3.81707         16.2703         1.30956 
        3.83279         16.1662         1.29632 
        3.84853          15.986         1.28325 
        3.86424          15.863         1.27038 
        3.87992          15.761         1.25771 
        3.89561         15.6264         1.24521 
        3.91134         15.5159         1.23286 
        3.92704         15.3948         1.22068 
        3.94273         15.2447         1.20869 
        3.95845         15.0936         1.19684 
        3.97418         14.9648         1.18514 
        3.98988         14.8664         1.17362 
        4.00554         14.7308         1.16228 
        4.02125         14.6174         1.15106 
        4.03698         14.4981         1.13997 
        4.05268         14.4129         1.12906 
        4.06839         14.2416         1.11827 
         4.0841         14.1531         1.10764 
        4.09983         13.9792         1.09713 
        4.11555         13.9207         1.08676 
        4.13124         13.8164         1.07655 
        4.14693         13.6924         1.06646 
        4.16266         13.5882         1.05649 
        4.17839         13.4454         1.04664 
        4.19408         13.3642         1.03695 
        4.20977         13.2672         1.02737 
        4.22551         13.1291         1.01789 
        4.24123         13.0352         1.00855 
        4.25691         12.9293        0.999342 
        4.27259         12.8181         0.99025 
        4.28831         12.7614        0.981254 
        4.30404         12.6511        0.972361 
        4.31974         12.5372        0.963599 
        4.33543          12.402         0.95495 
        4.35116         12.3297        0.946387 
        4.36688         12.2026        0.937933 
        4.38255         12.1109        0.929614 
        4.39825         12.0336        0.921378 
        4.41398         11.9362        0.913226 
         4.4297         11.8323        0.905183 
        4.44541         11.7555        0.897237 
        4.46111         11.6516        0.889394 
        4.47683         11.5394        0.881639 
        4.49251         11.4657        0.873993 
        4.50819         11.3821         0.86644 
         4.5239          11.292        0.858966 
        4.53962         11.1996        0.851571 
        4.55535         11.1059        0.844261 
        4.57106         11.0761        0.837047 
        4.58678         10.9585        0.829915 
         4.6025         10.8828        0.822866 
        4.61821         10.8181        0.815901 
        4.63391          10.719        0.809025 
         4.6496         10.6161        0.802232 
        4.66532         10.5422        0.795506 
        4.68103         10.4501        0.788861 
        4.69673         10.3659        0.782299 
        4.71241         10.3011        0.775818 
        4.72811         10.2262          0.7694 
        4.74384         10.1545        0.763047 
        4.75955         10.0724        0.756776 
        4.77525         9.97863        0.750579 
        4.79096         9.93628        0.744444 
        4.80669         9.82711        0.738376 
         4.8224         9.78408        0.732382 
        4.83809         9.68935        0.726461 
        4.85379         9.64116        0.720602 
         4.8695         9.55443        0.714804 
        4.88521         9.46951        0.709072 
        4.90093          9.4333        0.703402 
        4.91663          9.3289          0.6978 
        4.93234         9.27979        0.692253 
        4.94807         9.19556        0.686763 
        4.96377         9.14822        0.681343 
        4.97943         9.07912        0.675994 
        4.99514         9.00913        0.670688 
        5.01086         8.95095        0.665435 
        5.02654         8.86667        0.660253 
        5.04227         8.81263         0.65511 
          5.058         8.74998        0.650021 
        5.07371         8.69079        0.644995 
        5.08942         8.62652        0.640022 
        5.10513          8.5379        0.635102 
        5.12084          8.4924        0.630231 
        5.13656         8.43928        0.625412 
        5.15225         8.36096        0.620652 
        5.16796         8.30842        0.615934 
        5.18369         8.24696        0.611261 
         5.1994         8.20413        0.606645 
        5.21509         8.13774        0.602082 
        5.23079         8.06978         0.59756 
        5.24649         8.02607        0.593088 
        5.26217         7.96794        0.588666 
        5.27788         7.91096        0.584282 
        5.29359         7.84479        0.579943 
        5.30933          7.7776        0.575641 
        5.32504         7.74437        0.571391 
        5.34073         7.68218        0.567188 
        5.35646         7.62569         0.56302 
        5.37218         7.58271        0.558892 
        5.38789         7.51909        0.554813 
        5.40357         7.47351         0.55078 
        5.41929         7.42583        0.546778 
        5.43502         7.37009        0.542815 
         5.4507         7.31584        0.538901 
        5.46639         7.26735        0.535026 
        5.48212         7.21869         0.53118 
        5.49786           7.173        0.527367 
        5.51353         7.13081         0.52361 
        5.52921         7.06232        0.519887 
        5.54495          7.0082        0.516189 
        5.56066          6.9741        0.512531 
        5.57637         6.93009         0.50891 
        5.59207         6.87674        0.505327 
        5.60778         6.83229        0.501777 
        5.62346         6.78409        0.498266 
        5.63916          6.7403        0.494785 
        5.65487         6.69924        0.491337 
         5.6706         6.65151        0.487917 
        5.68633          6.6024        0.484529 
        5.70203         6.56402         0.48118 
        5.71773         6.51969        0.477863 
        5.73344         6.48173        0.474576 
        5.74916         6.42705        0.471317 
        5.76486         6.39315        0.468093 
        5.78054         6.33848        0.464905 
        5.79626         6.30281        0.461737 
          5.812         6.25635        0.458596 
         5.8277         6.20831        0.455494 
        5.84339          6.1719         0.45242 
        5.85911         6.13476        0.449369 
        5.87484         6.09433        0.446347 
        5.89053         6.05153        0.443358 
        5.90623         6.01002        0.440396 
        5.92195         5.97362        0.437456 
        5.93767         5.94625        0.434544 
        5.95336         5.88839        0.431664 
        5.96905         5.85856        0.428811 
        5.98476         5.82194         0.42598 
        6.00048          5.7786        0.423174 
        6.01617         5.73946        0.420397 
        6.03185         5.71932        0.417648 
        6.04756         5.68308        0.414917 
        6.06331         5.63459        0.412205 
        6.07903         5.59371        0.409524 
        6.09473         5.55993        0.406868 
        6.11044         5.51075        0.404234 
        6.12616         5.49089        0.401624 
        6.14186         5.45923        0.399039 
        6.15755         5.42323        0.396478 
        6.17326          5.3889        0.393937 
        6.18898         5.35074        0.391417 
        6.20467         5.31873        0.388924 
        6.22036         5.28685        0.386453 
         6.2361         5.25696        0.383997 
         6.2518          5.2199        0.381566 
        6.26748         5.18962        0.379162 
        6.28319         5.16033        0.376772 
        6.29893         5.12914        0.374401 
        6.31463         5.09532        0.372054 
        6.33033           5.058        0.369728 
        6.34604          5.0264         0.36742 
        6.36177         4.99773         0.36513 
        6.37747         4.96548        0.362864 
