# k  (h/Mpc)    Pcb(k)  (Mpc/h)^3    Pcb_linear(k) (Mpc/h)^3   ShotnoiseSubtracted = true
      0.0200456         3250.88          3302.2 
      0.0350414          2248.6         2271.53 
      0.0492313         1649.47         1647.39 
      0.0637834         1406.93         1392.07 
      0.0800726         1079.41         1063.82 
       0.096163         748.582         752.085 
       0.111083         614.074         623.563 
       0.126058         563.441         560.119 
       0.142273         463.466         451.668 
       0.158546         368.211         353.156 
        0.17375         312.654         311.481 
       0.188953          292.68         283.408 
       0.204907         262.056           240.6 
       0.220756         217.496         202.436 
        0.23588         194.119         182.336 
         0.2514         173.768          166.68 
       0.267535         158.205         146.652 
       0.283568         141.462         128.702 
       0.299022         130.307         117.159 
       0.314451         117.479          107.75 
       0.330372         108.417         97.3433 
       0.346141         97.7574         87.9333 
       0.361624         91.6949         80.8396 
       0.377134         86.4051         74.8016 
       0.392932         76.7586         68.7591 
       0.408854         73.7736         63.1472 
       0.424564         69.9027         58.5136 
       0.440253         64.6473         54.4677 
       0.455999         60.7933          50.637 
       0.471626         56.7301         47.1307 
        0.48727         54.2927         44.0362 
       0.502856         51.1648         41.2721 
       0.518488         48.9114         38.7039 
       0.534347         46.9881         36.2913 
       0.550082         42.9824         34.1244 
       0.565732         40.3284           32.16 
       0.581496         39.3452         30.3315 
       0.597222         38.0232          28.638 
       0.612804         35.5667         27.0941 
       0.628434         34.3668         25.6655 
       0.644267         33.4514         24.3224 
       0.660051         31.8233         23.0793 
       0.675724         30.1892         21.9314 
       0.691403         29.2525         20.8618 
       0.707174         28.2755         19.8584 
       0.722871         27.1706         18.9258 
        0.73838         26.2092         18.0637 
       0.754018         25.1594         17.2493 
       0.769845         24.3996         16.4766 
        0.78569         23.6147         15.7509 
       0.801365         22.7476         15.0764 
       0.817031         22.1517         14.4422 
       0.832809         21.6966         13.8407 
       0.848511         20.3931         13.2764 
       0.864097         20.0455         12.7477 
       0.879701         19.5153         12.2476 
       0.895507           18.92         11.7687 
       0.911279         18.3922         11.3165 
        0.92691         17.9255         10.8921 
       0.942635         17.1848         10.4874 
       0.958396         16.8418         10.1025 
       0.974128         16.3445         9.73783 
       0.989692         16.1858         9.39495 
        1.00528         15.7559         9.06823 
        1.02113         15.0938         8.75209 
        1.03692         14.7663         8.45234 
        1.05264         14.4964         8.16814 
        1.06832         14.1231         7.89759 
        1.08405         13.7153         7.63869 
        1.09979         13.4252         7.39135 
        1.11537         13.2017         7.15752 
        1.13105         12.9037         6.93251 
        1.14679         12.6967         6.71639 
        1.16256         12.2303         6.50915 
        1.17828         12.2008         6.31142 
        1.19395         11.7307         6.12264 
         1.2097         11.5899         5.94069 
        1.22537         11.2848         5.76708 
          1.241         11.1177         5.60099 
        1.25666          10.892         5.44109 
        1.27241         10.6165         5.28673 
        1.28819         10.4059         5.13815 
        1.30392         10.3065         4.99576 
        1.31957         10.1094         4.85945 
        1.33529         9.92737         4.72777 
        1.35108         9.67511         4.60049 
        1.36674         9.61571         4.47884 
         1.3824          9.3315         4.36174 
        1.39811         9.20159         4.24847 
        1.41389         9.05159         4.13882 
        1.42964         8.93644         4.03326 
        1.44531         8.79157         3.93193 
        1.46101         8.57732         3.83389 
        1.47667         8.47693         3.73952 
        1.49229         8.36532          3.6486 
        1.50793         8.19495         3.56062 
        1.52367          8.0696         3.47501 
        1.53953         7.94077         3.39165 
        1.55526         7.82955         3.31172 
        1.57092         7.73184         3.23471 
        1.58662         7.60804         3.15999 
        1.60235         7.49181         3.08751 
        1.61809          7.3786         3.01728 
        1.63369         7.26171         2.94987 
        1.64941         7.15143         2.88406 
        1.66519         7.09301         2.82003 
        1.68085         6.95999         2.75842 
        1.69652         6.84686         2.69864 
        1.71228         6.75879         2.64031 
        1.72806         6.69406         2.58367 
        1.74368         6.56743         2.52927 
        1.75933         6.51313         2.47635 
        1.77505         6.42093          2.4247 
        1.79081         6.29588         2.37444 
         1.8065         6.25757         2.32583 
        1.82218          6.1614         2.27864 
        1.83797         6.11018         2.23244 
        1.85367         5.99466         2.18778 
        1.86928         5.97714         2.14463 
        1.88497         5.84472         2.10241 
        1.90073         5.77671         2.06118 
        1.91647         5.73643          2.0211 
        1.93218          5.6599         1.98218 
        1.94787         5.59102         1.94435 
        1.96363         5.52892         1.90736 
        1.97935         5.44264         1.87142 
        1.99499         5.37506         1.83661 
        2.01064         5.32262         1.80264 
         2.0264         5.25971         1.76933 
        2.04216         5.21262         1.73688 
        2.05781         5.14142         1.70545 
        2.07353         5.09645         1.67469 
        2.08928          5.0501         1.64463 
        2.10499         5.00136          1.6154 
        2.12065         4.93326         1.58696 
        2.13633         4.88649         1.55919 
        2.15211         4.81884         1.53192 
        2.16785         4.77416         1.50537 
        2.18349         4.71927         1.47962 
        2.19916         4.65669         1.45443 
        2.21489         4.62627         1.42974 
        2.23063         4.57005         1.40561 
         2.2463         4.52708         1.38215 
        2.26194         4.46865         1.35929 
        2.27765         4.45109         1.33683 
        2.29341         4.39447         1.31483 
        2.30914         4.34565         1.29337 
        2.32486         4.29986          1.2724 
        2.34061         4.27532         1.25186 
        2.35635         4.22743          1.2318 
        2.37203           4.201         1.21225 
        2.38768         4.14706         1.19317 
        2.40339         4.10467         1.17443 
        2.41914           4.055         1.15606 
        2.43483         4.04995         1.13814 
         2.4505         3.98787         1.12064 
        2.46622         3.96377         1.10344 
        2.48195         3.91117         1.08661 
        2.49759         3.89492         1.07022 
        2.51328         3.84706         1.05413 
        2.52906         3.83786         1.03827 
        2.54479         3.77998          1.0228 
        2.56049         3.75617         1.00767 
        2.57618         3.71132        0.992869 
        2.59189         3.69691        0.978341 
        2.60758         3.66833        0.964129 
        2.62325         3.62823        0.950217 
        2.63898         3.57879        0.936534 
        2.65468         3.56089         0.92315 
        2.67044         3.52861        0.909972 
        2.68618         3.50519        0.897083 
        2.70184         3.46864        0.884496 
        2.71755         3.44665        0.872122 
        2.73329         3.41897        0.859966 
        2.74897         3.40614        0.848083 
        2.76462         3.36969        0.836452 
        2.78034         3.32383        0.824992 
        2.79607         3.30492        0.813737 
        2.81179          3.2888        0.802705 
        2.82749         3.23787        0.791892 
        2.84321         3.23737        0.781266 
        2.85893         3.20695         0.77084 
        2.87462         3.18317        0.760623 
        2.89033         3.15971        0.750583 
        2.90605         3.13411        0.740717 
        2.92176         3.10039        0.731034 
        2.93747         3.07762         0.72153 
        2.95318         3.05651        0.712193 
        2.96891         3.04687        0.703019 
        2.98456         3.01746        0.694048 
        3.00023         2.98618        0.685221 
        3.01596         2.97005        0.676521 
        3.03164         2.95407        0.667998 
        3.04738         2.92601        0.659597 
         3.0631         2.90259        0.651345 
        3.07883         2.88864        0.643234 
        3.09456         2.86456        0.635264 
        3.11026         2.84547        0.627441 
        3.12596         2.81777        0.619752 
        3.14163         2.80035         0.61221 
        3.15734         2.78075        0.604776 
        3.17308         2.76446        0.597449 
        3.18879         2.74859        0.590264 
        3.20447         2.73501        0.583208 
         3.2202         2.70057        0.576247 
         3.2359         2.69585        0.569411 
        3.25157         2.67457        0.562704 
        3.26729         2.65046        0.556085 
        3.28304            2.64         0.54956 
        3.29877         2.62127        0.543149 
        3.31446         2.59917        0.536854 
        3.33014         2.58885        0.530666 
        3.34585          2.5706        0.524566 
        3.36158         2.55682        0.518553 
        3.37727         2.52282        0.512654 
        3.39294         2.52108        0.506853 
        3.40867         2.49549         0.50112 
        3.42439         2.48618        0.495481 
        3.44008         2.46876        0.489939 
        3.45578         2.45591        0.484478 
        3.47153         2.43524         0.47909 
        3.48724         2.42492        0.473792 
        3.50292         2.41607        0.468588 
        3.51859          2.3911        0.463465 
        3.53431         2.37652        0.458403 
        3.55007         2.36522        0.453405 
        3.56577         2.34617        0.448501 
        3.58146         2.33733        0.443672 
        3.59719         2.32473        0.438904 
        3.61292         2.30873        0.434207 
        3.62859         2.29037        0.429597 
        3.64429          2.2719        0.425046 
        3.66003         2.27108        0.420547 
        3.67578          2.2533        0.416116 
        3.69146         2.23738        0.411765 
        3.70712         2.22214        0.407484 
        3.72284         2.20833        0.403249 
        3.73853         2.19689        0.399082 
        3.75422         2.18484        0.394972 
        3.76993           2.161        0.390917 
        3.78564         2.15753        0.386921 
        3.80137         2.14639        0.382975 
        3.81707         2.12579        0.379092 
        3.83279         2.11316         0.37526 
        3.84853         2.11044        0.371475 
        3.86424         2.09365         0.36775 
        3.87992         2.08103        0.364081 
        3.89561          2.0657        0.360463 
        3.91134         2.06138        0.356887 
        3.92704         2.04713        0.353364 
        3.94273         2.03394        0.349892 
        3.95845         2.02104        0.346461 
        3.97418         2.00695        0.343075 
        3.98988         1.99247        0.339739 
        4.00554         1.97748        0.336457 
        4.02125         1.97074        0.333209 
        4.03698         1.95914        0.329999 
        4.05268         1.94826        0.326839 
        4.06839         1.93643        0.323718 
         4.0841         1.92297        0.320639 
        4.09983         1.90924        0.317596 
        4.11555         1.89939        0.314594 
        4.13124         1.88766        0.311639 
        4.14693         1.87353         0.30872 
        4.16266         1.86266        0.305832 
        4.17839          1.8494        0.302982 
        4.19408         1.84032        0.300176 
        4.20977          1.8231        0.297404 
        4.22551          1.8189         0.29466 
        4.24123         1.80523        0.291954 
        4.25691         1.79355         0.28929 
        4.27259         1.78333        0.286658 
        4.28831         1.77427        0.284054 
        4.30404         1.76214        0.281479 
        4.31974         1.75491        0.278943 
        4.33543         1.74162        0.276439 
        4.35116         1.73467         0.27396 
        4.36688          1.7221        0.271513 
        4.38255         1.70866        0.269105 
        4.39825         1.70325        0.266721 
        4.41398         1.69082        0.264361 
         4.4297         1.68344        0.262033 
        4.44541         1.67338        0.259733 
        4.46111         1.66538        0.257462 
        4.47683         1.65555        0.255217 
        4.49251         1.64803        0.253004 
        4.50819         1.64097        0.250817 
         4.5239         1.63232        0.248654 
        4.53962         1.62387        0.246513 
        4.55535         1.61522        0.244397 
        4.57106          1.6034        0.242309 
        4.58678         1.59911        0.240244 
         4.6025         1.59086        0.238204 
        4.61821         1.57878        0.236187 
        4.63391         1.57164        0.234197 
         4.6496         1.56389         0.23223 
        4.66532         1.55941        0.230283 
        4.68103         1.55175         0.22836 
        4.69673         1.54413         0.22646 
        4.71241         1.53697        0.224584 
        4.72811         1.52788        0.222726 
        4.74384         1.52335        0.220887 
        4.75955         1.51374        0.219072 
        4.77525         1.50773        0.217278 
        4.79096         1.50075        0.215502 
        4.80669         1.49139        0.213745 
         4.8224         1.48857         0.21201 
        4.83809         1.48126        0.210296 
        4.85379         1.47286          0.2086 
         4.8695         1.46698        0.206922 
        4.88521         1.46039        0.205262 
        4.90093         1.45256        0.203621 
        4.91663         1.44817        0.201999 
        4.93234         1.44266        0.200394 
        4.94807         1.43401        0.198804 
        4.96377         1.42826        0.197236 
        4.97943         1.42264        0.195687 
        4.99514         1.41366        0.194151 
        5.01086         1.41189         0.19263 
        5.02654         1.40523         0.19113 
        5.04227         1.39996        0.189642 
          5.058           1.395        0.188168 
        5.07371         1.38698        0.186713 
        5.08942            1.38        0.185274 
        5.10513         1.37518        0.183849 
        5.12084         1.37032        0.182439 
        5.13656         1.36423        0.181044 
        5.15225         1.35999        0.179666 
        5.16796         1.35582        0.178301 
        5.18369         1.34638        0.176948 
         5.1994         1.34334        0.175612 
        5.21509         1.33927        0.174291 
        5.23079         1.33489        0.172982 
        5.24649         1.32975        0.171687 
        5.26217         1.32448        0.170407 
        5.27788         1.31745        0.169138 
        5.29359         1.31369        0.167882 
        5.30933         1.31087        0.166637 
        5.32504         1.30534        0.165406 
        5.34073         1.30073         0.16419 
        5.35646         1.29795        0.162983 
        5.37218         1.29077        0.161788 
        5.38789         1.28675        0.160608 
        5.40357         1.27995         0.15944 
        5.41929         1.27359        0.158281 
        5.43502         1.27139        0.157134 
         5.4507         1.26421        0.156001 
        5.46639         1.26309        0.154879 
        5.48212         1.25845        0.153766 
        5.49786         1.25309        0.152662 
        5.51353         1.24637        0.151575 
        5.52921         1.24229        0.150497 
        5.54495          1.2389        0.149427 
        5.56066         1.23761        0.148368 
        5.57637          1.2311        0.147319 
        5.59207         1.22698        0.146282 
        5.60778         1.22328        0.145254 
        5.62346         1.21912        0.144238 
        5.63916         1.21793        0.143231 
        5.65487         1.21221        0.142232 
         5.6706          1.2101        0.141242 
        5.68633         1.20423        0.140262 
        5.70203         1.19936        0.139292 
        5.71773         1.19539        0.138332 
        5.73344         1.19251         0.13738 
        5.74916         1.18731        0.136437 
        5.76486          1.1832        0.135504 
        5.78054         1.18373        0.134581 
        5.79626         1.17815        0.133664 
          5.812         1.17398        0.132755 
         5.8277           1.169        0.131856 
        5.84339         1.16718        0.130967 
        5.85911         1.16482        0.130083 
        5.87484         1.16046        0.129209 
        5.89053         1.15593        0.128343 
        5.90623          1.1522        0.127486 
        5.92195         1.14985        0.126635 
        5.93767         1.14655        0.125792 
        5.95336         1.13907        0.124958 
        5.96905         1.13799        0.124132 
        5.98476         1.13494        0.123313 
        6.00048         1.13157          0.1225 
        6.01617         1.12842        0.121697 
        6.03185         1.12436        0.120901 
        6.04756         1.12246         0.12011 
        6.06331         1.11949        0.119325 
        6.07903         1.11788        0.118549 
        6.09473         1.11265         0.11778 
        6.11044         1.11194        0.117018 
        6.12616         1.10601        0.116262 
        6.14186         1.10205        0.115514 
        6.15755         1.10184        0.114773 
        6.17326         1.09762        0.114037 
        6.18898         1.09469        0.113308 
        6.20467         1.09264        0.112586 
        6.22036         1.08664        0.111871 
         6.2361         1.08595         0.11116 
         6.2518         1.08005        0.110456 
        6.26748         1.07983         0.10976 
        6.28319          1.0755        0.109068 
        6.29893         1.07328        0.108382 
        6.31463         1.06805        0.107702 
        6.33033         1.06723        0.107029 
        6.34604         1.06299        0.106361 
        6.36177         1.06059        0.105698 
        6.37747         1.05884        0.105042 
