# k  (h/Mpc)    Pcb(k)  (Mpc/h)^3    Pcb_linear(k) (Mpc/h)^3   ShotnoiseSubtracted = true
      0.0200456          1159.3         1176.35 
      0.0350414         806.689         809.188 
      0.0492313         588.851         586.852 
      0.0637834         498.701           495.9 
      0.0800726          382.42         378.965 
       0.096163          267.86         267.916 
       0.111083         220.156         222.133 
       0.126058         199.803         199.532 
       0.142273         163.102         160.898 
       0.158546         128.328         125.805 
        0.17375         110.602         110.959 
       0.188953         101.877         100.959 
       0.204907         89.4858          85.709 
       0.220756         74.3206         72.1138 
        0.23588          66.535         64.9537 
         0.2514         60.1007         59.3765 
       0.267535         53.6285         52.2421 
       0.283568         47.4702         45.8476 
       0.299022         43.4603         41.7355 
       0.314451         39.1209         38.3839 
       0.330372          35.878         34.6767 
       0.346141         32.4511         31.3246 
       0.361624         30.0591         28.7976 
       0.377134         28.1467         26.6467 
       0.392932         24.9783         24.4941 
       0.408854         23.8038          22.495 
       0.424564         22.0957         20.8444 
       0.440253          20.455         19.4031 
       0.455999         19.2202         18.0385 
       0.471626         18.0287         16.7894 
        0.48727         16.8803         15.6871 
       0.502856         15.7567         14.7024 
       0.518488         15.0274         13.7875 
       0.534347         14.3274         12.9281 
       0.550082         13.0935         12.1562 
       0.565732         12.1125         11.4564 
       0.581496         11.8429          10.805 
       0.597222         11.3354         10.2018 
       0.612804         10.5649         9.65177 
       0.628434         10.1748         9.14283 
       0.644267           9.722         8.66441 
       0.660051         9.16425         8.22157 
       0.675724         8.70869         7.81265 
       0.691403         8.40755         7.43162 
       0.707174         7.97889         7.07419 
       0.722871         7.64114         6.74197 
        0.73838         7.33626         6.43486 
       0.754018          7.0948         6.14473 
       0.769845         6.72975         5.86948 
        0.78569          6.5018         5.61097 
       0.801365         6.21731         5.37068 
       0.817031         6.00552         5.14475 
       0.832809         5.80248         4.93047 
       0.848511          5.4777         4.72947 
       0.864097         5.28743         4.54114 
       0.879701         5.11118         4.36298 
       0.895507          4.8879         4.19236 
       0.911279         4.81319          4.0313 
        0.92691         4.63148         3.88012 
       0.942635         4.42605         3.73593 
       0.958396          4.2711         3.59882 
       0.974128         4.15448         3.46892 
       0.989692         4.06948         3.34677 
        1.00528         3.88906         3.23039 
        1.02113         3.74659         3.11777 
        1.03692         3.67706         3.01098 
        1.05264         3.54692         2.90975 
        1.06832         3.46156         2.81337 
        1.08405         3.29847         2.72114 
        1.09979          3.2328         2.63303 
        1.11537         3.14794         2.54973 
        1.13105         3.06507         2.46958 
        1.14679          2.9836         2.39259 
        1.16256         2.88259         2.31876 
        1.17828           2.819         2.24832 
        1.19395         2.74251         2.18108 
         1.2097         2.62898         2.11626 
        1.22537         2.57031         2.05441 
          1.241         2.51702         1.99525 
        1.25666         2.49681         1.93829 
        1.27241          2.3802          1.8833 
        1.28819         2.32952         1.83037 
        1.30392         2.28698         1.77965 
        1.31957         2.23342         1.73109 
        1.33529         2.16697         1.68418 
        1.35108         2.11857         1.63884 
        1.36674         2.05901          1.5955 
         1.3824         2.00275         1.55379 
        1.39811         1.96019         1.51344 
        1.41389          1.9276         1.47438 
        1.42964         1.88392         1.43677 
        1.44531         1.84171         1.40068 
        1.46101         1.80281         1.36575 
        1.47667         1.74194         1.33213 
        1.49229         1.72855         1.29974 
        1.50793         1.68138         1.26841 
        1.52367         1.65532         1.23791 
        1.53953         1.60222         1.20821 
        1.55526         1.57294         1.17974 
        1.57092         1.54217         1.15231 
        1.58662         1.51421         1.12569 
        1.60235         1.47873         1.09987 
        1.61809          1.4467         1.07485 
        1.63369          1.4325         1.05084 
        1.64941         1.39301         1.02739 
        1.66519          1.3705         1.00458 
        1.68085          1.3308        0.982634 
        1.69652         1.31002         0.96134 
        1.71228         1.29252        0.940561 
        1.72806         1.25656        0.920384 
        1.74368         1.24113        0.901006 
        1.75933         1.21156        0.882151 
        1.77505          1.1935        0.863752 
        1.79081         1.17153        0.845849 
         1.8065         1.14455        0.828533 
        1.82218         1.13191        0.811721 
        1.83797         1.11383        0.795264 
        1.85367         1.09881        0.779357 
        1.86928         1.07877        0.763983 
        1.88497         1.05131        0.748944 
        1.90073         1.02886        0.734256 
        1.91647         1.02253        0.719979 
        1.93218         1.00345        0.706114 
        1.94787        0.982075        0.692637 
        1.96363        0.964551        0.679461 
        1.97935         0.94826        0.666656 
        1.99499        0.932242        0.654257 
        2.01064        0.916132        0.642157 
         2.0264        0.907372        0.630289 
        2.04216        0.890583        0.618729 
        2.05781        0.874569        0.607534 
        2.07353        0.862561        0.596578 
        2.08928        0.844947         0.58587 
        2.10499        0.834306        0.575455 
        2.12065        0.827162        0.565326 
        2.13633        0.810991        0.555434 
        2.15211        0.795951        0.545716 
        2.16785        0.781106        0.536259 
        2.18349        0.772929        0.527088 
        2.19916        0.760199        0.518113 
        2.21489        0.747224        0.509318 
        2.23063        0.735899        0.500723 
         2.2463        0.731117        0.492366 
        2.26194        0.711007        0.484222 
        2.27765        0.702728        0.476222 
        2.29341         0.69651        0.468383 
        2.30914        0.690117        0.460737 
        2.32486        0.677724        0.453268 
        2.34061        0.666609        0.445952 
        2.35635        0.654252        0.438806 
        2.37203        0.647517        0.431842 
        2.38768        0.639477        0.425045 
        2.40339        0.631129         0.41837 
        2.41914        0.623903        0.411823 
        2.43483        0.612987        0.405441 
         2.4505        0.604141        0.399206 
        2.46622        0.596386        0.393081 
        2.48195        0.592208        0.387085 
        2.49759        0.582012        0.381247 
        2.51328        0.571476        0.375515 
        2.52906        0.565492        0.369865 
        2.54479        0.559086        0.364353 
        2.56049        0.549932        0.358965 
        2.57618        0.545209        0.353691 
        2.59189        0.537368        0.348516 
        2.60758        0.531301        0.343453 
        2.62325        0.523803        0.338497 
        2.63898         0.51902        0.333622 
        2.65468         0.51168        0.328855 
        2.67044        0.503756         0.32416 
        2.68618        0.497376        0.319569 
        2.70184        0.491656        0.315085 
        2.71755        0.485723        0.310677 
        2.73329        0.481074        0.306347 
        2.74897        0.475331        0.302113 
        2.76462         0.46901         0.29797 
        2.78034        0.464054        0.293888 
        2.79607        0.458345        0.289878 
        2.81179        0.452528        0.285948 
        2.82749        0.448393        0.282096 
        2.84321        0.443648        0.278311 
        2.85893        0.437598        0.274597 
        2.87462         0.43281        0.270958 
        2.89033         0.42687        0.267381 
        2.90605        0.423552        0.263866 
        2.92176        0.417759        0.260417 
        2.93747        0.413713        0.257031 
        2.95318        0.409239        0.253705 
        2.96891        0.404952        0.250437 
        2.98456        0.400927        0.247241 
        3.00023        0.396595        0.244097 
        3.01596        0.391658        0.240998 
        3.03164        0.388612        0.237962 
        3.04738         0.38202        0.234969 
         3.0631        0.380068        0.232029 
        3.07883          0.3747         0.22914 
        3.09456        0.370776        0.226301 
        3.11026        0.367535        0.223514 
        3.12596        0.363257        0.220775 
        3.14163        0.360253        0.218088 
        3.15734          0.3578         0.21544 
        3.17308        0.352954         0.21283 
        3.18879        0.350035         0.21027 
        3.20447        0.345726        0.207757 
         3.2202        0.343428        0.205277 
         3.2359        0.339589        0.202842 
        3.25157        0.335975        0.200453 
        3.26729         0.33393        0.198095 
        3.28304        0.330228         0.19577 
        3.29877        0.326692        0.193486 
        3.31446        0.324226        0.191244 
        3.33014        0.321418         0.18904 
        3.34585        0.319904        0.186867 
        3.36158        0.315791        0.184725 
        3.37727        0.313119        0.182623 
        3.39294         0.31036        0.180557 
        3.40867        0.307071        0.178515 
        3.42439         0.30515        0.176506 
        3.44008        0.302627        0.174531 
        3.45578        0.300887        0.172586 
        3.47153        0.297268        0.170667 
        3.48724        0.296194         0.16878 
        3.50292        0.293622        0.166926 
        3.51859        0.289877        0.165101 
        3.53431        0.288173        0.163297 
        3.55007         0.28654        0.161517 
        3.56577        0.282985         0.15977 
        3.58146        0.280339         0.15805 
        3.59719        0.278996        0.156351 
        3.61292        0.277274        0.154678 
        3.62859        0.273415        0.153036 
        3.64429        0.272426        0.151415 
        3.66003        0.270238        0.149812 
        3.67578        0.267678        0.148233 
        3.69146        0.266107        0.146683 
        3.70712         0.26419        0.145159 
        3.72284        0.262248         0.14365 
        3.73853        0.260952        0.142165 
        3.75422        0.258126        0.140701 
        3.76993        0.256527        0.139257 
        3.78564        0.254229        0.137833 
        3.80137        0.252008        0.136427 
        3.81707        0.251071        0.135044 
        3.83279        0.248682        0.133679 
        3.84853        0.246853        0.132331 
        3.86424        0.244755        0.131004 
        3.87992         0.24335        0.129697 
        3.89561        0.241078        0.128408 
        3.91134        0.240429        0.127134 
        3.92704        0.237618        0.125879 
        3.94273        0.235823        0.124643 
        3.95845        0.234084         0.12342 
        3.97418        0.232156        0.122214 
        3.98988        0.230351        0.121026 
        4.00554        0.228523        0.119856 
        4.02125        0.226309        0.118699 
        4.03698        0.224527        0.117556 
        4.05268        0.222584         0.11643 
        4.06839        0.219848        0.115319 
         4.0841        0.217013        0.114222 
        4.09983        0.214707        0.113138 
        4.11555        0.212614        0.112068 
        4.13124        0.209924        0.111016 
        4.14693        0.208718        0.109976 
        4.16266        0.206297        0.108947 
        4.17839        0.204794        0.107932 
        4.19408        0.202603        0.106932 
        4.20977        0.201075        0.105944 
        4.22551         0.19931        0.104967 
        4.24123        0.197475        0.104003 
        4.25691        0.195738        0.103054 
        4.27259        0.194172        0.102116 
        4.28831        0.192885        0.101189 
        4.30404        0.190498        0.100272 
        4.31974        0.190058       0.0993682 
        4.33543        0.188076       0.0984763 
        4.35116        0.186653       0.0975932 
        4.36688        0.185521       0.0967214 
        4.38255        0.183865       0.0958635 
        4.39825        0.183098       0.0950143 
        4.41398        0.181658       0.0941736 
         4.4297         0.18033       0.0933441 
        4.44541        0.179648       0.0925248 
        4.46111        0.178863        0.091716 
        4.47683         0.17793       0.0909163 
        4.49251        0.176602       0.0901278 
        4.50819        0.175452        0.089349 
         4.5239        0.175134       0.0885782 
        4.53962        0.174141       0.0878157 
        4.55535         0.17327       0.0870618 
        4.57106        0.172358       0.0863178 
        4.58678         0.17203       0.0855825 
         4.6025        0.171121       0.0848555 
        4.61821        0.170579       0.0841372 
        4.63391        0.169925       0.0834282 
         4.6496        0.169626       0.0827276 
        4.66532        0.169037       0.0820341 
        4.68103         0.16881       0.0813489 
        4.69673        0.168159       0.0806721 
        4.71241        0.167919       0.0800038 
        4.72811        0.167081        0.079342 
        4.74384          0.1674       0.0786869 
        4.75955        0.167135       0.0780402 
        4.77525        0.166898       0.0774011 
        4.79096        0.166189       0.0767685 
        4.80669        0.166503       0.0761427 
         4.8224        0.166056       0.0755246 
        4.83809        0.166033        0.074914 
        4.85379        0.166424       0.0743099 
         4.8695        0.165946       0.0737119 
        4.88521        0.165999       0.0731208 
        4.90093        0.166501       0.0725362 
        4.91663        0.166637       0.0719585 
        4.93234        0.166478       0.0713865 
        4.94807        0.167033       0.0708203 
        4.96377        0.167382       0.0702614 
        4.97943        0.167958       0.0697098 
        4.99514        0.167844       0.0691626 
        5.01086         0.16875        0.068621 
        5.02654        0.168599       0.0680865 
        5.04227        0.168659       0.0675562 
          5.058        0.169823       0.0670314 
        5.07371         0.17029       0.0665131 
        5.08942        0.171263       0.0660003 
        5.10513         0.17143       0.0654929 
        5.12084        0.172129       0.0649906 
        5.13656        0.172938       0.0644937 
        5.15225        0.173886       0.0640028 
        5.16796        0.174995       0.0635163 
        5.18369        0.174455       0.0630344 
         5.1994        0.175968       0.0625584 
        5.21509        0.176842       0.0620878 
        5.23079        0.178459       0.0616215 
        5.24649        0.179168       0.0611604 
        5.26217        0.180002       0.0607043 
        5.27788        0.181238       0.0602523 
        5.29359        0.182145       0.0598048 
        5.30933        0.184044       0.0593612 
        5.32504        0.184182       0.0589229 
        5.34073        0.186046       0.0584895 
        5.35646        0.186912       0.0580596 
        5.37218        0.187986        0.057634 
        5.38789        0.189424       0.0572134 
        5.40357        0.191629       0.0567975 
        5.41929        0.192468       0.0563848 
        5.43502        0.193033       0.0559761 
         5.4507        0.195335       0.0555725 
        5.46639        0.196791       0.0551729 
        5.48212        0.198767       0.0547763 
        5.49786        0.199934       0.0543831 
        5.51353         0.20269       0.0539957 
        5.52921        0.203312       0.0536117 
        5.54495        0.205099       0.0532304 
        5.56066        0.207717       0.0528532 
        5.57637         0.20926       0.0524797 
        5.59207        0.211378       0.0521102 
        5.60778        0.213163       0.0517442 
        5.62346        0.215605       0.0513821 
        5.63916        0.216708       0.0510232 
        5.65487        0.218566       0.0506676 
         5.6706        0.220293       0.0503149 
        5.68633        0.223977       0.0499655 
        5.70203        0.225308       0.0496202 
        5.71773        0.227602       0.0492782 
        5.73344        0.229071       0.0489392 
        5.74916        0.232245       0.0486031 
        5.76486        0.233634       0.0482707 
        5.78054        0.236887       0.0479419 
        5.79626        0.237928       0.0476152 
          5.812        0.241047       0.0472913 
         5.8277        0.243207       0.0469714 
        5.84339        0.247013       0.0466544 
        5.85911        0.248497       0.0463398 
        5.87484        0.249639       0.0460281 
        5.89053        0.253806       0.0457199 
        5.90623         0.25576       0.0454145 
        5.92195        0.258389       0.0451113 
        5.93767         0.26085        0.044811 
        5.95336        0.263548        0.044514 
        5.96905        0.267932       0.0442198 
        5.98476        0.268905       0.0439279 
        6.00048        0.272751       0.0436385 
        6.01617        0.274479       0.0433521 
        6.03185        0.276641       0.0430686 
        6.04756        0.279369       0.0427871 
        6.06331        0.281861       0.0425074 
        6.07903        0.284209       0.0422309 
        6.09473        0.288553        0.041957 
        6.11044        0.291146       0.0416854 
        6.12616        0.293713       0.0414162 
        6.14186        0.297298       0.0411497 
        6.15755        0.299553       0.0408855 
        6.17326        0.303516       0.0406235 
        6.18898        0.306672       0.0403637 
        6.20467        0.309713       0.0401066 
        6.22036        0.309552       0.0398518 
         6.2361        0.313225       0.0395985 
         6.2518        0.317275       0.0393478 
        6.26748        0.318241       0.0390999 
        6.28319         0.32233       0.0388534 
        6.29893        0.325209       0.0386089 
        6.31463        0.329684       0.0383669 
        6.33033        0.331415        0.038127 
        6.34604        0.334664       0.0378891 
        6.36177        0.337193       0.0376529 
        6.37747        0.340311       0.0374192 
