# k  (h/Mpc)    Pcb(k)  (Mpc/h)^3    Pcb_linear(k) (Mpc/h)^3   ShotnoiseSubtracted = true
      0.0200456         4829.95         4897.18 
      0.0350414         3446.16         3368.68 
      0.0492313         2442.05         2443.09 
      0.0637834         2015.39         2064.45 
      0.0800726            1541         1577.64 
       0.096163         1150.37         1115.35 
       0.111083         959.333         924.747 
       0.126058         821.995         830.659 
       0.142273         671.885         669.825 
       0.158546         541.858         523.732 
        0.17375         482.652         461.927 
       0.188953         439.669         420.295 
       0.204907         363.861          356.81 
       0.220756         321.399         300.213 
        0.23588         288.521         270.405 
         0.2514         260.699         247.187 
       0.267535         242.048         217.486 
       0.283568          210.76         190.865 
       0.299022         197.884         173.747 
       0.314451         190.347         159.794 
       0.330372         166.165         144.361 
       0.346141         152.729         130.405 
       0.361624         142.849         119.886 
       0.377134         130.765         110.931 
       0.392932         126.767          101.97 
       0.408854         118.057         93.6475 
       0.424564         112.577         86.7759 
       0.440253         102.514         80.7758 
       0.455999         94.5898         75.0949 
       0.471626         90.8672         69.8951 
        0.48727         88.0446         65.3058 
       0.502856         81.2066         61.2066 
       0.518488         78.1605         57.3981 
       0.534347         73.6439         53.8201 
       0.550082         71.2845         50.6066 
       0.565732         69.0618         47.6935 
       0.581496         63.9793         44.9817 
       0.597222         61.6165         42.4703 
       0.612804         59.3746         40.1807 
       0.628434         58.0939          38.062 
       0.644267         54.9412         36.0703 
       0.660051         52.8086         34.2267 
       0.675724          50.946         32.5244 
       0.691403         50.0382         30.9381 
       0.707174         48.2699         29.4501 
       0.722871         46.8415         28.0671 
        0.73838         44.8112         26.7886 
       0.754018         42.4606         25.5808 
       0.769845         41.8807         24.4349 
        0.78569         40.4207         23.3587 
       0.801365         39.2675         22.3584 
       0.817031         37.7409         21.4178 
       0.832809         37.0926         20.5258 
       0.848511         35.9313          19.689 
       0.864097         35.1076          18.905 
       0.879701          34.419         18.1633 
       0.895507         33.1664          17.453 
       0.911279         32.2125         16.7825 
        0.92691         31.6194         16.1531 
       0.942635         30.9335         15.5528 
       0.958396         30.3304          14.982 
       0.974128         29.5222         14.4412 
       0.989692         28.3904         13.9327 
        1.00528         28.0964         13.4482 
        1.02113         27.3597         12.9794 
        1.03692         26.9066         12.5348 
        1.05264         26.3332         12.1134 
        1.06832         25.8408         11.7122 
        1.08405         25.1076         11.3282 
        1.09979          24.833         10.9614 
        1.11537         24.0417         10.6146 
        1.13105         23.6768         10.2809 
        1.14679         23.0884         9.96044 
        1.16256         22.7735          9.6531 
        1.17828         22.4238         9.35986 
        1.19395         21.9903          9.0799 
         1.2097          21.586         8.81007 
        1.22537         21.1845          8.5526 
          1.241         20.7668          8.3063 
        1.25666         20.4837         8.06916 
        1.27241         20.1693         7.84024 
        1.28819         19.4134          7.6199 
        1.30392         19.6274         7.40874 
        1.31957         19.1182         7.20659 
        1.33529         18.7736          7.0113 
        1.35108         18.5764         6.82254 
        1.36674         18.2386         6.64213 
         1.3824         17.8822         6.46847 
        1.39811         17.5406          6.3005 
        1.41389          17.357         6.13789 
        1.42964         17.1651         5.98134 
        1.44531         16.8846         5.83107 
        1.46101         16.6523         5.68568 
        1.47667         16.3977         5.54572 
        1.49229         16.0339         5.41089 
        1.50793         15.9174         5.28042 
        1.52367         15.7069         5.15345 
        1.53953         15.4924         5.02983 
        1.55526          15.192         4.91129 
        1.57092         15.1651         4.79709 
        1.58662         14.9282         4.68628 
        1.60235         14.6906         4.57879 
        1.61809         14.5129         4.47463 
        1.63369         14.3031         4.37467 
        1.64941         14.1376         4.27707 
        1.66519         13.9463         4.18212 
        1.68085         13.6641         4.09075 
        1.69652         13.6991          4.0021 
        1.71228         13.4338         3.91559 
        1.72806         13.2413          3.8316 
        1.74368         13.1258         3.75092 
        1.75933         12.9863         3.67243 
        1.77505         12.8103         3.59583 
        1.79081         12.6619          3.5213 
         1.8065         12.5693         3.44922 
        1.82218         12.4587         3.37923 
        1.83797         12.3088         3.31071 
        1.85367         12.1958         3.24449 
        1.86928         12.0348         3.18049 
        1.88497         11.9076         3.11788 
        1.90073         11.7397         3.05674 
        1.91647         11.4906          2.9973 
        1.93218         11.5052         2.93958 
        1.94787         11.2951         2.88347 
        1.96363         11.2402         2.82862 
        1.97935         11.1101         2.77532 
        1.99499         10.9805          2.7237 
        2.01064         10.8637         2.67333 
         2.0264         10.7126         2.62392 
        2.04216         10.7408         2.57579 
        2.05781         10.5979         2.52919 
        2.07353         10.4674         2.48358 
        2.08928         10.3339           2.439 
        2.10499         10.2256         2.39564 
        2.12065         10.1572         2.35347 
        2.13633         10.0316         2.31229 
        2.15211         9.94894         2.27184 
        2.16785         9.82615         2.23247 
        2.18349         9.73667         2.19429 
        2.19916         9.65925         2.15692 
        2.21489         9.57186         2.12031 
        2.23063         9.52654         2.08453 
         2.2463         9.35164         2.04974 
        2.26194         9.28136         2.01584 
        2.27765          9.1836         1.98253 
        2.29341         9.07601          1.9499 
        2.30914         9.05317         1.91807 
        2.32486          8.9611         1.88697 
        2.34061         8.89668         1.85652 
        2.35635         8.80722         1.82677 
        2.37203         8.69219         1.79778 
        2.38768         8.61026         1.76948 
        2.40339         8.56781         1.74169 
        2.41914         8.46503         1.71444 
        2.43483         8.44765         1.68787 
         2.4505         8.34409         1.66191 
        2.46622         8.25296         1.63641 
        2.48195         8.23882         1.61145 
        2.49759         8.09698         1.58715 
        2.51328         8.06906         1.56328 
        2.52906         7.97823         1.53976 
        2.54479         7.90879         1.51682 
        2.56049         7.82373         1.49438 
        2.57618         7.79225         1.47243 
        2.59189         7.79237         1.45088 
        2.60758         7.65575         1.42981 
        2.62325         7.58758         1.40918 
        2.63898         7.59385         1.38888 
        2.65468         7.47945         1.36903 
        2.67044         7.44226         1.34949 
        2.68618         7.34387         1.33038 
        2.70184         7.32316         1.31171 
        2.71755         7.24765         1.29336 
        2.73329         7.15344         1.27533 
        2.74897         7.11714         1.25771 
        2.76462         7.09691         1.24046 
        2.78034         7.01737         1.22347 
        2.79607         6.99574         1.20677 
        2.81179         6.90779         1.19041 
        2.82749         6.84616         1.17438 
        2.84321         6.81596         1.15862 
        2.85893         6.76844         1.14316 
        2.87462         6.71782         1.12801 
        2.89033         6.64158         1.11312 
        2.90605         6.61195         1.09849 
        2.92176         6.54697         1.08413 
        2.93747         6.49744         1.07003 
        2.95318         6.44349         1.05619 
        2.96891         6.39555         1.04258 
        2.98456         6.35081         1.02928 
        3.00023         6.32416         1.01619 
        3.01596          6.2355         1.00328 
        3.03164         6.21463        0.990644 
        3.04738         6.16534        0.978186 
         3.0631         6.12014        0.965947 
        3.07883          6.0782        0.953919 
        3.09456         6.00185        0.942098 
        3.11026         5.97549        0.930497 
        3.12596         5.93477        0.919094 
        3.14163         5.90506         0.90791 
        3.15734         5.84889        0.896886 
        3.17308         5.84593        0.886019 
        3.18879         5.77184        0.875364 
        3.20447         5.73467          0.8649 
         3.2202         5.68607        0.854576 
         3.2359         5.64662        0.844439 
        3.25157         5.61497        0.834492 
        3.26729         5.58084        0.824676 
        3.28304         5.53869           0.815 
        3.29877         5.50521        0.805492 
        3.31446          5.4788        0.796157 
        3.33014         5.41603        0.786979 
        3.34585         5.39089        0.777933 
        3.36158         5.34119        0.769016 
        3.37727         5.30629        0.760268 
        3.39294         5.27708        0.751664 
        3.40867         5.24695        0.743164 
        3.42439         5.19439          0.7348 
        3.44008         5.17029        0.726581 
        3.45578         5.13003        0.718483 
        3.47153         5.08499        0.710492 
        3.48724         5.05412        0.702636 
        3.50292         5.01402        0.694918 
        3.51859            4.99        0.687321 
        3.53431          4.9557        0.679814 
        3.55007         4.92594        0.672401 
        3.56577         4.87763        0.665129 
        3.58146         4.85619        0.657967 
        3.59719         4.82683        0.650896 
        3.61292          4.7903        0.643931 
        3.62859         4.76635        0.637095 
        3.64429         4.73153        0.630345 
        3.66003         4.70316        0.623673 
        3.67578         4.68344        0.617101 
        3.69146         4.64138        0.610649 
        3.70712         4.62287        0.604301 
        3.72284         4.59259         0.59802 
        3.73853         4.54982         0.59184 
        3.75422         4.51378        0.585745 
        3.76993         4.50888        0.579732 
        3.78564         4.46548        0.573805 
        3.80137         4.43219        0.567953 
        3.81707         4.39977        0.562194 
        3.83279         4.37848        0.556512 
        3.84853         4.33746        0.550898 
        3.86424          4.3199        0.545374 
        3.87992         4.30099        0.539934 
        3.89561         4.27332        0.534569 
        3.91134         4.23457        0.529265 
        3.92704         4.20251         0.52404 
        3.94273         4.18702        0.518892 
        3.95845         4.15864        0.513803 
        3.97418         4.12656        0.508782 
        3.98988         4.10304        0.503835 
        4.00554         4.07637        0.498967 
        4.02125          4.0403        0.494151 
        4.03698         4.02283         0.48939 
        4.05268         3.98565        0.484704 
        4.06839         3.96552        0.480076 
         4.0841         3.93526         0.47551 
        4.09983         3.91544        0.470997 
        4.11555         3.88921        0.466545 
        4.13124         3.86052        0.462163 
        4.14693         3.84161        0.457833 
        4.16266         3.81667         0.45355 
        4.17839         3.78861        0.449324 
        4.19408          3.7695        0.445162 
        4.20977         3.74438        0.441051 
        4.22551         3.71208        0.436982 
        4.24123          3.6867        0.432969 
        4.25691         3.66656        0.429018 
        4.27259         3.64242        0.425115 
        4.28831         3.61278        0.421253 
        4.30404         3.60258        0.417435 
        4.31974         3.57153        0.413674 
        4.33543         3.55393        0.409961 
        4.35116         3.53525        0.406284 
        4.36688         3.51026        0.402655 
        4.38255         3.49452        0.399084 
        4.39825         3.47105        0.395548 
        4.41398         3.44496        0.392049 
         4.4297         3.43376        0.388595 
        4.44541         3.40665        0.385184 
        4.46111         3.37294        0.381817 
        4.47683           3.362        0.378488 
        4.49251         3.34065        0.375206 
        4.50819         3.31933        0.371963 
         4.5239         3.29705        0.368755 
        4.53962         3.27117         0.36558 
        4.55535         3.25782        0.362441 
        4.57106         3.23794        0.359344 
        4.58678         3.21738        0.356283 
         4.6025         3.20399        0.353257 
        4.61821         3.18146        0.350267 
        4.63391         3.15649        0.347315 
         4.6496         3.13792        0.344398 
        4.66532         3.12456        0.341511 
        4.68103         3.10409        0.338659 
        4.69673         3.08482        0.335841 
        4.71241          3.0691        0.333059 
        4.72811          3.0511        0.330304 
        4.74384           3.041        0.327577 
        4.75955         3.01094        0.324884 
        4.77525         2.99601        0.322224 
        4.79096         2.98106         0.31959 
        4.80669         2.95968        0.316985 
         4.8224         2.94372        0.314412 
        4.83809         2.93366         0.31187 
        4.85379         2.91653        0.309355 
         4.8695         2.89783        0.306866 
        4.88521         2.87385        0.304405 
        4.90093         2.86669        0.301971 
        4.91663         2.84834        0.299566 
        4.93234         2.83072        0.297185 
        4.94807         2.81412        0.294828 
        4.96377         2.80489        0.292501 
        4.97943          2.7886        0.290204 
        4.99514         2.76664        0.287927 
        5.01086         2.75214        0.285672 
        5.02654         2.73281        0.283447 
        5.04227         2.72549        0.281239 
          5.058         2.71093        0.279054 
        5.07371         2.69716        0.276897 
        5.08942         2.67122        0.274762 
        5.10513         2.66286        0.272649 
        5.12084         2.64416        0.270558 
        5.13656         2.63397         0.26849 
        5.15225         2.61595        0.266446 
        5.16796         2.60509        0.264421 
        5.18369         2.58556        0.262415 
         5.1994         2.57451        0.260433 
        5.21509         2.56049        0.258474 
        5.23079         2.55385        0.256533 
        5.24649         2.53323        0.254613 
        5.26217         2.51735        0.252714 
        5.27788          2.5075        0.250833 
        5.29359         2.50082         0.24897 
        5.30933         2.48354        0.247123 
        5.32504         2.47046        0.245298 
        5.34073         2.45648        0.243494 
        5.35646         2.43917        0.241705 
        5.37218         2.43148        0.239933 
        5.38789         2.41697        0.238182 
        5.40357          2.4068         0.23645 
        5.41929         2.39085        0.234732 
        5.43502         2.38104        0.233031 
         5.4507         2.36231        0.231351 
        5.46639         2.34918        0.229687 
        5.48212          2.3418        0.228036 
        5.49786          2.3293        0.226399 
        5.51353         2.31961        0.224786 
        5.52921         2.30455        0.223188 
        5.54495         2.29175          0.2216 
        5.56066         2.28226         0.22003 
        5.57637         2.26813        0.218475 
        5.59207         2.25588        0.216937 
        5.60778         2.25362        0.215413 
        5.62346           2.233        0.213906 
        5.63916         2.22404        0.212412 
        5.65487         2.20994        0.210931 
         5.6706         2.20373        0.209463 
        5.68633         2.19021        0.208008 
        5.70203         2.17908        0.206571 
        5.71773         2.16682        0.205147 
        5.73344         2.15774        0.203736 
        5.74916         2.14566        0.202337 
        5.76486         2.13783        0.200953 
        5.78054         2.12646        0.199584 
        5.79626         2.11475        0.198224 
          5.812         2.09964        0.196876 
         5.8277         2.08893        0.195544 
        5.84339         2.08654        0.194224 
        5.85911         2.07241        0.192914 
        5.87484         2.06474        0.191617 
        5.89053         2.05595        0.190334 
        5.90623         2.04391        0.189062 
        5.92195         2.03272          0.1878 
        5.93767         2.02699         0.18655 
        5.95336         2.01318        0.185314 
        5.96905         2.00602        0.184089 
        5.98476         1.99294        0.182873 
        6.00048         1.98303        0.181669 
        6.01617         1.97525        0.180476 
        6.03185         1.96486        0.179296 
        6.04756         1.95746        0.178124 
        6.06331         1.95031         0.17696 
        6.07903         1.93848        0.175809 
        6.09473         1.93103        0.174669 
        6.11044         1.92162        0.173538 
        6.12616         1.91255        0.172417 
        6.14186         1.90555        0.171308 
        6.15755         1.89444        0.170208 
        6.17326         1.88344        0.169117 
        6.18898         1.87816        0.168036 
        6.20467         1.86758        0.166965 
        6.22036         1.85704        0.165905 
         6.2361         1.85264         0.16485 
         6.2518         1.84439        0.163807 
        6.26748         1.83658        0.162774 
        6.28319         1.82813        0.161748 
        6.29893         1.81633         0.16073 
        6.31463          1.8084        0.159723 
        6.33033         1.79976        0.158724 
        6.34604         1.79491        0.157734 
        6.36177         1.78969        0.156751 
        6.37747           1.779        0.155778 
