# k  (h/Mpc)    Pcb(k)  (Mpc/h)^3    Pcb_linear(k) (Mpc/h)^3   ShotnoiseSubtracted = true
      0.0200456         8408.09         8560.53 
      0.0350414         5761.15         5888.63 
      0.0492313         4251.79         4270.65 
      0.0637834         3665.95         3608.77 
      0.0800726         2813.07         2757.81 
       0.096163         1928.33         1949.68 
       0.111083         1580.46         1616.51 
       0.126058         1466.75         1452.04 
       0.142273            1220         1170.89 
       0.158546         995.924         915.511 
        0.17375         826.888         807.473 
       0.188953         792.871         734.698 
       0.204907         724.687         623.723 
       0.220756         608.734         524.788 
        0.23588         541.874         472.682 
         0.2514         477.721         432.095 
       0.267535         452.227         380.177 
       0.283568         408.986         333.643 
       0.299022         380.566         303.718 
       0.314451         352.459         279.328 
       0.330372         324.992          252.35 
       0.346141         291.967         227.956 
       0.361624         280.325         209.566 
       0.377134         262.014         193.914 
       0.392932         242.615         178.249 
       0.408854         232.604         163.701 
       0.424564          222.59         151.689 
       0.440253         211.522           141.2 
       0.455999         198.708          131.27 
       0.471626         184.252          122.18 
        0.48727         178.694         114.158 
       0.502856         171.823         106.992 
       0.518488         168.068         100.335 
       0.534347         159.664         94.0805 
       0.550082         148.355         88.4631 
       0.565732         143.986         83.3707 
       0.581496         137.628         78.6305 
       0.597222         133.393         74.2404 
       0.612804         127.617          70.238 
       0.628434         124.486         66.5344 
       0.644267         120.222         63.0528 
       0.660051         118.006         59.8301 
       0.675724         114.374         56.8544 
       0.691403         110.821         54.0815 
       0.707174         106.422         51.4804 
       0.722871         104.922         49.0627 
        0.73838         102.781         46.8278 
       0.754018          98.129         44.7165 
       0.769845           96.21         42.7135 
        0.78569         93.8913         40.8322 
       0.801365         91.1276         39.0836 
       0.817031         87.9278         37.4394 
       0.832809         86.9623         35.8801 
       0.848511         83.8801         34.4173 
       0.864097         81.7642         33.0469 
       0.879701         80.6029         31.7504 
       0.895507         78.9511         30.5087 
       0.911279         77.6034         29.3367 
        0.92691         75.8887         28.2365 
       0.942635         73.5206         27.1871 
       0.958396         73.2695         26.1894 
       0.974128         71.3348         25.2441 
       0.989692         69.7381         24.3552 
        1.00528         68.3521         23.5082 
        1.02113         67.1543         22.6887 
        1.03692         65.0939         21.9116 
        1.05264         64.9726         21.1748 
        1.06832         63.1419         20.4735 
        1.08405         62.4123         19.8023 
        1.09979         61.8606         19.1611 
        1.11537         59.5045         18.5549 
        1.13105         59.9702         17.9716 
        1.14679         58.6126         17.4114 
        1.16256         57.6821         16.8741 
        1.17828         56.2484         16.3615 
        1.19395         55.7033         15.8722 
         1.2097         54.4844         15.4005 
        1.22537         54.5351         14.9504 
          1.241          53.068         14.5199 
        1.25666         52.0665         14.1053 
        1.27241         51.5959         13.7052 
        1.28819         50.4929           13.32 
        1.30392         49.7779         12.9509 
        1.31957         49.3706         12.5975 
        1.33529         48.5971         12.2561 
        1.35108         48.2543         11.9262 
        1.36674         47.5389         11.6108 
         1.3824         46.3618         11.3072 
        1.39811         46.1665         11.0136 
        1.41389         45.4538         10.7294 
        1.42964         44.7287         10.4557 
        1.44531         44.1894          10.193 
        1.46101         43.3007         9.93887 
        1.47667         43.2729         9.69422 
        1.49229         42.7315         9.45852 
        1.50793         42.0231         9.23046 
        1.52367         41.4175          9.0085 
        1.53953         41.2142         8.79242 
        1.55526         40.4812         8.58521 
        1.57092          40.117         8.38558 
        1.58662         39.6008         8.19187 
        1.60235          39.158         8.00396 
        1.61809         38.5316          7.8219 
        1.63369          38.021         7.64716 
        1.64941         37.5407         7.47655 
        1.66519         37.0498         7.31056 
        1.68085          36.816         7.15084 
        1.69652         36.2816         6.99588 
        1.71228         36.1077         6.84467 
        1.72806         35.5578         6.69783 
        1.74368         35.0604         6.55682 
        1.75933         34.6688         6.41961 
        1.77505         34.4725         6.28571 
        1.79081         33.9151         6.15542 
         1.8065         33.5783         6.02941 
        1.82218         33.3012         5.90707 
        1.83797         32.8079          5.7873 
        1.85367         32.3619         5.67155 
        1.86928         32.1801         5.55967 
        1.88497          31.781         5.45023 
        1.90073         31.5394         5.34334 
        1.91647         31.1459         5.23944 
        1.93218         30.8998         5.13854 
        1.94787         30.4915         5.04047 
        1.96363         30.3054         4.94458 
        1.97935         29.9046          4.8514 
        1.99499         29.5715         4.76117 
        2.01064         29.4159         4.67312 
         2.0264         28.8877         4.58675 
        2.04216         28.5939         4.50263 
        2.05781         28.2893         4.42116 
        2.07353         28.0573         4.34143 
        2.08928         28.0405          4.2635 
        2.10499         27.6908         4.18771 
        2.12065         27.2336           4.114 
        2.13633         27.1282         4.04201 
        2.15211         26.6068         3.97129 
        2.16785         26.4239         3.90248 
        2.18349         26.2328         3.83573 
        2.19916         26.0227         3.77042 
        2.21489         25.6597         3.70642 
        2.23063         25.4666         3.64387 
         2.2463         25.2779         3.58306 
        2.26194         25.0776         3.52379 
        2.27765         24.7582         3.46557 
        2.29341         24.4962         3.40852 
        2.30914          24.385         3.35288 
        2.32486         24.0473         3.29853 
        2.34061          23.875         3.24529 
        2.35635          23.601         3.19329 
        2.37203         23.4273         3.14261 
        2.38768         23.1561         3.09314 
        2.40339          23.066         3.04457 
        2.41914         22.7955         2.99693 
        2.43483         22.5493         2.95048 
         2.4505         22.3316         2.90511 
        2.46622         22.1115         2.86054 
        2.48195         21.9254          2.8169 
        2.49759         21.6697         2.77442 
        2.51328         21.4646          2.7327 
        2.52906           21.37         2.69159 
        2.54479         21.0885         2.65147 
        2.56049         20.8464         2.61226 
        2.57618         20.6497         2.57388 
        2.59189          20.577         2.53622 
        2.60758         20.3809         2.49938 
        2.62325         20.1761         2.46332 
        2.63898         20.0734         2.42784 
        2.65468         19.8151         2.39315 
        2.67044         19.6523         2.35898 
        2.68618         19.4575         2.32557 
        2.70184         19.3384         2.29294 
        2.71755          19.153         2.26086 
        2.73329         18.9685         2.22935 
        2.74897         18.7198         2.19854 
        2.76462         18.7614         2.16839 
        2.78034         18.4865         2.13869 
        2.79607         18.3418         2.10951 
        2.81179          18.189         2.08091 
        2.82749         18.0188         2.05288 
        2.84321         17.9275         2.02533 
        2.85893         17.7056          1.9983 
        2.87462         17.5365         1.97182 
        2.89033         17.4262         1.94579 
        2.90605         17.3279         1.92021 
        2.92176         17.0496         1.89511 
        2.93747         17.0042         1.87047 
        2.95318         16.7978         1.84627 
        2.96891         16.6778         1.82249 
        2.98456         16.5418         1.79923 
        3.00023         16.3553         1.77635 
        3.01596         16.3141         1.75379 
        3.03164         16.1561          1.7317 
        3.04738         15.9367         1.70992 
         3.0631         15.8039         1.68853 
        3.07883         15.6826          1.6675 
        3.09456         15.5791         1.64684 
        3.11026          15.454         1.62656 
        3.12596         15.2882         1.60663 
        3.14163         15.2117         1.58707 
        3.15734         15.0295          1.5678 
        3.17308         14.9219         1.54881 
        3.18879         14.7995         1.53018 
        3.20447         14.6842         1.51189 
         3.2202         14.5196         1.49384 
         3.2359         14.4497         1.47613 
        3.25157         14.3435         1.45874 
        3.26729          14.203         1.44158 
        3.28304         14.0861         1.42466 
        3.29877         13.9463         1.40804 
        3.31446         13.8236         1.39173 
        3.33014          13.716         1.37568 
        3.34585         13.5913         1.35987 
        3.36158         13.5195         1.34428 
        3.37727         13.3357         1.32899 
        3.39294         13.2598         1.31395 
        3.40867         13.1687         1.29909 
        3.42439         13.0501         1.28447 
        3.44008         12.9799          1.2701 
        3.45578         12.8582         1.25595 
        3.47153         12.7787         1.24198 
        3.48724         12.6528         1.22825 
        3.50292         12.5218         1.21475 
        3.51859         12.4506         1.20147 
        3.53431         12.3557         1.18835 
        3.55007         12.2583         1.17539 
        3.56577         12.1596         1.16268 
        3.58146         12.1036         1.15016 
        3.59719         11.9481          1.1378 
        3.61292         11.8582         1.12563 
        3.62859         11.7502         1.11368 
        3.64429         11.6749         1.10188 
        3.66003          11.574         1.09021 
        3.67578         11.5004         1.07873 
        3.69146         11.3885         1.06745 
        3.70712         11.3088         1.05635 
        3.72284         11.2189         1.04537 
        3.73853         11.0936         1.03457 
        3.75422          11.066         1.02391 
        3.76993         10.9828          1.0134 
        3.78564         10.8492         1.00304 
        3.80137         10.7834        0.992812 
        3.81707         10.6977        0.982746 
        3.83279         10.6027        0.972812 
        3.84853         10.5236           0.963 
        3.86424         10.4251        0.953344 
        3.87992         10.3499        0.943834 
        3.89561         10.2742        0.934455 
        3.91134         10.2067        0.925184 
        3.92704         10.1049        0.916051 
        3.94273         10.0488         0.90705 
        3.95845          9.9724        0.898155 
        3.97418          9.8916        0.889378 
        3.98988         9.79623         0.88073 
        4.00554         9.74852        0.872222 
        4.02125          9.6374        0.863802 
        4.03698         9.59252        0.855481 
        4.05268         9.51779        0.847288 
        4.06839         9.42495        0.839198 
         4.0841         9.37813        0.831216 
        4.09983         9.29622        0.823328 
        4.11555         9.22252        0.815545 
        4.13124         9.15464        0.807885 
        4.14693         9.06762        0.800317 
        4.16266         9.02366        0.792829 
        4.17839          8.9366        0.785442 
        4.19408         8.88822        0.778167 
        4.20977         8.81129         0.77098 
        4.22551         8.74911        0.763868 
        4.24123         8.68236        0.756853 
        4.25691         8.62122        0.749946 
        4.27259         8.52581        0.743124 
        4.28831          8.4685        0.736372 
        4.30404         8.42812        0.729699 
        4.31974         8.36909        0.723124 
        4.33543          8.2815        0.716633 
        4.35116         8.21765        0.710207 
        4.36688         8.15816        0.703863 
        4.38255         8.09941         0.69762 
        4.39825         8.02882        0.691439 
        4.41398         7.98981        0.685322 
         4.4297         7.91906        0.679285 
        4.44541         7.87123        0.673323 
        4.46111         7.80168        0.667437 
        4.47683         7.74511        0.661618 
        4.49251         7.68936         0.65588 
        4.50819         7.62818        0.650212 
         4.5239         7.58839        0.644603 
        4.53962         7.52006        0.639054 
        4.55535         7.45805        0.633567 
        4.57106         7.41173        0.628153 
        4.58678         7.35903        0.622802 
         4.6025         7.29426        0.617512 
        4.61821         7.24109        0.612285 
        4.63391         7.21392        0.607125 
         4.6496         7.13815        0.602027 
        4.66532         7.10851         0.59698 
        4.68103         7.01901        0.591993 
        4.69673         6.98313        0.587069 
        4.71241         6.93689        0.582205 
        4.72811         6.86758        0.577389 
        4.74384         6.83399        0.572621 
        4.75955         6.77263        0.567915 
        4.77525         6.73876        0.563265 
        4.79096         6.68349        0.558661 
        4.80669         6.64613        0.554107 
         4.8224         6.59143        0.549609 
        4.83809         6.53484        0.545165 
        4.85379         6.47577        0.540769 
         4.8695         6.44173        0.536417 
        4.88521         6.40323        0.532116 
        4.90093         6.33303        0.527861 
        4.91663         6.30885        0.523657 
        4.93234         6.26726        0.519495 
        4.94807         6.22331        0.515375 
        4.96377         6.18971        0.511308 
        4.97943         6.12718        0.507293 
        4.99514         6.07963        0.503311 
        5.01086         6.05175         0.49937 
        5.02654         6.00233         0.49548 
        5.04227         5.95998        0.491621 
          5.058         5.92626        0.487802 
        5.07371         5.88679         0.48403 
        5.08942          5.8363        0.480299 
        5.10513         5.80819        0.476606 
        5.12084         5.75646         0.47295 
        5.13656         5.72663        0.469334 
        5.15225         5.70035        0.465762 
        5.16796         5.64476        0.462222 
        5.18369         5.60325        0.458715 
         5.1994         5.57653        0.455251 
        5.21509         5.53365        0.451826 
        5.23079         5.49882        0.448433 
        5.24649         5.46084        0.445077 
        5.26217         5.43317        0.441758 
        5.27788         5.38564        0.438469 
        5.29359         5.34962        0.435212 
        5.30933         5.32363        0.431984 
        5.32504         5.27691        0.428795 
        5.34073         5.24505        0.425641 
        5.35646         5.20582        0.422513 
        5.37218         5.16839        0.419415 
        5.38789         5.14504        0.416354 
        5.40357         5.10678        0.413327 
        5.41929         5.07091        0.410324 
        5.43502         5.03698         0.40735 
         5.4507         5.00756        0.404413 
        5.46639         4.96447        0.401505 
        5.48212         4.92731        0.398619 
        5.49786         4.90908        0.395757 
        5.51353         4.87523        0.392938 
        5.52921         4.84006        0.390144 
        5.54495         4.82022        0.387369 
        5.56066         4.77503        0.384624 
        5.57637         4.74049        0.381906 
        5.59207          4.7138        0.379217 
        5.60778         4.69629        0.376553 
        5.62346         4.66669        0.373919 
        5.63916         4.62827        0.371307 
        5.65487         4.58829        0.368719 
         5.6706         4.56779        0.366153 
        5.68633         4.53391         0.36361 
        5.70203         4.50942        0.361097 
        5.71773         4.48178        0.358608 
        5.73344         4.45527        0.356141 
        5.74916         4.42783        0.353695 
        5.76486         4.40178        0.351276 
        5.78054         4.36642        0.348883 
        5.79626         4.33441        0.346506 
          5.812         4.32297        0.344149 
         5.8277         4.28294        0.341821 
        5.84339         4.26192        0.339514 
        5.85911         4.23927        0.337225 
        5.87484         4.20885        0.334956 
        5.89053         4.18177        0.332714 
        5.90623         4.16364        0.330491 
        5.92195         4.12115        0.328284 
        5.93767         4.10961        0.326099 
        5.95336         4.08572        0.323938 
        5.96905         4.04471        0.321797 
        5.98476         4.02752        0.319673 
        6.00048         3.99992        0.317567 
        6.01617         3.98073        0.315483 
        6.03185         3.96363         0.31342 
        6.04756         3.93534        0.311371 
        6.06331         3.90695        0.309336 
        6.07903         3.87724        0.307323 
        6.09473         3.86348         0.30533 
        6.11044         3.83596        0.303354 
        6.12616         3.82569        0.301395 
        6.14186         3.79249        0.299455 
        6.15755         3.77384        0.297533 
        6.17326          3.7475        0.295626 
        6.18898          3.7303        0.293735 
        6.20467         3.70706        0.291864 
        6.22036         3.68238         0.29001 
         6.2361         3.65835        0.288167 
         6.2518         3.64025        0.286343 
        6.26748          3.6197        0.284538 
        6.28319         3.59411        0.282745 
        6.29893         3.57627        0.280965 
        6.31463         3.54462        0.279204 
        6.33033         3.53751        0.277459 
        6.34604         3.50679        0.275727 
        6.36177         3.49178        0.274008 
        6.37747         3.46962        0.272308 
