# k  (h/Mpc)    Pcb(k)  (Mpc/h)^3    Pcb_linear(k) (Mpc/h)^3   ShotnoiseSubtracted = true
      0.0200456         9844.18         9991.75 
      0.0350414          7069.4         6873.14 
      0.0492313         4954.93         4984.64 
      0.0637834         4069.32         4212.11 
      0.0800726         3107.26         3218.88 
       0.096163         2367.97         2275.65 
       0.111083         1979.46         1886.77 
       0.126058         1673.57          1694.8 
       0.142273          1386.5         1366.65 
       0.158546          1128.1         1068.57 
        0.17375         1009.02         942.472 
       0.188953          931.71         857.531 
       0.204907          776.99         728.002 
       0.220756         692.925         612.526 
        0.23588         623.045         551.709 
         0.2514         559.082         504.336 
       0.267535         534.314         443.738 
       0.283568          464.77         389.424 
       0.299022         443.089         354.496 
       0.314451         441.628         326.028 
       0.330372         378.958          294.54 
       0.346141          351.06         266.067 
       0.361624         333.858         244.603 
       0.377134         309.242         226.333 
       0.392932         300.458          208.05 
       0.408854         284.879          191.07 
       0.424564         273.869         177.049 
       0.440253         247.232         164.807 
       0.455999         234.725         153.217 
       0.471626         232.555         142.607 
        0.48727         221.658         133.244 
       0.502856         202.569          124.88 
       0.518488         202.411          117.11 
       0.534347         188.281          109.81 
       0.550082         183.885         103.253 
       0.565732         181.663         97.3093 
       0.581496         168.874         91.7765 
       0.597222         165.039         86.6524 
       0.612804         159.716         81.9809 
       0.628434         154.959         77.6581 
       0.644267          147.42         73.5944 
       0.660051         143.725         69.8329 
       0.675724         141.964         66.3597 
       0.691403         138.333         63.1232 
       0.707174         133.441         60.0873 
       0.722871         131.262         57.2654 
        0.73838         129.215         54.6568 
       0.754018         121.305         52.1926 
       0.769845         121.055         49.8546 
        0.78569         117.736         47.6589 
       0.801365         113.906         45.6179 
       0.817031         110.726         43.6988 
       0.832809         108.737         41.8788 
       0.848511         106.222         40.1715 
       0.864097           104.4         38.5719 
       0.879701         102.755         37.0586 
       0.895507         99.3029         35.6094 
       0.911279         97.3365         34.2414 
        0.92691          95.072         32.9572 
       0.942635         92.9239         31.7325 
       0.958396         92.4573         30.5679 
       0.974128         90.3466         29.4646 
       0.989692         88.2482         28.4271 
        1.00528         86.8049         27.4385 
        1.02113         84.6588         26.4819 
        1.03692         84.5259         25.5749 
        1.05264         83.3166          24.715 
        1.06832         80.4999         23.8964 
        1.08405         79.7613          23.113 
        1.09979         79.1199         22.3646 
        1.11537         76.9589         21.6571 
        1.13105         75.7372         20.9763 
        1.14679         74.7077         20.3223 
        1.16256         73.2445         19.6953 
        1.17828         72.6508          19.097 
        1.19395         70.7335         18.5258 
         1.2097         70.7563         17.9752 
        1.22537         69.0388         17.4499 
          1.241         68.8337         16.9474 
        1.25666         66.4417         16.4635 
        1.27241         66.3337         15.9965 
        1.28819         65.6906         15.5469 
        1.30392         64.3109         15.1161 
        1.31957         63.9661         14.7036 
        1.33529         62.9787         14.3052 
        1.35108         62.3408         13.9201 
        1.36674         61.2909          13.552 
         1.3824         60.5578         13.1977 
        1.39811         59.3692         12.8549 
        1.41389         58.5517         12.5232 
        1.42964         58.0286         12.2038 
        1.44531         57.3174         11.8972 
        1.46101         56.8048         11.6005 
        1.47667         55.8941          11.315 
        1.49229         55.1667         11.0399 
        1.50793         54.6009         10.7737 
        1.52367         54.1479         10.5146 
        1.53953         53.3416         10.2624 
        1.55526         52.4061         10.0205 
        1.57092         52.3057         9.78754 
        1.58662         51.5475         9.56145 
        1.60235         50.8672         9.34212 
        1.61809         50.0585         9.12962 
        1.63369         49.4594         8.92566 
        1.64941         49.1279         8.72653 
        1.66519         48.1272          8.5328 
        1.68085         47.8635         8.34637 
        1.69652         46.9564          8.1655 
        1.71228         46.7903         7.98901 
        1.72806         46.2125         7.81763 
        1.74368         45.5059         7.65303 
        1.75933         45.2877         7.49288 
        1.77505          44.795          7.3366 
        1.79081         44.3026         7.18453 
         1.8065         43.7327         7.03745 
        1.82218          42.726         6.89465 
        1.83797         42.4896         6.75487 
        1.85367         42.1854         6.61976 
        1.86928         41.9413         6.48918 
        1.88497         41.1622         6.36143 
        1.90073         40.7398         6.23668 
        1.91647         40.6073         6.11541 
        1.93218         40.3783         5.99764 
        1.94787         39.7226         5.88317 
        1.96363         39.1003         5.77125 
        1.97935         38.8318          5.6625 
        1.99499         38.3838         5.55718 
        2.01064         37.8457          5.4544 
         2.0264         37.7527          5.3536 
        2.04216         37.3033         5.25541 
        2.05781         36.8934         5.16032 
        2.07353         36.3165         5.06726 
        2.08928         36.3116          4.9763 
        2.10499         35.9038         4.88784 
        2.12065         35.4031         4.80181 
        2.13633         35.2982         4.71778 
        2.15211         34.6607         4.63524 
        2.16785         34.2148         4.55492 
        2.18349         33.9677         4.47702 
        2.19916         33.6318         4.40078 
        2.21489         33.4065         4.32608 
        2.23063         33.0529         4.25308 
         2.2463         32.8334          4.1821 
        2.26194         32.3487         4.11292 
        2.27765         32.0599         4.04497 
        2.29341          31.719         3.97838 
        2.30914          31.395         3.91344 
        2.32486         31.0481            3.85 
        2.34061         30.8326         3.78786 
        2.35635         30.5339         3.72716 
        2.37203         30.2797         3.66801 
        2.38768         30.0359         3.61027 
        2.40339         29.7789         3.55358 
        2.41914         29.4719         3.49798 
        2.43483         29.3176         3.44377 
         2.4505         28.9032          3.3908 
        2.46622         28.5539         3.33878 
        2.48195         28.3873         3.28785 
        2.49759         27.9609         3.23826 
        2.51328         27.7628         3.18957 
        2.52906         27.5802         3.14158 
        2.54479         27.3188         3.09477 
        2.56049         27.1836           3.049 
        2.57618         26.8236          3.0042 
        2.59189         26.5442         2.96025 
        2.60758          26.334         2.91724 
        2.62325         26.0138         2.87515 
        2.63898          25.939         2.83375 
        2.65468         25.5721         2.79325 
        2.67044         25.3445         2.75338 
        2.68618         25.0915         2.71438 
        2.70184         24.8265         2.67629 
        2.71755          24.616         2.63885 
        2.73329         24.3815         2.60207 
        2.74897         24.1989         2.56611 
        2.76462         24.0172         2.53092 
        2.78034         23.6826         2.49625 
        2.79607         23.5038         2.46219 
        2.81179         23.2822         2.42881 
        2.82749         23.0767         2.39609 
        2.84321         22.8643         2.36394 
        2.85893         22.7058         2.33239 
        2.87462         22.5108         2.30148 
        2.89033         22.2982          2.2711 
        2.90605           22.01         2.24125 
        2.92176         21.7669         2.21195 
        2.93747          21.658         2.18319 
        2.95318         21.5502         2.15494 
        2.96891         21.2285         2.12718 
        2.98456         21.1223         2.10004 
        3.00023         20.8305         2.07333 
        3.01596         20.5592         2.04701 
        3.03164         20.4893         2.02122 
        3.04738         20.3407          1.9958 
         3.0631         20.1258         1.97083 
        3.07883         19.9507         1.94629 
        3.09456         19.7613         1.92217 
        3.11026          19.573          1.8985 
        3.12596         19.3483         1.87523 
        3.14163         19.2597         1.85241 
        3.15734          19.113         1.82992 
        3.17308          18.903         1.80775 
        3.18879         18.6913         1.78601 
        3.20447         18.6411         1.76466 
         3.2202         18.3612          1.7436 
         3.2359         18.1911         1.72291 
        3.25157         18.0654         1.70262 
        3.26729         17.9467         1.68259 
        3.28304         17.8237         1.66285 
        3.29877         17.6906         1.64345 
        3.31446          17.503          1.6244 
        3.33014         17.2682         1.60568 
        3.34585         17.2562         1.58722 
        3.36158         17.0206         1.56903 
        3.37727           16.91         1.55118 
        3.39294         16.7378         1.53363 
        3.40867         16.6236         1.51628 
        3.42439         16.4413         1.49922 
        3.44008         16.2977         1.48245 
        3.45578         16.1575         1.46593 
        3.47153         16.0567         1.44962 
        3.48724         15.9322         1.43359 
        3.50292         15.8025         1.41785 
        3.51859         15.6622         1.40234 
        3.53431         15.5168         1.38703 
        3.55007         15.4011          1.3719 
        3.56577         15.2886         1.35707 
        3.58146         15.1167         1.34245 
        3.59719          15.016         1.32803 
        3.61292           14.89         1.31382 
        3.62859         14.7122         1.29987 
        3.64429         14.6393          1.2861 
        3.66003         14.5074         1.27248 
        3.67578         14.4481         1.25908 
        3.69146         14.2921         1.24591 
        3.70712         14.1474         1.23296 
        3.72284         14.0169         1.22014 
        3.73853         13.9451         1.20753 
        3.75422         13.7598          1.1951 
        3.76993         13.6737         1.18283 
        3.78564         13.6071         1.17074 
        3.80137         13.4668          1.1588 
        3.81707         13.3158         1.14705 
        3.83279         13.2739         1.13545 
        3.84853         13.1463           1.124 
        3.86424         13.0199         1.11273 
        3.87992          12.923         1.10163 
        3.89561         12.7937         1.09068 
        3.91134          12.721         1.07986 
        3.92704         12.6188          1.0692 
        3.94273         12.5368          1.0587 
        3.95845         12.4046         1.04832 
        3.97418         12.2967         1.03807 
        3.98988         12.2263         1.02798 
        4.00554         12.1193         1.01805 
        4.02125         12.0256         1.00822 
        4.03698         11.9443        0.998506 
        4.05268         11.8271        0.988944 
        4.06839         11.7194        0.979501 
         4.0841         11.6337        0.970185 
        4.09983         11.5415        0.960977 
        4.11555         11.4591        0.951894 
        4.13124         11.3629        0.942953 
        4.14693         11.2669         0.93412 
        4.16266          11.195         0.92538 
        4.17839         11.0939        0.916758 
        4.19408         11.0299        0.908266 
        4.20977         10.9018        0.899878 
        4.22551         10.8488        0.891577 
        4.24123         10.7651         0.88339 
        4.25691         10.6566        0.875328 
        4.27259         10.5745        0.867364 
        4.28831         10.4928        0.859484 
        4.30404         10.4149        0.851695 
        4.31974         10.3449         0.84402 
        4.33543         10.2387        0.836445 
        4.35116         10.1906        0.828944 
        4.36688         10.0884        0.821539 
        4.38255         10.0187        0.814253 
        4.39825         9.92988        0.807039 
        4.41398         9.86595        0.799899 
         4.4297         9.76531        0.792853 
        4.44541         9.72684        0.785894 
        4.46111         9.61984        0.779024 
        4.47683         9.54469        0.772232 
        4.49251         9.48146        0.765535 
        4.50819         9.41849        0.758919 
         4.5239         9.36128        0.752372 
        4.53962         9.25934        0.745895 
        4.55535         9.21003        0.739491 
        4.57106         9.13175        0.733173 
        4.58678           9.076        0.726927 
         4.6025         9.00236        0.720752 
        4.61821         8.91921        0.714651 
        4.63391         8.84157        0.708628 
         4.6496         8.78234        0.702678 
        4.66532         8.74395        0.696787 
        4.68103         8.63582        0.690967 
        4.69673         8.59129        0.685219 
        4.71241         8.50877        0.679542 
        4.72811         8.44495        0.673921 
        4.74384         8.41565        0.668356 
        4.75955         8.35426        0.662863 
        4.77525         8.29435        0.657435 
        4.79096         8.22848        0.652062 
        4.80669         8.14417        0.646746 
         4.8224         8.09612        0.641496 
        4.83809         8.03806         0.63631 
        4.85379         7.99686        0.631179 
         4.8695         7.93817          0.6261 
        4.88521          7.8634        0.621079 
        4.90093         7.83354        0.616113 
        4.91663         7.76271        0.611206 
        4.93234         7.70174        0.606348 
        4.94807         7.64571        0.601539 
        4.96377         7.58272        0.596792 
        4.97943         7.52098        0.592106 
        4.99514         7.47832        0.587459 
        5.01086         7.42585        0.582858 
        5.02654         7.37203        0.578318 
        5.04227         7.30542        0.573814 
          5.058         7.26874        0.569356 
        5.07371         7.24616        0.564954 
        5.08942         7.15421        0.560598 
        5.10513         7.11795        0.556288 
        5.12084         7.05837        0.552022 
        5.13656         7.01059        0.547801 
        5.15225         6.97359        0.543632 
        5.16796         6.91855        0.539499 
        5.18369         6.87039        0.535406 
         5.1994         6.83157        0.531363 
        5.21509         6.77551        0.527366 
        5.23079         6.72279        0.523405 
        5.24649         6.68848        0.519488 
        5.26217         6.63865        0.515615 
        5.27788         6.59057        0.511775 
        5.29359         6.55511        0.507974 
        5.30933         6.48953        0.504207 
        5.32504         6.46873        0.500484 
        5.34073         6.41032        0.496803 
        5.35646         6.36739        0.493151 
        5.37218         6.33186        0.489536 
        5.38789         6.27918        0.485963 
        5.40357         6.23193         0.48243 
        5.41929         6.19821        0.478925 
        5.43502         6.15942        0.475454 
         5.4507         6.11174        0.472026 
        5.46639         6.06862        0.468631 
        5.48212         6.02581        0.465263 
        5.49786          5.9844        0.461923 
        5.51353         5.95479        0.458633 
        5.52921         5.90488        0.455371 
        5.54495         5.87395        0.452132 
        5.56066          5.8406        0.448928 
        5.57637         5.79147        0.445756 
        5.59207         5.74565        0.442618 
        5.60778         5.72316        0.439508 
        5.62346         5.67788        0.436433 
        5.63916         5.63446        0.433385 
        5.65487         5.59433        0.430364 
         5.6706         5.56114        0.427369 
        5.68633         5.52415        0.424401 
        5.70203         5.49183        0.421467 
        5.71773         5.45826        0.418562 
        5.73344         5.42542        0.415683 
        5.74916          5.3825        0.412829 
        5.76486         5.35386        0.410005 
        5.78054         5.31013        0.407212 
        5.79626          5.2779        0.404438 
          5.812         5.24531        0.401686 
         5.8277         5.21157        0.398969 
        5.84339         5.18312        0.396277 
        5.85911         5.14409        0.393604 
        5.87484         5.10973        0.390957 
        5.89053         5.06617        0.388339 
        5.90623         5.05086        0.385745 
        5.92195         5.02372        0.383169 
        5.93767         4.96855        0.380619 
        5.95336         4.94769        0.378096 
        5.96905         4.92665        0.375597 
        5.98476         4.89142        0.373118 
        6.00048          4.8624         0.37066 
        6.01617         4.83415        0.368227 
        6.03185         4.79658         0.36582 
        6.04756         4.76952        0.363428 
        6.06331         4.73783        0.361053 
        6.07903         4.70723        0.358704 
        6.09473         4.68696        0.356378 
        6.11044         4.64449         0.35407 
        6.12616         4.62275        0.351784 
        6.14186         4.57999         0.34952 
        6.15755         4.55898        0.347277 
        6.17326          4.5343        0.345051 
        6.18898         4.50593        0.342844 
        6.20467         4.47396         0.34066 
        6.22036         4.45694        0.338496 
         6.2361         4.41309        0.336345 
         6.2518         4.39413        0.334216 
        6.26748         4.36162         0.33211 
        6.28319          4.3502        0.330016 
        6.29893         4.31294        0.327939 
        6.31463         4.29302        0.325883 
        6.33033         4.26825        0.323846 
        6.34604          4.2396        0.321825 
        6.36177         4.21517        0.319819 
        6.37747         4.19485        0.317834 
