# k  (h/Mpc)    Pcb(k)  (Mpc/h)^3    Pcb_linear(k) (Mpc/h)^3   ShotnoiseSubtracted = true
      0.0200456         12.3478         12.5159 
      0.0350414         8.67426         8.60944 
      0.0492313         6.27341         6.24387 
      0.0637834         5.25594         5.27618 
      0.0800726         4.02759         4.03203 
       0.096163         2.87881         2.85052 
       0.111083         2.37805          2.3634 
       0.126058           2.114         2.12294 
       0.142273         1.71195         1.71189 
       0.158546         1.34674         1.33852 
        0.17375          1.1838         1.18056 
       0.188953         1.07159         1.07416 
       0.204907        0.910051         0.91191 
       0.220756        0.769801        0.767262 
        0.23588         0.69124        0.691082 
         0.2514        0.630931        0.631742 
       0.267535        0.556239        0.555835 
       0.283568        0.488886          0.4878 
       0.299022        0.444305        0.444049 
       0.314451        0.409081        0.408389 
       0.330372        0.369346        0.368946 
       0.346141        0.333894        0.333281 
       0.361624        0.306535        0.306395 
       0.377134         0.28336         0.28351 
       0.392932        0.261679        0.260608 
       0.408854        0.239519        0.239338 
       0.424564        0.222456        0.221776 
       0.440253        0.206725        0.206441 
       0.455999        0.191814        0.191922 
       0.471626        0.178657        0.178633 
        0.48727        0.167289        0.166904 
       0.502856        0.156853        0.156428 
       0.518488        0.146601        0.146694 
       0.534347        0.137283         0.13755 
       0.550082        0.129602        0.129337 
       0.565732        0.122464        0.121892 
       0.581496        0.115178        0.114961 
       0.597222        0.108665        0.108543 
       0.612804        0.102846        0.102691 
       0.628434       0.0973195       0.0972761 
       0.644267       0.0923644       0.0921858 
       0.660051       0.0877293       0.0874742 
       0.675724        0.083256       0.0831235 
       0.691403       0.0791221       0.0790695 
       0.707174       0.0753872       0.0752665 
       0.722871       0.0720588       0.0717318 
        0.73838       0.0685285       0.0684643 
       0.754018       0.0654316       0.0653775 
       0.769845       0.0624199       0.0624489 
        0.78569       0.0597907       0.0596985 
       0.801365       0.0573112       0.0571419 
       0.817031       0.0548725        0.054738 
       0.832809       0.0525549       0.0524583 
       0.848511       0.0504314       0.0503196 
       0.864097       0.0484866       0.0483159 
       0.879701       0.0466553       0.0464204 
       0.895507       0.0446621       0.0446051 
       0.911279       0.0430228       0.0428915 
        0.92691       0.0414994       0.0412829 
       0.942635       0.0398407       0.0397487 
       0.958396       0.0384415         0.03829 
       0.974128         0.03705       0.0369079 
       0.989692       0.0357292       0.0356083 
        1.00528       0.0344547         0.03437 
        1.02113        0.033368       0.0331718 
        1.03692       0.0322205       0.0320357 
        1.05264       0.0310959       0.0309585 
        1.06832       0.0300812       0.0299331 
        1.08405       0.0290806       0.0289518 
        1.09979       0.0281866       0.0280144 
        1.11537       0.0272043       0.0271281 
        1.13105       0.0263559       0.0262753 
        1.14679       0.0255479       0.0254562 
        1.16256       0.0248202       0.0246707 
        1.17828       0.0240766       0.0239213 
        1.19395       0.0233355       0.0232058 
         1.2097       0.0226481       0.0225162 
        1.22537       0.0219571       0.0218581 
          1.241       0.0213282       0.0212286 
        1.25666       0.0207512       0.0206226 
        1.27241       0.0201579       0.0200375 
        1.28819       0.0195695       0.0194744 
        1.30392       0.0190721       0.0189347 
        1.31957       0.0185298       0.0184181 
        1.33529       0.0180684        0.017919 
        1.35108       0.0175309       0.0174366 
        1.36674       0.0171272       0.0169755 
         1.3824       0.0166285       0.0165317 
        1.39811       0.0162023       0.0161024 
        1.41389       0.0158216       0.0156868 
        1.42964        0.015387       0.0152867 
        1.44531       0.0150115       0.0149026 
        1.46101       0.0146356       0.0145311 
        1.47667       0.0142916       0.0141734 
        1.49229        0.013945       0.0138288 
        1.50793       0.0136168       0.0134953 
        1.52367       0.0132909       0.0131708 
        1.53953        0.012943       0.0128549 
        1.55526       0.0126505       0.0125519 
        1.57092       0.0123891       0.0122601 
        1.58662       0.0120855       0.0119769 
        1.60235       0.0118029       0.0117021 
        1.61809       0.0115512       0.0114359 
        1.63369       0.0112914       0.0111805 
        1.64941       0.0110262        0.010931 
        1.66519       0.0107951       0.0106884 
        1.68085       0.0105583       0.0104548 
        1.69652       0.0103423       0.0102283 
        1.71228       0.0100953       0.0100072 
        1.72806      0.00991534      0.00979252 
        1.74368      0.00969647      0.00958634 
        1.75933      0.00948832      0.00938574 
        1.77505      0.00930458      0.00918997 
        1.79081      0.00910347      0.00899949 
         1.8065       0.0089324      0.00881526 
        1.82218      0.00873834      0.00863639 
        1.83797      0.00856023      0.00846129 
        1.85367      0.00839462      0.00829204 
        1.86928      0.00820996      0.00812848 
        1.88497      0.00806228      0.00796846 
        1.90073      0.00789526      0.00781219 
        1.91647      0.00777698      0.00766029 
        1.93218      0.00762725      0.00751277 
        1.94787      0.00746692      0.00736938 
        1.96363      0.00732182      0.00722919 
        1.97935      0.00718839      0.00709296 
        1.99499      0.00706122      0.00696103 
        2.01064      0.00692219       0.0068323 
         2.0264       0.0068007      0.00670603 
        2.04216      0.00668801      0.00658303 
        2.05781      0.00655711      0.00646392 
        2.07353      0.00644602      0.00634735 
        2.08928      0.00632573      0.00623342 
        2.10499      0.00622961      0.00612261 
        2.12065      0.00610945      0.00601484 
        2.13633      0.00600756      0.00590959 
        2.15211      0.00590131       0.0058062 
        2.16785      0.00578623      0.00570559 
        2.18349      0.00570241        0.005608 
        2.19916      0.00559898      0.00551251 
        2.21489      0.00550609      0.00541894 
        2.23063      0.00542314      0.00532749 
         2.2463      0.00533727      0.00523858 
        2.26194      0.00524864      0.00515193 
        2.27765      0.00516061      0.00506681 
        2.29341      0.00507062       0.0049834 
        2.30914      0.00499194      0.00490206 
        2.32486      0.00490809      0.00482259 
        2.34061      0.00482972      0.00474475 
        2.35635      0.00475964      0.00466872 
        2.37203       0.0046919      0.00459463 
        2.38768       0.0046262       0.0045223 
        2.40339      0.00454357      0.00445129 
        2.41914      0.00447259      0.00438164 
        2.43483      0.00441531      0.00431373 
         2.4505      0.00433799      0.00424739 
        2.46622      0.00427133      0.00418222 
        2.48195      0.00420516      0.00411843 
        2.49759      0.00414837      0.00405631 
        2.51328      0.00407834      0.00399533 
        2.52906      0.00402078      0.00393521 
        2.54479      0.00396266      0.00387657 
        2.56049      0.00390224      0.00381924 
        2.57618      0.00385018      0.00376313 
        2.59189      0.00379161      0.00370807 
        2.60758      0.00374612       0.0036542 
        2.62325      0.00368413      0.00360147 
        2.63898       0.0036368      0.00354961 
        2.65468      0.00358044      0.00349888 
        2.67044      0.00353218      0.00344893 
        2.68618      0.00347893      0.00340008 
        2.70184      0.00344389      0.00335238 
        2.71755       0.0033916      0.00330548 
        2.73329      0.00335081       0.0032594 
        2.74897       0.0032962      0.00321437 
        2.76462      0.00325376      0.00317028 
        2.78034      0.00321346      0.00312685 
        2.79607      0.00316886      0.00308419 
        2.81179      0.00312744      0.00304238 
        2.82749      0.00308779      0.00300139 
        2.84321      0.00304469      0.00296112 
        2.85893      0.00300853       0.0029216 
        2.87462      0.00296734      0.00288288 
        2.89033       0.0029283      0.00284483 
        2.90605      0.00288644      0.00280743 
        2.92176      0.00285299      0.00277073 
        2.93747      0.00282007      0.00273471 
        2.95318      0.00277879      0.00269932 
        2.96891      0.00274138      0.00266455 
        2.98456      0.00270824      0.00263055 
        3.00023      0.00268367      0.00259709 
        3.01596      0.00264624      0.00256412 
        3.03164      0.00261222      0.00253182 
        3.04738      0.00258221      0.00249998 
         3.0631      0.00254764       0.0024687 
        3.07883       0.0025211      0.00243796 
        3.09456      0.00248819      0.00240775 
        3.11026      0.00245328       0.0023781 
        3.12596      0.00243122      0.00234896 
        3.14163      0.00240216      0.00232037 
        3.15734      0.00237697       0.0022922 
        3.17308       0.0023482      0.00226443 
        3.18879       0.0023122      0.00223719 
        3.20447      0.00229392      0.00221045 
         3.2202      0.00226329      0.00218406 
         3.2359      0.00223907      0.00215816 
        3.25157      0.00221184      0.00213274 
        3.26729      0.00218375      0.00210765 
        3.28304      0.00216503      0.00208292 
        3.29877       0.0021388      0.00205862 
        3.31446      0.00211336      0.00203476 
        3.33014      0.00208863      0.00201131 
        3.34585      0.00207217      0.00198819 
        3.36158      0.00204658       0.0019654 
        3.37727      0.00202251      0.00194304 
        3.39294      0.00199854      0.00192105 
        3.40867      0.00197783      0.00189932 
        3.42439      0.00195695      0.00187795 
        3.44008      0.00193507      0.00185695 
        3.45578       0.0019165      0.00183625 
        3.47153      0.00189324      0.00181582 
        3.48724      0.00187407      0.00179575 
        3.50292      0.00185562      0.00177602 
        3.51859      0.00184296      0.00175661 
        3.53431      0.00181677      0.00173742 
        3.55007      0.00179631      0.00171847 
        3.56577      0.00177746      0.00169989 
        3.58146      0.00176288      0.00168159 
        3.59719      0.00174415      0.00166351 
        3.61292       0.0017258      0.00164571 
        3.62859      0.00170598      0.00162824 
        3.64429      0.00169326      0.00161099 
        3.66003      0.00167633      0.00159394 
        3.67578      0.00165789      0.00157714 
        3.69146       0.0016449      0.00156065 
        3.70712      0.00162386      0.00154443 
        3.72284      0.00160988      0.00152838 
        3.73853      0.00159046      0.00151258 
        3.75422      0.00157911      0.00149701 
        3.76993      0.00156538      0.00148164 
        3.78564      0.00155085      0.00146649 
        3.80137      0.00153412      0.00145153 
        3.81707      0.00151795      0.00143682 
        3.83279      0.00150128      0.00142229 
        3.84853      0.00149072      0.00140795 
        3.86424      0.00147738      0.00139383 
        3.87992      0.00146349      0.00137993 
        3.89561      0.00144999      0.00136621 
        3.91134      0.00143608      0.00135266 
        3.92704      0.00142597      0.00133931 
        3.94273      0.00141114      0.00132615 
        3.95845      0.00140201      0.00131314 
        3.97418      0.00138846      0.00130031 
        3.98988      0.00137282      0.00128766 
        4.00554      0.00136195      0.00127523 
        4.02125      0.00134568      0.00126291 
        4.03698      0.00132507      0.00125075 
        4.05268      0.00131497      0.00123877 
        4.06839      0.00130426      0.00122694 
         4.0841      0.00129277      0.00121527 
        4.09983       0.0012838      0.00120374 
        4.11555      0.00126831      0.00119236 
        4.13124      0.00126372      0.00118116 
        4.14693      0.00125057       0.0011701 
        4.16266      0.00124304      0.00115915 
        4.17839      0.00123428      0.00114835 
        4.19408        0.001223      0.00113771 
        4.20977      0.00121213      0.00112721 
        4.22551      0.00120475      0.00111681 
        4.24123      0.00119839      0.00110655 
        4.25691      0.00119328      0.00109645 
        4.27259      0.00118354      0.00108648 
        4.28831      0.00117763      0.00107661 
        4.30404      0.00116741      0.00106685 
        4.31974      0.00116481      0.00105724 
        4.33543      0.00115708      0.00104775 
        4.35116      0.00115087      0.00103835 
        4.36688      0.00114555      0.00102908 
        4.38255      0.00113907      0.00101995 
        4.39825      0.00113544      0.00101091 
        4.41398      0.00113203      0.00100197 
         4.4297      0.00112387     0.000993144 
        4.44541      0.00112117     0.000984427 
        4.46111      0.00111822     0.000975822 
        4.47683      0.00111313     0.000967313 
        4.49251      0.00111063     0.000958924 
        4.50819      0.00110791     0.000950637 
         4.5239      0.00110469     0.000942437 
        4.53962      0.00110432     0.000934324 
        4.55535      0.00110092     0.000926302 
        4.57106      0.00110217     0.000918387 
        4.58678      0.00109989     0.000910563 
         4.6025      0.00109993     0.000902829 
        4.61821      0.00109819     0.000895186 
        4.63391      0.00109965     0.000887642 
         4.6496      0.00109628     0.000880189 
        4.66532      0.00110002      0.00087281 
        4.68103      0.00109868     0.000865519 
        4.69673      0.00110183     0.000858319 
        4.71241      0.00110501     0.000851209 
        4.72811      0.00110377     0.000844167 
        4.74384      0.00110609     0.000837197 
        4.75955      0.00111239     0.000830316 
        4.77525      0.00111633     0.000823517 
        4.79096      0.00112025     0.000816786 
        4.80669      0.00112152     0.000810128 
         4.8224      0.00112601     0.000803551 
        4.83809       0.0011285     0.000797055 
        4.85379       0.0011373     0.000790627 
         4.8695      0.00114302     0.000784265 
        4.88521       0.0011532     0.000777976 
        4.90093      0.00115428     0.000771756 
        4.91663      0.00116635     0.000765609 
        4.93234      0.00117019     0.000759523 
        4.94807        0.001178       0.0007535 
        4.96377      0.00118458     0.000747553 
        4.97943      0.00119666     0.000741684 
        4.99514      0.00120063     0.000735863 
        5.01086       0.0012162       0.0007301 
        5.02654      0.00122649     0.000724413 
        5.04227      0.00123499     0.000718771 
          5.058      0.00124824     0.000713187 
        5.07371      0.00125763     0.000707673 
        5.08942      0.00127769     0.000702217 
        5.10513      0.00128571     0.000696818 
        5.12084      0.00129957     0.000691474 
        5.13656      0.00131398     0.000686187 
        5.15225      0.00132649     0.000680964 
        5.16796      0.00134772     0.000675788 
        5.18369      0.00135686     0.000670661 
         5.1994      0.00137776     0.000665596 
        5.21509      0.00139045     0.000660589 
        5.23079       0.0014091     0.000655628 
        5.24649      0.00143045     0.000650722 
        5.26217      0.00145192      0.00064587 
        5.27788      0.00146967      0.00064106 
        5.29359      0.00148725     0.000636299 
        5.30933      0.00150905      0.00063158 
        5.32504      0.00152982     0.000626916 
        5.34073      0.00155193     0.000622305 
        5.35646      0.00157558     0.000617731 
        5.37218      0.00160199     0.000613203 
        5.38789      0.00163077     0.000608728 
        5.40357      0.00164265     0.000604302 
        5.41929      0.00167934     0.000599911 
        5.43502      0.00170146     0.000595563 
         5.4507      0.00173649     0.000591269 
        5.46639      0.00175637     0.000587017 
        5.48212      0.00178649     0.000582797 
        5.49786      0.00183162     0.000578614 
        5.51353      0.00185991     0.000574493 
        5.52921      0.00187891     0.000570407 
        5.54495      0.00193245      0.00056635 
        5.56066      0.00196232     0.000562337 
        5.57637      0.00199999     0.000558363 
        5.59207      0.00203494     0.000554432 
        5.60778       0.0020663     0.000550537 
        5.62346      0.00210693     0.000546685 
        5.63916      0.00215539     0.000542867 
        5.65487      0.00219718     0.000539083 
         5.6706      0.00223174     0.000535331 
        5.68633      0.00227769     0.000531613 
        5.70203      0.00233107     0.000527939 
        5.71773      0.00236448       0.0005243 
        5.73344      0.00241504     0.000520693 
        5.74916      0.00248827     0.000517118 
        5.76486      0.00252817     0.000513581 
        5.78054      0.00257029     0.000510082 
        5.79626      0.00262978     0.000506607 
          5.812      0.00270805     0.000503161 
         5.8277      0.00274561     0.000499757 
        5.84339      0.00280418     0.000496384 
        5.85911       0.0028861     0.000493037 
        5.87484      0.00293815     0.000489721 
        5.89053      0.00301919     0.000486442 
        5.90623       0.0030742     0.000483192 
        5.92195      0.00315385     0.000479966 
        5.93767      0.00322786     0.000476771 
        5.95336      0.00330293     0.000473611 
        5.96905        0.003392     0.000470481 
        5.98476      0.00346405     0.000467375 
        6.00048      0.00355895     0.000464296 
        6.01617      0.00364646     0.000461249 
        6.03185      0.00371006     0.000458233 
        6.04756      0.00381119     0.000455237 
        6.06331      0.00389899     0.000452262 
        6.07903      0.00400053     0.000449319 
        6.09473      0.00411633     0.000446406 
        6.11044      0.00421798     0.000443516 
        6.12616      0.00431498     0.000440652 
        6.14186      0.00441771     0.000437816 
        6.15755      0.00453957     0.000435006 
        6.17326       0.0046353     0.000432218 
        6.18898      0.00477551     0.000429454 
        6.20467      0.00494179     0.000426718 
        6.22036      0.00501653     0.000424007 
         6.2361      0.00514185     0.000421312 
         6.2518      0.00528607     0.000418645 
        6.26748      0.00542122     0.000416007 
        6.28319      0.00557376     0.000413385 
        6.29893      0.00573241     0.000410783 
        6.31463      0.00589453     0.000408208 
        6.33033      0.00602692     0.000405656 
        6.34604      0.00620938     0.000403125 
        6.36177      0.00636129     0.000400612 
        6.37747      0.00659579     0.000398126 
