# k  (h/Mpc)    Pcb(k)  (Mpc/h)^3    Pcb_linear(k) (Mpc/h)^3   ShotnoiseSubtracted = true
      0.0200456         12587.7         12784.6 
      0.0350414         9064.24         8794.29 
      0.0492313         6320.55         6377.93 
      0.0637834         5181.75         5389.47 
      0.0800726         3954.28         4118.61 
       0.096163         3040.22         2911.73 
       0.111083         2542.42         2414.15 
       0.126058         2139.33         2168.52 
       0.142273         1784.61         1748.65 
       0.158546         1455.09         1367.26 
        0.17375         1305.05         1205.91 
       0.188953         1213.19         1097.22 
       0.204907         1016.97          931.49 
       0.220756         909.751         783.736 
        0.23588         818.237          705.92 
         0.2514          733.81         645.306 
       0.267535         706.235          567.77 
       0.283568          616.31         498.274 
       0.299022         589.359         453.583 
       0.314451         596.361         417.158 
       0.330372         511.179         376.868 
       0.346141         473.658         340.437 
       0.361624         452.456         312.974 
       0.377134         423.417         289.597 
       0.392932         410.143         266.203 
       0.408854         390.227         244.477 
       0.424564         377.198         226.538 
       0.440253         341.315         210.874 
       0.455999         326.393         196.043 
       0.471626         327.548         182.468 
        0.48727         310.283         170.488 
       0.502856         285.338         159.786 
       0.518488         286.226         149.844 
       0.534347         266.259         140.503 
       0.550082         258.517         132.114 
       0.565732          257.07         124.509 
       0.581496         243.308         117.429 
       0.597222         236.834         110.873 
       0.612804         230.078         104.896 
       0.628434         222.165         99.3647 
       0.644267         212.339         94.1652 
       0.660051         208.743         89.3524 
       0.675724         206.113         84.9083 
       0.691403         200.823         80.7672 
       0.707174         193.682         76.8826 
       0.722871          190.65          73.272 
        0.73838         189.106         69.9343 
       0.754018         178.995         66.7812 
       0.769845          179.02         63.7898 
        0.78569         174.097         60.9803 
       0.801365         169.012         58.3689 
       0.817031         165.439         55.9133 
       0.832809         162.497         53.5846 
       0.848511         158.644         51.4001 
       0.864097         155.268         49.3534 
       0.879701         154.035         47.4171 
       0.895507         150.292         45.5628 
       0.911279         146.167         43.8124 
        0.92691         143.733         42.1693 
       0.942635         141.552         40.6022 
       0.958396         139.371         39.1122 
       0.974128         136.606         37.7004 
       0.989692         132.817         36.3729 
        1.00528         131.789          35.108 
        1.02113         128.563          33.884 
        1.03692          127.44         32.7235 
        1.05264         125.901         31.6233 
        1.06832         123.168         30.5758 
        1.08405         121.158         29.5734 
        1.09979         120.456         28.6159 
        1.11537         117.631         27.7106 
        1.13105         116.307         26.8395 
        1.14679          114.44         26.0028 
        1.16256         112.317         25.2004 
        1.17828         111.214         24.4349 
        1.19395          108.67          23.704 
         1.2097         107.811         22.9996 
        1.22537          105.96         22.3275 
          1.241         105.029         21.6845 
        1.25666          102.21         21.0654 
        1.27241         100.771         20.4678 
        1.28819         100.332         19.8925 
        1.30392         98.5424         19.3413 
        1.31957         97.1365         18.8135 
        1.33529         95.9841         18.3037 
        1.35108         95.2923         17.8109 
        1.36674         93.5296           17.34 
         1.3824         93.1515         16.8866 
        1.39811         90.8523         16.4481 
        1.41389         89.9288         16.0236 
        1.42964         88.3371         15.6149 
        1.44531         87.7705         15.2226 
        1.46101         86.7118         14.8431 
        1.47667         85.8903         14.4777 
        1.49229         84.9371         14.1257 
        1.50793          83.484         13.7851 
        1.52367         82.9188         13.4536 
        1.53953         81.8806         13.1309 
        1.55526         80.3608         12.8214 
        1.57092         80.2386         12.5233 
        1.58662         79.1585          12.234 
        1.60235         77.9555         11.9534 
        1.61809         76.9814         11.6815 
        1.63369         75.9901         11.4205 
        1.64941         75.9317         11.1657 
        1.66519         74.2321         10.9179 
        1.68085         73.4343         10.6793 
        1.69652         72.2268         10.4479 
        1.71228         71.5603         10.2221 
        1.72806         71.2889         10.0028 
        1.74368         70.0703         9.79218 
        1.75933         69.4523         9.58726 
        1.77505         68.8427          9.3873 
        1.79081         67.7105         9.19272 
         1.8065         67.4746         9.00453 
        1.82218         65.9335         8.82182 
        1.83797         65.5813         8.64296 
        1.85367         64.7174         8.47008 
        1.86928         64.1657         8.30301 
        1.88497         63.4529         8.13956 
        1.90073         62.6287         7.97993 
        1.91647         62.0769         7.82476 
        1.93218         61.4422         7.67408 
        1.94787         60.6019         7.52761 
        1.96363          59.978         7.38441 
        1.97935          59.343         7.24525 
        1.99499         58.7034          7.1105 
        2.01064         58.1495         6.97899 
         2.0264          57.605         6.85001 
        2.04216         56.7709         6.72438 
        2.05781         56.1568         6.60271 
        2.07353         55.4528         6.48364 
        2.08928         54.9538         6.36726 
        2.10499         54.4647         6.25407 
        2.12065         53.9302         6.14399 
        2.13633         53.5202         6.03648 
        2.15211         52.7638         5.93087 
        2.16785         51.9635         5.82809 
        2.18349         51.4653         5.72841 
        2.19916         50.9882         5.63087 
        2.21489         50.7124         5.53529 
        2.23063         49.9349         5.44188 
         2.2463         49.4733         5.35106 
        2.26194         49.1891         5.26255 
        2.27765         48.4456          5.1756 
        2.29341         47.7881         5.09041 
        2.30914         47.3073         5.00731 
        2.32486         46.8215         4.92613 
        2.34061         46.5003         4.84663 
        2.35635         45.8339         4.76897 
        2.37203         45.3592         4.69328 
        2.38768         45.1839          4.6194 
        2.40339         44.6347         4.54686 
        2.41914         44.2408         4.47572 
        2.43483         43.4423         4.40635 
         2.4505         43.3496         4.33859 
        2.46622         42.8315         4.27202 
        2.48195         42.3308         4.20686 
        2.49759         41.9042         4.14341 
        2.51328         41.5111         4.08111 
        2.52906         41.0973         4.01971 
        2.54479         40.8193          3.9598 
        2.56049         40.1504         3.90125 
        2.57618         39.9314         3.84393 
        2.59189         39.4656         3.78768 
        2.60758         38.9515         3.73266 
        2.62325         38.9481          3.6788 
        2.63898         38.3491         3.62582 
        2.65468         37.9331         3.57401 
        2.67044         37.7487         3.52299 
        2.68618         37.3515         3.47309 
        2.70184         36.8028         3.42436 
        2.71755         36.5503         3.37645 
        2.73329         36.0586         3.32939 
        2.74897          35.789         3.28338 
        2.76462         35.3241         3.23835 
        2.78034         35.1621         3.19399 
        2.79607         34.7231         3.15041 
        2.81179         34.4095          3.1077 
        2.82749         34.0956         3.06584 
        2.84321         33.6859          3.0247 
        2.85893         33.3807         2.98434 
        2.87462         33.1381         2.94478 
        2.89033         32.8644         2.90591 
        2.90605         32.5475         2.86771 
        2.92176         32.3499         2.83022 
        2.93747         32.0195         2.79343 
        2.95318         31.6514         2.75728 
        2.96891         31.3795         2.72176 
        2.98456         31.1144         2.68703 
        3.00023         30.7319         2.65286 
        3.01596         30.4947         2.61918 
        3.03164         30.1041         2.58618 
        3.04738         29.9385         2.55366 
         3.0631         29.7174         2.52171 
        3.07883         29.2844          2.4903 
        3.09456         28.9688         2.45945 
        3.11026         28.7394         2.42916 
        3.12596         28.4037         2.39939 
        3.14163         28.1849         2.37019 
        3.15734         27.9726         2.34141 
        3.17308         27.6347         2.31305 
        3.18879         27.4633         2.28523 
        3.20447         27.2204         2.25791 
         3.2202         26.8645         2.23096 
         3.2359         26.6459          2.2045 
        3.25157         26.4577         2.17853 
        3.26729         26.2804          2.1529 
        3.28304         25.8679         2.12764 
        3.29877         25.6839         2.10282 
        3.31446         25.5007         2.07845 
        3.33014         25.2397         2.05449 
        3.34585         25.0398         2.03088 
        3.36158         24.7892          2.0076 
        3.37727          24.542         1.98476 
        3.39294         24.3766          1.9623 
        3.40867         24.1678         1.94011 
        3.42439         23.9002         1.91827 
        3.44008         23.6492         1.89682 
        3.45578         23.5306         1.87568 
        3.47153         23.2657         1.85481 
        3.48724         23.1013          1.8343 
        3.50292         22.8858         1.81416 
        3.51859          22.721         1.79432 
        3.53431         22.5104         1.77472 
        3.55007         22.2946         1.75537 
        3.56577         22.1005         1.73639 
        3.58146         21.8884         1.71769 
        3.59719         21.6639         1.69923 
        3.61292         21.5229         1.68105 
        3.62859         21.2754          1.6632 
        3.64429         21.0512         1.64558 
        3.66003         21.0213         1.62816 
        3.67578         20.7869         1.61101 
        3.69146         20.5738         1.59416 
        3.70712         20.4117         1.57759 
        3.72284         20.2149         1.56119 
        3.73853         20.0773         1.54506 
        3.75422         19.8824         1.52915 
        3.76993         19.7102         1.51345 
        3.78564         19.5531         1.49798 
        3.80137         19.3859          1.4827 
        3.81707         19.2014         1.46767 
        3.83279         18.9993         1.45283 
        3.84853         18.8414         1.43818 
        3.86424         18.6861         1.42376 
        3.87992         18.5372         1.40955 
        3.89561          18.395         1.39555 
        3.91134         18.2217          1.3817 
        3.92704         18.1006         1.36806 
        3.94273         17.9515         1.35462 
        3.95845         17.7837         1.34134 
        3.97418         17.5996         1.32823 
        3.98988         17.4647         1.31531 
        4.00554         17.3581         1.30261 
        4.02125         17.1604         1.29003 
        4.03698         16.9814          1.2776 
        4.05268         16.9122         1.26537 
        4.06839         16.7421         1.25329 
         4.0841         16.6168         1.24137 
        4.09983         16.4351         1.22959 
        4.11555          16.348         1.21796 
        4.13124         16.2158         1.20652 
        4.14693         16.1131         1.19522 
        4.16266         15.9712         1.18404 
        4.17839         15.7917         1.17301 
        4.19408         15.6463         1.16214 
        4.20977         15.5599         1.15141 
        4.22551         15.4393         1.14079 
        4.24123         15.2726         1.13031 
        4.25691         15.1369            1.12 
        4.27259         15.0449         1.10981 
        4.28831         14.9653         1.09972 
        4.30404          14.811         1.08976 
        4.31974         14.7061         1.07994 
        4.33543         14.5585         1.07024 
        4.35116         14.4613         1.06065 
        4.36688         14.3093         1.05117 
        4.38255         14.2268         1.04185 
        4.39825         14.0993         1.03262 
        4.41398         14.0055         1.02348 
         4.4297         13.8704         1.01447 
        4.44541         13.7625         1.00556 
        4.46111         13.6737        0.996774 
        4.47683         13.5469        0.988083 
        4.49251         13.4437        0.979514 
        4.50819         13.3257        0.971049 
         4.5239         13.2317        0.962672 
        4.53962         13.1366        0.954385 
        4.55535         13.0404        0.946191 
        4.57106         12.9318        0.938106 
        4.58678         12.8222        0.930114 
         4.6025          12.728        0.922214 
        4.61821         12.6237        0.914407 
        4.63391         12.5397        0.906701 
         4.6496         12.4311        0.899088 
        4.66532         12.3445         0.89155 
        4.68103         12.2259        0.884103 
        4.69673         12.1227        0.876749 
        4.71241         12.0557        0.869485 
        4.72811         11.9733        0.862293 
        4.74384         11.8383        0.855173 
        4.75955         11.7798        0.848144 
        4.77525         11.6931        0.841199 
        4.79096         11.6294        0.834324 
        4.80669         11.5202        0.827522 
         4.8224         11.4268        0.820805 
        4.83809         11.3268        0.814169 
        4.85379         11.2373        0.807603 
         4.8695         11.1512        0.801104 
        4.88521          11.085        0.794681 
        4.90093         10.9994        0.788327 
        4.91663         10.8759        0.782048 
        4.93234         10.8366        0.775831 
        4.94807         10.7382        0.769679 
        4.96377         10.6724        0.763604 
        4.97943         10.5832        0.757609 
        4.99514         10.4755        0.751663 
        5.01086         10.4563        0.745776 
        5.02654         10.3676        0.739968 
        5.04227         10.2593        0.734204 
          5.058         10.1928          0.7285 
        5.07371         10.1073        0.722868 
        5.08942         10.0581        0.717294 
        5.10513         9.95762         0.71178 
        5.12084         9.92756        0.706321 
        5.13656         9.81691         0.70092 
        5.15225         9.73772        0.695585 
        5.16796         9.68485        0.690298 
        5.18369         9.59338        0.685061 
         5.1994         9.54618        0.679888 
        5.21509         9.47277        0.674773 
        5.23079         9.40457        0.669705 
        5.24649         9.31649        0.664694 
        5.26217         9.25034        0.659737 
        5.27788         9.21784        0.654825 
        5.29359           9.123        0.649961 
        5.30933         9.07153         0.64514 
        5.32504         9.01715        0.640377 
        5.34073          8.9417        0.635667 
        5.35646         8.87437        0.630995 
        5.37218         8.81208        0.626369 
        5.38789         8.73479        0.621798 
        5.40357         8.66978        0.617277 
        5.41929         8.63072        0.612792 
        5.43502         8.56399        0.608351 
         5.4507         8.51145        0.603965 
        5.46639         8.45082        0.599621 
        5.48212         8.38509        0.595311 
        5.49786         8.33048        0.591038 
        5.51353         8.27116        0.586828 
        5.52921         8.22868        0.582655 
        5.54495         8.15618        0.578511 
        5.56066         8.08099        0.574411 
        5.57637         8.05099        0.570352 
        5.59207         7.99618        0.566336 
        5.60778         7.93966        0.562358 
        5.62346         7.86894        0.558423 
        5.63916         7.83052        0.554523 
        5.65487         7.79866        0.550658 
         5.6706         7.71629        0.546825 
        5.68633         7.68953        0.543028 
        5.70203         7.61473        0.539274 
        5.71773         7.57541        0.535557 
        5.73344         7.51805        0.531873 
        5.74916         7.46148        0.528221 
        5.76486         7.41776        0.524608 
        5.78054         7.35674        0.521035 
        5.79626          7.3093        0.517485 
          5.812         7.27472        0.513964 
         5.8277         7.21957        0.510487 
        5.84339         7.17433        0.507042 
        5.85911         7.10545        0.503623 
        5.87484         7.07581        0.500236 
        5.89053         7.03344        0.496886 
        5.90623         6.99813        0.493567 
        5.92195         6.93901        0.490271 
        5.93767         6.88632        0.487008 
        5.95336         6.83725         0.48378 
        5.96905         6.78947        0.480583 
        5.98476         6.75064         0.47741 
        6.00048         6.71607        0.474265 
        6.01617         6.67595        0.471153 
        6.03185         6.62082        0.468072 
        6.04756         6.58195        0.465012 
        6.06331         6.53724        0.461973 
        6.07903          6.4864        0.458967 
        6.09473         6.45076        0.455991 
        6.11044         6.41206        0.453039 
        6.12616         6.35784        0.450113 
        6.14186         6.32782        0.447217 
        6.15755         6.29416        0.444346 
        6.17326         6.24706        0.441498 
        6.18898         6.20445        0.438674 
        6.20467         6.16469         0.43588 
        6.22036         6.13145        0.433111 
         6.2361         6.09027        0.430358 
         6.2518         6.04296        0.427634 
        6.26748         6.02403         0.42494 
        6.28319         5.98038        0.422261 
        6.29893         5.93375        0.419603 
        6.31463         5.91652        0.416973 
        6.33033          5.8691        0.414366 
        6.34604          5.8276         0.41178 
        6.36177         5.78732        0.409214 
        6.37747         5.75452        0.406674 
