# k  (h/Mpc)    Pcb(k)  (Mpc/h)^3    Pcb_linear(k) (Mpc/h)^3   ShotnoiseSubtracted = true
      0.0200456         7968.69         8084.76 
      0.0350414         5710.39         5561.36 
      0.0492313         4017.64         4033.29 
      0.0637834         3304.51         3408.21 
      0.0800726         2524.47         2604.54 
       0.096163         1910.64         1841.33 
       0.111083         1596.23         1526.67 
       0.126058         1355.14         1371.34 
       0.142273         1117.17         1105.81 
       0.158546         906.771         864.629 
        0.17375         809.727         762.596 
       0.188953         744.051         693.866 
       0.204907         618.331         589.058 
       0.220756         550.014         495.621 
        0.23588         494.292         446.412 
         0.2514         444.262          408.08 
       0.267535         421.163         359.048 
       0.283568         366.041           315.1 
       0.299022          347.64         286.838 
       0.314451         342.149         263.803 
       0.330372         294.775         238.325 
       0.346141         272.607         215.286 
       0.361624         258.045         197.919 
       0.377134          237.54         183.136 
       0.392932         230.883         168.342 
       0.408854         218.084         154.603 
       0.424564         208.741         143.259 
       0.440253         188.738         133.353 
       0.455999         177.613         123.974 
       0.471626          174.04          115.39 
        0.48727         166.898         107.813 
       0.502856         152.453         101.046 
       0.518488         150.908         94.7586 
       0.534347         140.942         88.8517 
       0.550082         137.644         83.5465 
       0.565732         135.011         78.7372 
       0.581496         124.504         74.2604 
       0.597222         121.675         70.1143 
       0.612804         117.556         66.3343 
       0.628434         114.394         62.8365 
       0.644267         108.513         59.5484 
       0.660051         105.272         56.5049 
       0.675724         103.439         53.6945 
       0.691403         100.995         51.0758 
       0.707174         97.4181         48.6192 
       0.722871         95.5535          46.336 
        0.73838         93.0592         44.2253 
       0.754018         87.4867         42.2313 
       0.769845          86.998         40.3396 
        0.78569         84.4577         38.5629 
       0.801365         81.7371         36.9115 
       0.817031         79.1274         35.3586 
       0.832809         77.6841          33.886 
       0.848511         75.9026         32.5045 
       0.864097         74.5615         31.2102 
       0.879701         73.0819         29.9858 
       0.895507         70.3817         28.8131 
       0.911279         69.2832         27.7062 
        0.92691         67.4336         26.6671 
       0.942635         65.9072         25.6761 
       0.958396         65.7557         24.7339 
       0.974128         64.1508         23.8411 
       0.989692          62.545         23.0016 
        1.00528          61.344         22.2017 
        1.02113         60.0105         21.4277 
        1.03692         59.7955         20.6938 
        1.05264         58.5754          19.998 
        1.06832         56.8939         19.3356 
        1.08405          56.055         18.7017 
        1.09979         55.6923         18.0962 
        1.11537         54.1769         17.5237 
        1.13105         52.9556         16.9728 
        1.14679          52.399         16.4437 
        1.16256         51.5623         15.9363 
        1.17828         51.0326         15.4522 
        1.19395         49.6434           14.99 
         1.2097         49.7266         14.5446 
        1.22537         48.4635         14.1195 
          1.241         47.9793         13.7129 
        1.25666         46.7027         13.3214 
        1.27241          46.624         12.9435 
        1.28819         45.6854         12.5797 
        1.30392         45.0108         12.2311 
        1.31957         44.7435         11.8974 
        1.33529         43.9445          11.575 
        1.35108          43.201         11.2633 
        1.36674         42.5901         10.9655 
         1.3824          41.959         10.6788 
        1.39811         41.2809         10.4015 
        1.41389         40.7502          10.133 
        1.42964         40.4649         9.87461 
        1.44531         39.6349         9.62652 
        1.46101         39.3601          9.3865 
        1.47667          38.847         9.15544 
        1.49229         38.2279         8.93284 
        1.50793         37.8959         8.71745 
        1.52367         37.2674         8.50783 
        1.53953         37.0715         8.30376 
        1.55526         36.4425         8.10806 
        1.57092          36.075         7.91953 
        1.58662         35.5378         7.73659 
        1.60235         35.1081         7.55912 
        1.61809         34.7151         7.38718 
        1.63369          34.298         7.22215 
        1.64941         33.8726         7.06102 
        1.66519         33.4108         6.90426 
        1.68085         32.9619         6.75342 
        1.69652         32.5787         6.60707 
        1.71228          32.443         6.46426 
        1.72806         31.9251         6.32558 
        1.74368         31.4491          6.1924 
        1.75933         31.2976         6.06282 
        1.77505         31.0285         5.93636 
        1.79081         30.6179         5.81332 
         1.8065         30.1774         5.69431 
        1.82218         29.7911         5.57877 
        1.83797         29.6383         5.46566 
        1.85367         29.2134         5.35633 
        1.86928         29.2099         5.25068 
        1.88497          28.589         5.14731 
        1.90073         28.4138         5.04637 
        1.91647         28.1738         4.94825 
        1.93218         28.0554         4.85295 
        1.94787         27.6755         4.76033 
        1.96363          27.251         4.66977 
        1.97935         27.0179         4.58177 
        1.99499         26.8231         4.49655 
        2.01064         26.4244          4.4134 
         2.0264         26.2283         4.33183 
        2.04216         26.1229         4.25238 
        2.05781         25.7961         4.17544 
        2.07353         25.5202         4.10014 
        2.08928         25.1763         4.02654 
        2.10499          24.964         3.95497 
        2.12065         24.7085         3.88535 
        2.13633         24.5476         3.81737 
        2.15211         24.1411         3.75058 
        2.16785         24.0782         3.68559 
        2.18349         23.8003         3.62255 
        2.19916         23.5864         3.56087 
        2.21489         23.3061         3.50042 
        2.23063         23.2005         3.44135 
         2.2463         22.9456         3.38392 
        2.26194         22.6806         3.32795 
        2.27765         22.4677         3.27296 
        2.29341         22.1913         3.21908 
        2.30914         22.0145         3.16654 
        2.32486         21.8751          3.1152 
        2.34061         21.6578         3.06493 
        2.35635         21.3629         3.01581 
        2.37203         21.2532         2.96795 
        2.38768         21.0602         2.92123 
        2.40339         20.9531         2.87536 
        2.41914         20.7266         2.83037 
        2.43483         20.5872          2.7865 
         2.4505         20.2532         2.74365 
        2.46622         20.1226         2.70155 
        2.48195         19.9312         2.66034 
        2.49759         19.6739         2.62022 
        2.51328         19.5582         2.58082 
        2.52906         19.4285         2.54199 
        2.54479         19.2218         2.50411 
        2.56049           19.12         2.46708 
        2.57618         18.9878         2.43083 
        2.59189         18.6925         2.39527 
        2.60758         18.5187         2.36047 
        2.62325         18.3773         2.32641 
        2.63898         18.2704         2.29291 
        2.65468         18.0851         2.26014 
        2.67044         17.8836         2.22788 
        2.68618          17.735         2.19632 
        2.70184         17.5807         2.16551 
        2.71755         17.3862         2.13521 
        2.73329         17.2921         2.10545 
        2.74897         17.1354         2.07635 
        2.76462         17.0101         2.04788 
        2.78034         16.7843         2.01982 
        2.79607         16.6893         1.99227 
        2.81179         16.5715         1.96526 
        2.82749         16.3699         1.93878 
        2.84321         16.2957         1.91277 
        2.85893         16.0757         1.88724 
        2.87462         15.9806         1.86223 
        2.89033           15.86         1.83765 
        2.90605         15.6946         1.81349 
        2.92176         15.5563         1.78978 
        2.93747         15.4373         1.76652 
        2.95318         15.3294         1.74366 
        2.96891         15.1663          1.7212 
        2.98456         15.0884         1.69923 
        3.00023         14.9318         1.67762 
        3.01596         14.8286         1.65632 
        3.03164         14.6932         1.63545 
        3.04738         14.5608         1.61489 
         3.0631         14.4391         1.59468 
        3.07883         14.3434         1.57483 
        3.09456         14.2006         1.55531 
        3.11026         14.1002         1.53616 
        3.12596         14.0054         1.51733 
        3.14163         13.8426         1.49887 
        3.15734         13.7383         1.48067 
        3.17308         13.6714         1.46273 
        3.18879         13.4757         1.44514 
        3.20447         13.4615         1.42786 
         3.2202         13.2895         1.41082 
         3.2359         13.1889         1.39409 
        3.25157          13.121         1.37766 
        3.26729         12.9532         1.36146 
        3.28304         12.8661         1.34548 
        3.29877         12.8367         1.32979 
        3.31446         12.6777         1.31438 
        3.33014         12.6136         1.29923 
        3.34585         12.4455         1.28429 
        3.36158          12.358         1.26957 
        3.37727         12.3027         1.25513 
        3.39294         12.1851         1.24092 
        3.40867         12.0598         1.22689 
        3.42439         11.9675         1.21308 
        3.44008         11.9095         1.19951 
        3.45578         11.7558         1.18614 
        3.47153         11.6969         1.17295 
        3.48724         11.6355         1.15998 
        3.50292         11.5379         1.14724 
        3.51859         11.4354          1.1347 
        3.53431         11.3074          1.1223 
        3.55007         11.2598         1.11007 
        3.56577         11.1342         1.09806 
        3.58146         11.0327         1.08624 
        3.59719         10.9509         1.07456 
        3.61292         10.9142         1.06307 
        3.62859         10.8008         1.05178 
        3.64429         10.7337         1.04064 
        3.66003          10.617         1.02962 
        3.67578         10.5526         1.01877 
        3.69146         10.4734         1.00812 
        3.70712         10.3746        0.997641 
        3.72284         10.3058        0.987272 
        3.73853         10.2447        0.977069 
        3.75422         10.1441        0.967008 
        3.76993         10.0549         0.95708 
        3.78564         10.0117        0.947296 
        3.80137          9.9185        0.937634 
        3.81707          9.8237        0.928127 
        3.83279         9.75421        0.918746 
        3.84853         9.68081        0.909479 
        3.86424         9.59979        0.900359 
        3.87992         9.55546        0.891378 
        3.89561         9.47211         0.88252 
        3.91134          9.3981        0.873765 
        3.92704         9.34009        0.865139 
        3.94273         9.25579        0.856639 
        3.95845         9.16542        0.848238 
        3.97418         9.10893        0.839948 
        3.98988         9.07518        0.831781 
        4.00554         8.98191        0.823746 
        4.02125         8.92547        0.815794 
        4.03698         8.86473        0.807935 
        4.05268         8.78095        0.800198 
        4.06839         8.70567        0.792557 
         4.0841         8.63272        0.785019 
        4.09983         8.56395        0.777569 
        4.11555         8.47546        0.770219 
        4.13124         8.43357        0.762985 
        4.14693         8.36162        0.755837 
        4.16266         8.31977        0.748766 
        4.17839         8.22964        0.741789 
        4.19408         8.20671        0.734918 
        4.20977         8.08721        0.728131 
        4.22551         8.06448        0.721414 
        4.24123         8.02013        0.714789 
        4.25691         7.95556        0.708266 
        4.27259         7.87007        0.701822 
        4.28831         7.81739        0.695447 
        4.30404         7.78783        0.689144 
        4.31974         7.71056        0.682934 
        4.33543         7.64676        0.676804 
        4.35116         7.56956        0.670735 
        4.36688         7.53537        0.664744 
        4.38255         7.50393        0.658848 
        4.39825         7.40457        0.653011 
        4.41398         7.35807        0.647233 
         4.4297         7.31074        0.641532 
        4.44541         7.26016        0.635901 
        4.46111         7.22158        0.630343 
        4.47683         7.17133        0.624847 
        4.49251         7.11175        0.619428 
        4.50819         7.04481        0.614075 
         4.5239         6.99399        0.608777 
        4.53962           6.955        0.603536 
        4.55535         6.89055        0.598355 
        4.57106         6.86078        0.593242 
        4.58678         6.79571        0.588188 
         4.6025         6.74251        0.583192 
        4.61821         6.70136        0.578255 
        4.63391         6.65574        0.573382 
         4.6496         6.60854        0.568568 
        4.66532          6.5584        0.563801 
        4.68103         6.51203        0.559092 
        4.69673         6.47466        0.554441 
        4.71241         6.41091        0.549847 
        4.72811         6.37822        0.545299 
        4.74384           6.347        0.540796 
        4.75955         6.28965        0.536352 
        4.77525         6.25383         0.53196 
        4.79096         6.21497        0.527612 
        4.80669         6.15323        0.523311 
         4.8224         6.10379        0.519063 
        4.83809         6.06774        0.514866 
        4.85379         6.02297        0.510714 
         4.8695         5.99081        0.506605 
        4.88521         5.94879        0.502542 
        4.90093         5.90268        0.498524 
        4.91663         5.85453        0.494554 
        4.93234         5.81777        0.490622 
        4.94807          5.7835        0.486732 
        4.96377         5.73807         0.48289 
        4.97943         5.69669        0.479099 
        4.99514         5.65982        0.475338 
        5.01086         5.62734        0.471616 
        5.02654         5.57844        0.467943 
        5.04227         5.55156        0.464298 
          5.058         5.49481        0.460691 
        5.07371         5.46497        0.457129 
        5.08942          5.4304        0.453605 
        5.10513         5.39358        0.450117 
        5.12084         5.36272        0.446665 
        5.13656         5.31196         0.44325 
        5.15225         5.28244        0.439876 
        5.16796         5.25298        0.436532 
        5.18369         5.20663        0.433221 
         5.1994         5.17334        0.429949 
        5.21509         5.14875        0.426715 
        5.23079         5.10682         0.42351 
        5.24649         5.06865        0.420341 
        5.26217         5.04335        0.417206 
        5.27788         5.01156          0.4141 
        5.29359         4.97392        0.411024 
        5.30933         4.94538        0.407976 
        5.32504         4.90868        0.404963 
        5.34073         4.87822        0.401985 
        5.35646         4.85674         0.39903 
        5.37218         4.80274        0.396105 
        5.38789         4.78311        0.393214 
        5.40357         4.74255        0.390356 
        5.41929         4.71393        0.387519 
        5.43502         4.68539        0.384711 
         5.4507         4.65412        0.381937 
        5.46639         4.62633         0.37919 
        5.48212         4.60211        0.376464 
        5.49786         4.56856        0.373762 
        5.51353         4.53833          0.3711 
        5.52921         4.51482        0.368461 
        5.54495         4.48143         0.36584 
        5.56066          4.4511        0.363248 
        5.57637         4.41228        0.360681 
        5.59207          4.3969        0.358141 
        5.60778         4.35872        0.355625 
        5.62346         4.33896        0.353137 
        5.63916         4.30779        0.350671 
        5.65487         4.28388        0.348226 
         5.6706         4.26007        0.345803 
        5.68633         4.23019        0.343401 
        5.70203         4.20748        0.341028 
        5.71773         4.18693        0.338677 
        5.73344         4.15191        0.336348 
        5.74916         4.12781        0.334038 
        5.76486         4.09805        0.331753 
        5.78054         4.07749        0.329493 
        5.79626          4.0481        0.327248 
          5.812           4.029        0.325022 
         5.8277         3.99423        0.322823 
        5.84339         3.97641        0.320645 
        5.85911         3.95241        0.318482 
        5.87484         3.92329         0.31634 
        5.89053         3.90139        0.314222 
        5.90623         3.88125        0.312123 
        5.92195         3.85805        0.310039 
        5.93767         3.82782        0.307976 
        5.95336         3.81451        0.305934 
        5.96905         3.78008        0.303912 
        5.98476         3.76623        0.301906 
        6.00048         3.73749        0.299917 
        6.01617         3.71793        0.297949 
        6.03185         3.69271        0.296001 
        6.04756         3.66614        0.294065 
        6.06331         3.65299        0.292143 
        6.07903          3.6262        0.290243 
        6.09473         3.60564        0.288361 
        6.11044           3.579        0.286494 
        6.12616         3.56697        0.284644 
        6.14186         3.53874        0.282812 
        6.15755         3.51691        0.280997 
        6.17326          3.4967        0.279196 
        6.18898         3.47489         0.27741 
        6.20467         3.45611        0.275643 
        6.22036         3.43435        0.273892 
         6.2361          3.4133        0.272151 
         6.2518         3.39877        0.270428 
        6.26748         3.38445        0.268725 
        6.28319         3.35786        0.267031 
        6.29893         3.33639         0.26535 
        6.31463         3.31713        0.263687 
        6.33033          3.3035        0.262038 
        6.34604         3.28426        0.260403 
        6.36177         3.26687         0.25878 
        6.37747          3.2408        0.257174 
