# k  (h/Mpc)    Pcb(k)  (Mpc/h)^3    Pcb_linear(k) (Mpc/h)^3   ShotnoiseSubtracted = true
      0.0200456         10774.9         10938.7 
      0.0350414         7745.26         7524.56 
      0.0492313         5418.93         5457.08 
      0.0637834          4447.5         4611.33 
      0.0800726          3395.3         3523.96 
       0.096163         2595.63         2491.33 
       0.111083         2170.17         2065.59 
       0.126058         1831.57         1855.43 
       0.142273         1521.02         1496.18 
       0.158546         1238.66         1169.85 
        0.17375         1108.86          1031.8 
       0.188953          1026.3         938.806 
       0.204907         857.392             797 
       0.220756         765.482          670.58 
        0.23588         688.392         603.998 
         0.2514         617.465         552.136 
       0.267535          591.86         485.795 
       0.283568         515.277         426.332 
       0.299022         491.876         388.095 
       0.314451          493.02         356.928 
       0.330372          422.64         322.456 
       0.346141          391.67         291.284 
       0.361624         373.153         267.786 
       0.377134         346.834         247.785 
       0.392932         336.718         227.768 
       0.408854         319.705         209.179 
       0.424564         307.982          193.83 
       0.440253         278.091         180.427 
       0.455999          264.87         167.738 
       0.471626         263.679         156.123 
        0.48727         250.714         145.872 
       0.502856         229.477         136.716 
       0.518488         229.901         128.209 
       0.534347          213.67         120.217 
       0.550082           208.4         113.039 
       0.565732         206.462         106.532 
       0.581496         193.038         100.475 
       0.597222         188.425         94.8651 
       0.612804         182.587         89.7508 
       0.628434         176.844         85.0183 
       0.644267         168.519         80.5695 
       0.660051         164.791         76.4516 
       0.675724         162.866         72.6491 
       0.691403         158.659         69.1059 
       0.707174         153.067         65.7822 
       0.722871         150.624         62.6929 
        0.73838         148.853         59.8371 
       0.754018         140.007         57.1393 
       0.769845         139.888         54.5798 
        0.78569         136.051         52.1759 
       0.801365         131.769         49.9415 
       0.817031         128.397         47.8405 
       0.832809         126.105          45.848 
       0.848511         123.139         43.9789 
       0.864097         120.949         42.2277 
       0.879701         119.331          40.571 
       0.895507         115.745         38.9844 
       0.911279         113.086         37.4867 
        0.92691          110.73         36.0809 
       0.942635          108.42           34.74 
       0.958396         107.503         33.4651 
       0.974128         105.149         32.2571 
       0.989692         102.613         31.1213 
        1.00528         101.239         30.0391 
        1.02113         98.6545         28.9918 
        1.03692         98.3473         27.9989 
        1.05264         97.1404         27.0574 
        1.06832          94.026         26.1612 
        1.08405         93.1074         25.3036 
        1.09979         92.4428         24.4843 
        1.11537         89.9333         23.7097 
        1.13105         88.7578         22.9643 
        1.14679         87.4041         22.2484 
        1.16256          85.655          21.562 
        1.17828         84.9208          20.907 
        1.19395         82.7709         20.2816 
         1.2097         82.5553         19.6789 
        1.22537         80.7205         19.1038 
          1.241          80.491         18.5536 
        1.25666         77.7225         18.0239 
        1.27241         77.3511         17.5126 
        1.28819         76.7718         17.0204 
        1.30392         75.2294         16.5488 
        1.31957         74.6036         16.0972 
        1.33529         73.5378          15.661 
        1.35108         73.0134         15.2394 
        1.36674         71.7487         14.8364 
         1.3824         71.1161         14.4485 
        1.39811         69.4493         14.0733 
        1.41389          68.543         13.7101 
        1.42964          67.763         13.3604 
        1.44531          67.197         13.0248 
        1.46101         66.5493            12.7 
        1.47667         65.5273         12.3874 
        1.49229         64.7059         12.0862 
        1.50793         63.9429         11.7948 
        1.52367         63.5293         11.5112 
        1.53953         62.4746          11.235 
        1.55526         61.3602         10.9703 
        1.57092          61.378         10.7152 
        1.58662         60.4417         10.4677 
        1.60235         59.6571         10.2276 
        1.61809         58.5993          9.9949 
        1.63369         58.0108         9.77162 
        1.64941         57.7447         9.55361 
        1.66519         56.3847         9.34152 
        1.68085         56.0888         9.13742 
        1.69652         55.0051         8.93941 
        1.71228         54.7695         8.74619 
        1.72806         54.2312         8.55856 
        1.74368         53.3875         8.37837 
        1.75933          53.041         8.20304 
        1.77505         52.4596         8.03195 
        1.79081         51.8177         7.86547 
         1.8065         51.3869         7.70445 
        1.82218         50.0222         7.54812 
        1.83797         49.7237         7.39508 
        1.85367          49.393         7.24716 
        1.86928         49.0062         7.10421 
        1.88497         48.1754         6.96436 
        1.90073         47.5503         6.82778 
        1.91647          47.441         6.69501 
        1.93218         47.0729         6.56608 
        1.94787         46.3403         6.44076 
        1.96363         45.6954         6.31824 
        1.97935         45.2699         6.19917 
        1.99499          44.746         6.08387 
        2.01064         44.1538         5.97136 
         2.0264         44.0824           5.861 
        2.04216         43.3478          5.7535 
        2.05781         42.9213          5.6494 
        2.07353         42.2223         5.54752 
        2.08928         42.1844         5.44795 
        2.10499          41.772          5.3511 
        2.12065         41.2107         5.25691 
        2.13633         41.0182         5.16493 
        2.15211         40.3652         5.07456 
        2.16785         39.7298         4.98662 
        2.18349         39.4234         4.90134 
        2.19916         39.0448         4.81788 
        2.21489         38.8387          4.7361 
        2.23063         38.3235         4.65618 
         2.2463         38.0254         4.57847 
        2.26194         37.5614         4.50274 
        2.27765         37.1664         4.42834 
        2.29341         36.7208         4.35545 
        2.30914         36.3863         4.28435 
        2.32486         35.9096         4.21489 
        2.34061         35.6808         4.14687 
        2.35635         35.3451         4.08042 
        2.37203         34.9984         4.01566 
        2.38768         34.7961         3.95245 
        2.40339         34.4213         3.89038 
        2.41914         34.1148         3.82951 
        2.43483          33.722         3.77016 
         2.4505         33.4766         3.71218 
        2.46622         33.0274         3.65522 
        2.48195         32.8226         3.59947 
        2.49759         32.3823         3.54518 
        2.51328         32.0674         3.49188 
        2.52906         31.8517         3.43934 
        2.54479          31.598         3.38808 
        2.56049          31.349         3.33798 
        2.57618         30.9686         3.28894 
        2.59189         30.6603         3.24081 
        2.60758         30.3318         3.19373 
        2.62325         30.1651         3.14765 
        2.63898         29.9127         3.10232 
        2.65468         29.4592         3.05799 
        2.67044         29.2979         3.01433 
        2.68618         29.0375         2.97164 
        2.70184         28.7136         2.92995 
        2.71755         28.4276         2.88895 
        2.73329         28.2008         2.84869 
        2.74897         27.8971         2.80932 
        2.76462         27.6787          2.7708 
        2.78034         27.3624         2.73284 
        2.79607         27.1789         2.69555 
        2.81179          26.897         2.65901 
        2.82749         26.6345         2.62319 
        2.84321         26.3824         2.58799 
        2.85893         26.2025         2.55345 
        2.87462         26.0074         2.51961 
        2.89033         25.7196         2.48635 
        2.90605         25.4564         2.45367 
        2.92176          25.241         2.42159 
        2.93747         25.0036         2.39011 
        2.95318         24.9052         2.35918 
        2.96891          24.547         2.32879 
        2.98456         24.3975         2.29907 
        3.00023         24.0589         2.26984 
        3.01596         23.7755         2.24102 
        3.03164         23.6283         2.21278 
        3.04738         23.5024         2.18496 
         3.0631         23.2592         2.15762 
        3.07883         22.9895         2.13075 
        3.09456         22.7731         2.10435 
        3.11026         22.5507         2.07844 
        3.12596          22.323         2.05296 
        3.14163         22.1961         2.02798 
        3.15734         22.0362         2.00336 
        3.17308         21.7425         1.97909 
        3.18879         21.5894         1.95528 
        3.20447         21.4795         1.93191 
         3.2202         21.2008         1.90885 
         3.2359         20.9724         1.88621 
        3.25157         20.8015         1.86399 
        3.26729         20.7132         1.84206 
        3.28304         20.4941         1.82045 
        3.29877          20.331         1.79921 
        3.31446         20.1575         1.77836 
        3.33014         19.8801         1.75786 
        3.34585         19.8354         1.73766 
        3.36158         19.5543         1.71774 
        3.37727         19.4378          1.6982 
        3.39294         19.3163         1.67898 
        3.40867         19.1134         1.65999 
        3.42439         18.8968         1.64131 
        3.44008          18.748         1.62295 
        3.45578         18.5904         1.60486 
        3.47153         18.4501         1.58701 
        3.48724         18.3215         1.56947 
        3.50292         18.1267         1.55223 
        3.51859         17.9995         1.53526 
        3.53431           17.82         1.51849 
        3.55007         17.6423         1.50193 
        3.56577         17.5405         1.48569 
        3.58146         17.3576         1.46969 
        3.59719         17.2176         1.45389 
        3.61292         17.1045         1.43834 
        3.62859         16.8684         1.42307 
        3.64429          16.761         1.40799 
        3.66003         16.6655         1.39309 
        3.67578           16.58         1.37841 
        3.69146         16.3846         1.36399 
        3.70712         16.2171         1.34982 
        3.72284         16.0966         1.33579 
        3.73853         16.0018         1.32198 
        3.75422          15.769         1.30837 
        3.76993         15.6943         1.29494 
        3.78564         15.5552          1.2817 
        3.80137         15.4096         1.26863 
        3.81707          15.268         1.25576 
        3.83279         15.2068         1.24307 
        3.84853         15.0367         1.23053 
        3.86424         14.8941         1.21819 
        3.87992         14.8159         1.20604 
        3.89561         14.6748         1.19406 
        3.91134         14.5711         1.18221 
        3.92704         14.4457         1.17054 
        3.94273         14.3137         1.15904 
        3.95845         14.1966         1.14767 
        3.97418         14.0586         1.13646 
        3.98988         13.9716         1.12541 
        4.00554          13.835         1.11453 
        4.02125         13.7414         1.10378 
        4.03698         13.6433         1.09314 
        4.05268         13.5288         1.08267 
        4.06839         13.3798         1.07234 
         4.0841         13.2983         1.06214 
        4.09983         13.1561         1.05206 
        4.11555         13.0685         1.04211 
        4.13124          12.971         1.03232 
        4.14693         12.8759         1.02265 
        4.16266         12.7582         1.01309 
        4.17839         12.6295         1.00365 
        4.19408         12.5694         0.99435 
        4.20977         12.4631        0.985167 
        4.22551         12.3536        0.976079 
        4.24123          12.266        0.967115 
        4.25691          12.153         0.95829 
        4.27259         12.0467        0.949571 
        4.28831         11.9983        0.940945 
        4.30404         11.8667        0.932417 
        4.31974         11.7765        0.924015 
        4.33543         11.6558        0.915721 
        4.35116         11.6019         0.90751 
        4.36688         11.4838        0.899403 
        4.38255         11.3751        0.891426 
        4.39825         11.3171        0.883529 
        4.41398         11.2348        0.875712 
         4.4297         11.1227        0.867998 
        4.44541         11.0625        0.860379 
        4.46111         10.9613        0.852858 
        4.47683         10.8507        0.845422 
        4.49251         10.7912         0.83809 
        4.50819         10.7073        0.830848 
         4.5239         10.6317        0.823681 
        4.53962          10.535        0.816589 
        4.55535         10.4529        0.809579 
        4.57106         10.4154        0.802661 
        4.58678         10.3135        0.795823 
         4.6025         10.2452        0.789063 
        4.61821         10.1823        0.782384 
        4.63391         10.0745        0.775791 
         4.6496         9.98219        0.769276 
        4.66532         9.92744        0.762827 
        4.68103         9.82835        0.756455 
        4.69673         9.76198        0.750162 
        4.71241         9.69717        0.743948 
        4.72811         9.62167        0.737794 
        4.74384          9.5689        0.731702 
        4.75955         9.48752        0.725688 
        4.77525         9.40012        0.719746 
        4.79096          9.3459        0.713863 
        4.80669         9.25116        0.708044 
         4.8224         9.21075        0.702296 
        4.83809         9.12319        0.696618 
        4.85379         9.08613           0.691 
         4.8695         9.00449         0.68544 
        4.88521         8.92108        0.679944 
        4.90093         8.88507        0.674507 
        4.91663         8.78882        0.669135 
        4.93234         8.73429        0.663816 
        4.94807         8.67804        0.658552 
        4.96377         8.60821        0.653354 
        4.97943         8.54979        0.648224 
        4.99514         8.48604        0.643137 
        5.01086         8.42796          0.6381 
        5.02654         8.35104         0.63313 
        5.04227         8.29507        0.628199 
          5.058         8.24316        0.623318 
        5.07371         8.19618        0.618499 
        5.08942         8.11467        0.613731 
        5.10513         8.03795        0.609012 
        5.12084         7.99048        0.604341 
        5.13656          7.9492         0.59972 
        5.15225         7.88195        0.595156 
        5.16796         7.82387        0.590632 
        5.18369         7.77084        0.586151 
         5.1994         7.73376        0.581725 
        5.21509         7.66361        0.577349 
        5.23079         7.59779        0.573012 
        5.24649         7.56494        0.568724 
        5.26217         7.51057        0.564484 
        5.27788          7.4557         0.56028 
        5.29359         7.39444        0.556119 
        5.30933         7.32744        0.551994 
        5.32504         7.29803        0.547918 
        5.34073          7.2354        0.543888 
        5.35646         7.20045        0.539891 
        5.37218         7.15603        0.535933 
        5.38789         7.09248        0.532022 
        5.40357         7.04629        0.528154 
        5.41929         7.00559        0.524316 
        5.43502         6.94826        0.520517 
         5.4507         6.90331        0.516764 
        5.46639         6.85094        0.513047 
        5.48212         6.80273        0.509359 
        5.49786         6.75978        0.505703 
        5.51353         6.72593        0.502101 
        5.52921          6.6637         0.49853 
        5.54495         6.62341        0.494984 
        5.56066         6.58461        0.491477 
        5.57637         6.53902        0.488004 
        5.59207         6.48115        0.484568 
        5.60778         6.45371        0.481164 
        5.62346         6.39859        0.477797 
        5.63916         6.36229         0.47446 
        5.65487         6.31688        0.471153 
         5.6706         6.27824        0.467874 
        5.68633          6.2296        0.464625 
        5.70203         6.19279        0.461413 
        5.71773         6.15721        0.458233 
        5.73344         6.11873        0.455081 
        5.74916          6.0709        0.451956 
        5.76486          6.0317        0.448864 
        5.78054         5.98216        0.445807 
        5.79626         5.95247         0.44277 
          5.812         5.91206        0.439757 
         5.8277         5.86052        0.436782 
        5.84339         5.83078        0.433835 
        5.85911         5.79604        0.430909 
        5.87484         5.75803        0.428011 
        5.89053         5.71374        0.425145 
        5.90623         5.68295        0.422305 
        5.92195         5.65238        0.419485 
        5.93767         5.61444        0.416693 
        5.95336         5.56874        0.413931 
        5.96905         5.53022        0.411196 
        5.98476         5.50356        0.408481 
        6.00048         5.46373         0.40579 
        6.01617         5.42846        0.403127 
        6.03185         5.40984        0.400491 
        6.04756         5.37809        0.397873 
        6.06331         5.32427        0.395272 
        6.07903         5.29191        0.392701 
        6.09473         5.25779        0.390154 
        6.11044         5.21601        0.387628 
        6.12616         5.19176        0.385125 
        6.14186         5.16167        0.382647 
        6.15755         5.12832        0.380191 
        6.17326         5.09789        0.377754 
        6.18898         5.06492        0.375338 
        6.20467         5.03122        0.372947 
        6.22036         5.00621        0.370578 
         6.2361         4.96814        0.368223 
         6.2518         4.93719        0.365892 
        6.26748         4.91047        0.363586 
        6.28319         4.88469        0.361294 
        6.29893          4.8466         0.35902 
        6.31463         4.82243         0.35677 
        6.33033         4.78655         0.35454 
        6.34604         4.75955        0.352327 
        6.36177          4.7326        0.350131 
        6.37747         4.70406        0.347958 
