# k  (h/Mpc)    Pcb(k)  (Mpc/h)^3    Pcb_linear(k) (Mpc/h)^3   ShotnoiseSubtracted = true
      0.0200456         200.465         203.216 
      0.0350414         151.704          151.76 
      0.0492313         114.616         114.252 
      0.0637834          96.205         95.9569 
      0.0800726         75.1362         74.8363 
       0.096163         55.1865         55.0654 
       0.111083         45.4449         45.5754 
       0.126058          40.324         40.3498 
       0.142273         33.2956         33.1478 
       0.158546          26.675         26.4927 
        0.17375         23.0813         23.1567 
       0.188953         20.8812          20.899 
       0.204907         18.2355         17.9756 
       0.220756         15.4147         15.2951 
        0.23588         13.7582         13.6903 
         0.2514         12.4555         12.4599 
       0.267535         11.0806         11.0515 
       0.283568         9.80638         9.75134 
       0.299022         8.90775         8.84628 
       0.314451         8.08461         8.12142 
       0.330372          7.3804         7.36725 
       0.346141         6.69156         6.67373 
       0.361624         6.15867         6.12597 
       0.377134         5.71447         5.66387 
       0.392932         5.16532          5.2161 
       0.408854         4.83691          4.7977 
       0.424564         4.45313         4.44336 
       0.440253         4.14654         4.13461 
       0.455999         3.88139         3.84737 
       0.471626         3.62669         3.58382 
        0.48727         3.36646         3.34777 
       0.502856         3.14505         3.13733 
       0.518488         2.98494         2.94301 
       0.534347         2.81756         2.76062 
       0.550082         2.60711          2.5957 
       0.565732         2.42735          2.4462 
       0.581496         2.32929         2.30733 
       0.597222           2.207         2.17891 
       0.612804         2.07505         2.06136 
       0.628434         1.98433         1.95262 
       0.644267         1.87052         1.85056 
       0.660051          1.7685         1.75605 
       0.675724         1.68639         1.66871 
       0.691403         1.61207         1.58726 
       0.707174         1.52658         1.51083 
       0.722871         1.44873         1.43976 
        0.73838         1.39411         1.37404 
       0.754018         1.33892         1.31194 
       0.769845         1.27361         1.25303 
        0.78569         1.21677          1.1977 
       0.801365         1.16094         1.14627 
       0.817031         1.11585         1.09792 
       0.832809         1.06859         1.05207 
       0.848511         1.02021         1.00906 
       0.864097        0.975084        0.968766 
       0.879701        0.936516        0.930648 
       0.895507        0.907069        0.894144 
       0.911279        0.874085        0.859686 
        0.92691         0.83833        0.827341 
       0.942635        0.807281        0.796492 
       0.958396        0.774612         0.76716 
       0.974128        0.747178        0.739368 
       0.989692         0.72356        0.713236 
        1.00528        0.698393        0.688336 
        1.02113        0.667915        0.664241 
        1.03692        0.650117        0.641395 
        1.05264        0.627404        0.619736 
        1.06832         0.60779        0.599117 
        1.08405        0.582545        0.579387 
        1.09979        0.564164        0.560539 
        1.11537        0.551078        0.542721 
        1.13105        0.532918        0.525576 
        1.14679        0.518901         0.50911 
        1.16256        0.496878        0.493321 
        1.17828        0.482447        0.478257 
        1.19395        0.466705        0.463877 
         1.2097        0.451056        0.450018 
        1.22537        0.442022        0.436795 
          1.241        0.428042        0.424147 
        1.25666         0.41889         0.41197 
        1.27241        0.403395        0.400217 
        1.28819        0.391487        0.388905 
        1.30392         0.38158        0.378066 
        1.31957         0.37139        0.367689 
        1.33529        0.360053        0.357667 
        1.35108        0.349874         0.34798 
        1.36674        0.337787        0.338723 
         1.3824         0.33336        0.329813 
        1.39811         0.32255        0.321195 
        1.41389        0.314693        0.312854 
        1.42964        0.307811        0.304824 
        1.44531        0.297082        0.297117 
        1.46101        0.291317        0.289661 
        1.47667        0.281218        0.282485 
        1.49229         0.27648        0.275572 
        1.50793        0.268162        0.268883 
        1.52367        0.262647        0.262375 
        1.53953        0.256288        0.256039 
        1.55526        0.250377        0.249964 
        1.57092        0.242586        0.244112 
        1.58662        0.238294        0.238434 
        1.60235        0.233376        0.232927 
        1.61809        0.225484        0.227592 
        1.63369        0.222822        0.222471 
        1.64941        0.217203        0.217473 
        1.66519        0.211422         0.21261 
        1.68085         0.20595        0.207932 
        1.69652        0.201381        0.203393 
        1.71228        0.198103        0.198965 
        1.72806        0.192125        0.194666 
        1.74368        0.189507        0.190537 
        1.75933        0.184827         0.18652 
        1.77505         0.18049        0.182601 
        1.79081         0.17749        0.178787 
         1.8065         0.17207          0.1751 
        1.82218        0.169443         0.17152 
        1.83797        0.165513        0.168016 
        1.85367        0.162583        0.164629 
        1.86928        0.159431        0.161357 
        1.88497        0.156264        0.158156 
        1.90073        0.152523         0.15503 
        1.91647        0.149574        0.151992 
        1.93218        0.146115        0.149042 
        1.94787        0.143232        0.146175 
        1.96363        0.140685        0.143372 
        1.97935        0.137216        0.140649 
        1.99499        0.135109        0.138012 
        2.01064        0.132733        0.135439 
         2.0264         0.12965        0.132916 
        2.04216        0.127803        0.130458 
        2.05781         0.12514        0.128078 
        2.07353        0.121921         0.12575 
        2.08928        0.119943        0.123474 
        2.10499         0.11748        0.121261 
        2.12065        0.116027        0.119109 
        2.13633        0.113291        0.117007 
        2.15211        0.111952        0.114943 
        2.16785         0.10942        0.112935 
        2.18349        0.106688        0.110987 
        2.19916           0.106        0.109081 
        2.21489        0.103842        0.107214 
        2.23063        0.102021        0.105389 
         2.2463       0.0998443        0.103616 
        2.26194       0.0979904        0.101887 
        2.27765       0.0962238        0.100189 
        2.29341        0.094977       0.0985258 
        2.30914       0.0929263       0.0969036 
        2.32486       0.0913068        0.095319 
        2.34061       0.0898553       0.0937673 
        2.35635       0.0882234       0.0922516 
        2.37203       0.0867979       0.0907748 
        2.38768       0.0852163       0.0893334 
        2.40339       0.0838587       0.0879182 
        2.41914       0.0827491       0.0865304 
        2.43483       0.0809815       0.0851776 
         2.4505       0.0793782        0.083856 
        2.46622       0.0782843        0.082558 
        2.48195       0.0767686       0.0812875 
        2.49759       0.0761064       0.0800505 
        2.51328       0.0749088       0.0788361 
        2.52906       0.0734307       0.0776393 
        2.54479       0.0721306       0.0764719 
        2.56049       0.0710304       0.0753308 
        2.57618       0.0699457        0.074214 
        2.59189       0.0689386       0.0731183 
        2.60758       0.0681484       0.0720464 
        2.62325         0.06681       0.0709974 
        2.63898       0.0657816       0.0699656 
        2.65468       0.0644779       0.0689566 
        2.67044       0.0638949       0.0679632 
        2.68618       0.0628642       0.0669917 
        2.70184       0.0617435       0.0660431 
        2.71755       0.0605268       0.0651106 
        2.73329       0.0599596       0.0641946 
        2.74897       0.0592335       0.0632994 
        2.76462       0.0580877       0.0624232 
        2.78034        0.057359         0.06156 
        2.79607       0.0563833       0.0607123 
        2.81179       0.0557394       0.0598815 
        2.82749        0.054785       0.0590672 
        2.84321       0.0539849       0.0582672 
        2.85893        0.053268       0.0574823 
        2.87462       0.0527651       0.0567132 
        2.89033       0.0518029       0.0559576 
        2.90605       0.0508577        0.055215 
        2.92176       0.0504135       0.0544864 
        2.93747       0.0496559       0.0537712 
        2.95318       0.0487927       0.0530688 
        2.96891       0.0482684       0.0523787 
        2.98456       0.0477417       0.0517039 
        3.00023        0.046836         0.05104 
        3.01596       0.0462484       0.0503858 
        3.03164       0.0458298       0.0497449 
        3.04738       0.0450743       0.0491133 
         3.0631       0.0443559       0.0484929 
        3.07883       0.0438092       0.0478832 
        3.09456        0.043371       0.0472841 
        3.11026       0.0426763       0.0466962 
        3.12596       0.0422842       0.0461183 
        3.14163       0.0416637       0.0455516 
        3.15734       0.0411554       0.0449932 
        3.17308       0.0406366       0.0444427 
        3.18879       0.0400029        0.043903 
        3.20447        0.039676       0.0433731 
         3.2202        0.039134       0.0428502 
         3.2359       0.0387113        0.042337 
        3.25157       0.0381266       0.0418333 
        3.26729       0.0376656       0.0413364 
        3.28304       0.0372814       0.0408466 
        3.29877       0.0368033       0.0403653 
        3.31446       0.0363327       0.0398929 
        3.33014        0.035953       0.0394285 
        3.34585       0.0355126       0.0389707 
        3.36158       0.0349919       0.0385196 
        3.37727       0.0346958        0.038077 
        3.39294        0.034388       0.0376418 
        3.40867       0.0339125       0.0372119 
        3.42439       0.0335235       0.0367889 
        3.44008       0.0331534       0.0363733 
        3.45578       0.0329218       0.0359638 
        3.47153       0.0323927       0.0355598 
        3.48724       0.0322501       0.0351626 
        3.50292       0.0316939       0.0347725 
        3.51859        0.031289       0.0343885 
        3.53431       0.0311464       0.0340091 
        3.55007       0.0307348       0.0336345 
        3.56577       0.0304863       0.0332671 
        3.58146       0.0300802       0.0329052 
        3.59719       0.0298383        0.032548 
        3.61292       0.0294564       0.0321962 
        3.62859       0.0291757       0.0318509 
        3.64429       0.0289513         0.03151 
        3.66003       0.0285676       0.0311731 
        3.67578       0.0283663       0.0308412 
        3.69146       0.0280861       0.0305154 
        3.70712       0.0278958        0.030195 
        3.72284       0.0275691       0.0298779 
        3.73853       0.0272416        0.029566 
        3.75422        0.027152       0.0292584 
        3.76993       0.0267593       0.0289549 
        3.78564       0.0265608       0.0286559 
        3.80137       0.0262972       0.0283606 
        3.81707       0.0259792         0.02807 
        3.83279       0.0258207       0.0277834 
        3.84853       0.0256028       0.0275002 
        3.86424       0.0253652       0.0272216 
        3.87992       0.0251505       0.0269473 
        3.89561       0.0249559       0.0266767 
        3.91134       0.0246952       0.0264093 
        3.92704       0.0244354       0.0261459 
        3.94273        0.024227       0.0258863 
        3.95845       0.0240443       0.0256298 
        3.97418       0.0238757       0.0253767 
        3.98988       0.0235863       0.0251274 
        4.00554       0.0233426       0.0248821 
        4.02125       0.0229935       0.0246394 
        4.03698       0.0227494       0.0243995 
        4.05268       0.0224597       0.0241634 
        4.06839       0.0221115       0.0239302 
         4.0841       0.0218065       0.0237002 
        4.09983       0.0214822        0.023473 
        4.11555        0.021262       0.0232487 
        4.13124         0.02098       0.0230281 
        4.14693       0.0205993       0.0228101 
        4.16266       0.0203802       0.0225944 
        4.17839       0.0201559       0.0223817 
        4.19408       0.0199399       0.0221721 
        4.20977       0.0196834       0.0219652 
        4.22551       0.0193704       0.0217604 
        4.24123       0.0191854       0.0215585 
        4.25691       0.0189878       0.0213596 
        4.27259       0.0187702       0.0211632 
        4.28831       0.0186061       0.0209689 
        4.30404       0.0184134       0.0207769 
        4.31974       0.0182245       0.0205876 
        4.33543       0.0180877       0.0204009 
        4.35116       0.0179197        0.020216 
        4.36688       0.0177619       0.0200335 
        4.38255       0.0175958       0.0198539 
        4.39825       0.0175142       0.0196761 
        4.41398       0.0174395       0.0195001 
         4.4297       0.0172876       0.0193265 
        4.44541       0.0171821       0.0191551 
        4.46111       0.0170498       0.0189858 
        4.47683       0.0170028       0.0188185 
        4.49251       0.0168551       0.0186535 
        4.50819        0.016802       0.0184906 
         4.5239        0.016721       0.0183294 
        4.53962       0.0167024       0.0181699 
        4.55535       0.0166455       0.0180122 
        4.57106        0.016652       0.0178566 
        4.58678        0.016547       0.0177028 
         4.6025        0.016567       0.0175509 
        4.61821       0.0165555       0.0174007 
        4.63391       0.0164923       0.0172524 
         4.6496       0.0165141        0.017106 
        4.66532       0.0165018        0.016961 
        4.68103       0.0165239       0.0168178 
        4.69673       0.0165272       0.0166764 
        4.71241       0.0166209       0.0165367 
        4.72811       0.0165767       0.0163984 
        4.74384        0.016611       0.0162616 
        4.75955        0.016726       0.0161265 
        4.77525        0.016749        0.015993 
        4.79096       0.0168501       0.0158608 
        4.80669       0.0168601       0.0157301 
         4.8224       0.0170223        0.015601 
        4.83809       0.0170642       0.0154735 
        4.85379       0.0172147       0.0153473 
         4.8695       0.0172661       0.0152225 
        4.88521       0.0174165       0.0150991 
        4.90093       0.0175344        0.014977 
        4.91663       0.0177305       0.0148564 
        4.93234       0.0178044        0.014737 
        4.94807       0.0178652       0.0146189 
        4.96377       0.0181183       0.0145022 
        4.97943       0.0182748       0.0143871 
        4.99514       0.0184506        0.014273 
        5.01086       0.0185583       0.0141599 
        5.02654       0.0188338       0.0140484 
        5.04227       0.0190294       0.0139378 
          5.058       0.0192072       0.0138283 
        5.07371       0.0193476       0.0137202 
        5.08942       0.0197751       0.0136133 
        5.10513       0.0199453       0.0135075 
        5.12084       0.0201054       0.0134027 
        5.13656       0.0204892       0.0132991 
        5.15225       0.0206992       0.0131967 
        5.16796       0.0210936       0.0130953 
        5.18369       0.0212033       0.0129949 
         5.1994       0.0215975       0.0128956 
        5.21509        0.021909       0.0127976 
        5.23079       0.0221608       0.0127004 
        5.24649       0.0225155       0.0126043 
        5.26217       0.0228745       0.0125092 
        5.27788       0.0232455        0.012415 
        5.29359       0.0236657       0.0123218 
        5.30933       0.0239319       0.0122294 
        5.32504       0.0243169       0.0121381 
        5.34073       0.0248642       0.0120478 
        5.35646       0.0251992       0.0119583 
        5.37218       0.0256376       0.0118696 
        5.38789       0.0261962        0.011782 
        5.40357       0.0266336       0.0116954 
        5.41929       0.0270017       0.0116095 
        5.43502       0.0275948       0.0115244 
         5.4507       0.0280038       0.0114404 
        5.46639       0.0286107       0.0113572 
        5.48212       0.0289587       0.0112746 
        5.49786       0.0296174       0.0111928 
        5.51353       0.0304062       0.0111121 
        5.52921       0.0308843       0.0110322 
        5.54495       0.0316015       0.0109529 
        5.56066       0.0321926       0.0108744 
        5.57637       0.0327944       0.0107967 
        5.59207       0.0333898       0.0107198 
        5.60778       0.0341828       0.0106437 
        5.62346       0.0348962       0.0105683 
        5.63916       0.0355425       0.0104937 
        5.65487       0.0362526       0.0104197 
         5.6706       0.0368793       0.0103464 
        5.68633        0.038023       0.0102737 
        5.70203       0.0388232       0.0102019 
        5.71773       0.0394929       0.0101308 
        5.73344       0.0403629       0.0100603 
        5.74916       0.0414862      0.00999043 
        5.76486       0.0422915      0.00992132 
        5.78054       0.0431789      0.00985297 
        5.79626       0.0441391      0.00978508 
          5.812       0.0451343      0.00971776 
         5.8277       0.0463558      0.00965126 
        5.84339        0.047077      0.00958539 
        5.85911       0.0482583      0.00952001 
        5.87484       0.0494917      0.00945525 
        5.89053       0.0507408      0.00939123 
        5.90623       0.0519121      0.00932776 
        5.92195        0.053136      0.00926478 
        5.93767       0.0544958      0.00920241 
        5.95336       0.0556309      0.00914072 
        5.96905       0.0570246      0.00907961 
        5.98476       0.0579896      0.00901899 
        6.00048       0.0596079      0.00895889 
        6.01617         0.06093      0.00889942 
        6.03185       0.0623414      0.00884057 
        6.04756       0.0642639      0.00878211 
        6.06331        0.065867      0.00872405 
        6.07903       0.0673166      0.00866664 
        6.09473       0.0691538       0.0086098 
        6.11044       0.0711825      0.00855342 
        6.12616        0.072787      0.00849755 
        6.14186       0.0746153      0.00844224 
        6.15755       0.0764787      0.00838743 
        6.17326       0.0778623      0.00833306 
        6.18898       0.0803478      0.00827914 
        6.20467        0.082367       0.0082258 
        6.22036         0.08447      0.00817294 
         6.2361       0.0861222      0.00812039 
         6.2518       0.0893685       0.0080684 
        6.26748       0.0906488      0.00801697 
        6.28319       0.0939742      0.00796585 
        6.29893       0.0964794      0.00791514 
        6.31463       0.0985626      0.00786495 
        6.33033        0.101254      0.00781521 
        6.34604        0.103577      0.00776587 
        6.36177        0.106341      0.00771691 
        6.37747        0.109046      0.00766846 
