# k  (h/Mpc)    Pcb(k)  (Mpc/h)^3    Pcb_linear(k) (Mpc/h)^3   ShotnoiseSubtracted = true
      0.0200456         6729.76         6823.33 
      0.0350414         5204.32         5095.62 
      0.0492313         3815.47         3836.23 
      0.0637834         3129.47         3221.93 
      0.0800726          2435.5         2512.77 
       0.096163         1899.33         1848.92 
       0.111083         1589.28         1530.28 
       0.126058         1337.09         1354.82 
       0.142273         1116.81            1113 
       0.158546         921.251         889.541 
        0.17375         819.139          777.53 
       0.188953         747.334         701.722 
       0.204907         626.372         603.564 
       0.220756         560.411          513.56 
        0.23588         502.494         459.676 
         0.2514         452.159         418.365 
       0.267535         429.209         371.075 
       0.283568         374.545         327.419 
       0.299022         355.003          297.03 
       0.314451         348.447         272.691 
       0.330372         301.524         247.369 
       0.346141         279.188         224.083 
       0.361624           264.3         205.691 
       0.377134          243.16         190.175 
       0.392932         237.014          175.14 
       0.408854         223.447         161.092 
       0.424564         213.963         149.194 
       0.440253         193.627         138.827 
       0.455999         182.568         129.182 
       0.471626         178.083         120.333 
        0.48727         171.568         112.408 
       0.502856         156.913         105.341 
       0.518488         154.776         98.8168 
       0.534347         144.973          92.693 
       0.550082         141.532         87.1555 
       0.565732         138.627         82.1357 
       0.581496          128.14         77.4728 
       0.597222          125.15         73.1609 
       0.612804         121.267         69.2138 
       0.628434         117.814         65.5628 
       0.644267          111.91          62.136 
       0.660051         108.306         58.9625 
       0.675724         106.564         56.0298 
       0.691403         104.073         53.2953 
       0.707174         100.573         50.7288 
       0.722871         98.5054         48.3424 
        0.73838         95.7215         46.1358 
       0.754018         90.1932         44.0509 
       0.769845         89.5813         42.0727 
        0.78569         86.8735         40.2148 
       0.801365         84.4049         38.4881 
       0.817031         81.5667         36.8647 
       0.832809         80.1656         35.3252 
       0.848511         78.2362          33.881 
       0.864097         76.8875         32.5281 
       0.879701         75.3859         31.2482 
       0.895507         72.5894         30.0225 
       0.911279         71.6244         28.8655 
        0.92691         69.4237         27.7795 
       0.942635         68.0826         26.7437 
       0.958396         67.7807         25.7588 
       0.974128         66.1305         24.8256 
       0.989692         64.5274         23.9482 
        1.00528         63.3405         23.1121 
        1.02113         62.0086         22.3031 
        1.03692         61.6501          21.536 
        1.05264         60.3407         20.8088 
        1.06832          58.727         20.1164 
        1.08405         57.8147          19.454 
        1.09979         57.5012         18.8211 
        1.11537         55.9014         18.2229 
        1.13105         54.6135         17.6472 
        1.14679         54.0011         17.0943 
        1.16256         53.1925         16.5641 
        1.17828         52.5322         16.0584 
        1.19395         51.2176         15.5755 
         1.2097         51.1894         15.1102 
        1.22537         50.0215         14.6662 
          1.241         49.2855         14.2415 
        1.25666         48.2714         13.8327 
        1.27241         48.0713          13.438 
        1.28819         46.8935         13.0582 
        1.30392         46.4943         12.6942 
        1.31957         46.0302         12.3458 
        1.33529         45.2056         12.0093 
        1.35108           44.38         11.6841 
        1.36674         43.9322         11.3732 
         1.3824         43.2177         11.0741 
        1.39811         42.4655         10.7847 
        1.41389         41.9463         10.5046 
        1.42964         41.5982          10.235 
        1.44531         40.6951         9.97624 
        1.46101         40.5072          9.7259 
        1.47667         39.9571         9.48493 
        1.49229         39.3165         9.25281 
        1.50793         38.8935         9.02824 
        1.52367         38.3102          8.8097 
        1.53953         38.0532         8.59697 
        1.55526         37.4822         8.39299 
        1.57092         37.0068          8.1965 
        1.58662         36.4582         8.00586 
        1.60235         36.0363         7.82095 
        1.61809         35.6246          7.6418 
        1.63369         35.2278         7.46988 
        1.64941         34.7753         7.30205 
        1.66519         34.2154         7.13878 
        1.68085         33.7952         6.98169 
        1.69652         33.4583          6.8293 
        1.71228         33.2225         6.68061 
        1.72806         32.6607         6.53625 
        1.74368         32.2849         6.39762 
        1.75933          32.016         6.26275 
        1.77505         31.7945         6.13115 
        1.79081         31.3489         6.00311 
         1.8065         30.8566          5.8793 
        1.82218         30.5151         5.75909 
        1.83797         30.3329         5.64144 
        1.85367         29.8732         5.52773 
        1.86928         29.8696         5.41785 
        1.88497          29.231         5.31037 
        1.90073         29.0081         5.20542 
        1.91647         28.7554         5.10341 
        1.93218         28.7153         5.00436 
        1.94787         28.2974         4.90809 
        1.96363         27.8789         4.81398 
        1.97935         27.5412         4.72254 
        1.99499         27.3837           4.634 
        2.01064         26.9851         4.54761 
         2.0264         26.7207         4.46288 
        2.04216         26.5945         4.38037 
        2.05781         26.2883         4.30046 
        2.07353         26.0137         4.22228 
        2.08928         25.6101         4.14587 
        2.10499         25.4532         4.07156 
        2.12065         25.1639          3.9993 
        2.13633         24.9832         3.92874 
        2.15211         24.5681         3.85943 
        2.16785         24.5103         3.79199 
        2.18349         24.1993         3.72659 
        2.19916         23.9632          3.6626 
        2.21489         23.6994         3.59991 
        2.23063          23.601         3.53864 
         2.2463         23.2881         3.47908 
        2.26194         23.0761         3.42104 
        2.27765         22.7589         3.36403 
        2.29341         22.5834         3.30818 
        2.30914         22.3441         3.25372 
        2.32486         22.2025         3.20051 
        2.34061          22.016         3.14841 
        2.35635         21.6666         3.09752 
        2.37203         21.5649         3.04793 
        2.38768         21.3843         2.99953 
        2.40339          21.251         2.95201 
        2.41914         20.9732         2.90542 
        2.43483         20.8127         2.85999 
         2.4505            20.5         2.81562 
        2.46622         20.3985         2.77203 
        2.48195         20.1724         2.72937 
        2.49759         19.8704         2.68784 
        2.51328         19.8252         2.64707 
        2.52906         19.6789         2.60688 
        2.54479          19.443         2.56768 
        2.56049         19.3051         2.52937 
        2.57618         19.2157         2.49187 
        2.59189         18.8761         2.45508 
        2.60758         18.7176         2.41909 
        2.62325         18.5663         2.38387 
        2.63898         18.4324         2.34922 
        2.65468         18.2414         2.31534 
        2.67044         18.0337         2.28199 
        2.68618         17.9466         2.24937 
        2.70184         17.7298         2.21752 
        2.71755         17.5712         2.18621 
        2.73329         17.4177         2.15545 
        2.74897         17.2851         2.12539 
        2.76462         17.1377         2.09597 
        2.78034         16.9241         2.06699 
        2.79607         16.8182         2.03852 
        2.81179         16.6624         2.01063 
        2.82749         16.5098         1.98329 
        2.84321         16.3957         1.95643 
        2.85893          16.152         1.93007 
        2.87462         16.1151         1.90425 
        2.89033         15.9357         1.87888 
        2.90605         15.8011         1.85394 
        2.92176         15.6414         1.82948 
        2.93747         15.5071         1.80547 
        2.95318         15.3993         1.78188 
        2.96891         15.2462         1.75871 
        2.98456         15.1353         1.73605 
        3.00023         14.9773         1.71376 
        3.01596         14.8853         1.69179 
        3.03164         14.7299         1.67027 
        3.04738         14.6165         1.64907 
         3.0631         14.4849         1.62824 
        3.07883         14.3875         1.60776 
        3.09456         14.2605         1.58765 
        3.11026         14.1598         1.56791 
        3.12596         14.0151         1.54851 
        3.14163         13.8791         1.52948 
        3.15734         13.7459         1.51073 
        3.17308         13.6869         1.49224 
        3.18879         13.5054         1.47412 
        3.20447         13.4556         1.45633 
         3.2202         13.3088         1.43877 
         3.2359         13.2016         1.42154 
        3.25157         13.1379         1.40463 
        3.26729         12.9682         1.38794 
        3.28304         12.8682          1.3715 
        3.29877         12.8105         1.35534 
        3.31446         12.6738         1.33948 
        3.33014         12.5902         1.32388 
        3.34585         12.4318         1.30851 
        3.36158         12.3485         1.29337 
        3.37727         12.2917         1.27851 
        3.39294         12.1779         1.26389 
        3.40867         12.0377         1.24946 
        3.42439         11.9413         1.23525 
        3.44008         11.8889          1.2213 
        3.45578          11.732         1.20755 
        3.47153         11.6686         1.19398 
        3.48724         11.6069         1.18065 
        3.50292         11.4996         1.16755 
        3.51859         11.3919         1.15466 
        3.53431          11.258         1.14192 
        3.55007         11.2154         1.12934 
        3.56577         11.0847           1.117 
        3.58146         10.9835         1.10485 
        3.59719         10.9028         1.09286 
        3.61292         10.8559         1.08105 
        3.62859         10.7597         1.06945 
        3.64429         10.6594         1.05801 
        3.66003         10.5806         1.04669 
        3.67578         10.4788         1.03555 
        3.69146         10.4342         1.02461 
        3.70712          10.327         1.01385 
        3.72284         10.2456         1.00321 
        3.73853         10.1657        0.992732 
        3.75422         10.0876        0.982403 
        3.76993         9.97485        0.972214 
        3.78564           9.927        0.962173 
        3.80137         9.84835        0.952257 
        3.81707         9.76144        0.942503 
        3.83279         9.66415        0.932877 
        3.84853         9.62494         0.92337 
        3.86424         9.53746        0.914015 
        3.87992         9.48311        0.904803 
        3.89561         9.39431        0.895718 
        3.91134         9.31383         0.88674 
        3.92704         9.23337        0.877895 
        3.94273         9.16534        0.869179 
        3.95845         9.10271        0.860566 
        3.97418         9.02453        0.852068 
        3.98988         8.97779        0.843697 
        4.00554         8.89917        0.835461 
        4.02125         8.84346        0.827311 
        4.03698          8.7662        0.819258 
        4.05268         8.68161         0.81133 
        4.06839         8.59115        0.803501 
         4.0841         8.53618        0.795779 
        4.09983         8.48651        0.788147 
        4.11555         8.38183        0.780618 
        4.13124         8.33518        0.773209 
        4.14693         8.26509        0.765889 
        4.16266         8.20962        0.758648 
        4.17839         8.14538        0.751505 
        4.19408         8.10115        0.744469 
        4.20977         7.98908        0.737521 
        4.22551         7.96162        0.730646 
        4.24123         7.92863        0.723865 
        4.25691          7.8538        0.717188 
        4.27259         7.76538        0.710594 
        4.28831         7.72336         0.70407 
        4.30404         7.67821        0.697621 
        4.31974         7.60337        0.691267 
        4.33543         7.55339        0.684997 
        4.35116         7.46789        0.678788 
        4.36688         7.43076         0.67266 
        4.38255         7.37603         0.66663 
        4.39825         7.30673        0.660661 
        4.41398         7.26238        0.654753 
         4.4297         7.20756        0.648924 
        4.44541          7.1579        0.643167 
        4.46111         7.11633        0.637484 
        4.47683         7.04541        0.631866 
        4.49251         7.00797        0.626327 
        4.50819         6.94728        0.620856 
         4.5239         6.87783        0.615442 
        4.53962         6.83967        0.610087 
        4.55535         6.78543        0.604792 
        4.57106         6.73913        0.599569 
        4.58678         6.69359        0.594405 
         4.6025         6.63257        0.589302 
        4.61821         6.59954        0.584259 
        4.63391         6.53524        0.579282 
         4.6496         6.49683        0.574365 
        4.66532         6.44753        0.569498 
        4.68103         6.40075        0.564689 
        4.69673           6.347         0.55994 
        4.71241         6.30961        0.555251 
        4.72811         6.26933        0.550608 
        4.74384         6.23512        0.546012 
        4.75955         6.17608        0.541475 
        4.77525         6.13056        0.536993 
        4.79096         6.08957        0.532556 
        4.80669         6.02884        0.528167 
         4.8224         6.00024        0.523832 
        4.83809         5.94889        0.519551 
        4.85379         5.90623        0.515315 
         4.8695         5.87214        0.511123 
        4.88521          5.8385        0.506979 
        4.90093         5.78713        0.502881 
        4.91663         5.73693        0.498832 
        4.93234         5.71174        0.494823 
        4.94807         5.65747        0.490856 
        4.96377         5.62612        0.486939 
        4.97943         5.58303        0.483074 
        4.99514         5.53602         0.47924 
        5.01086         5.51501        0.475446 
        5.02654         5.47514        0.471702 
        5.04227         5.42735        0.467987 
          5.058         5.38263        0.464311 
        5.07371         5.34763        0.460682 
        5.08942         5.31697        0.457091 
        5.10513         5.28273        0.453537 
        5.12084         5.24544         0.45002 
        5.13656          5.1931        0.446541 
        5.15225         5.16804        0.443105 
        5.16796         5.13727        0.439699 
        5.18369         5.09173        0.436326 
         5.1994         5.05785        0.432995 
        5.21509          5.0272        0.429701 
        5.23079         4.99603        0.426438 
        5.24649         4.96093        0.423211 
        5.26217         4.92885         0.42002 
        5.27788         4.89907        0.416858 
        5.29359         4.85481        0.413727 
        5.30933         4.82686        0.410624 
        5.32504         4.79762        0.407558 
        5.34073         4.76896        0.404527 
        5.35646         4.73094        0.401521 
        5.37218         4.68416        0.398544 
        5.38789         4.66433        0.395603 
        5.40357         4.63137        0.392695 
        5.41929         4.60018        0.389809 
        5.43502         4.56339        0.386953 
         5.4507         4.54739        0.384131 
        5.46639         4.51013        0.381338 
        5.48212         4.48376        0.378566 
        5.49786         4.45108        0.375818 
        5.51353         4.42592        0.373111 
        5.52921         4.40061        0.370427 
        5.54495         4.36104        0.367763 
        5.56066         4.33309        0.365128 
        5.57637          4.3076        0.362518 
        5.59207         4.28147        0.359937 
        5.60778         4.25266         0.35738 
        5.62346         4.22365        0.354851 
        5.63916         4.18966        0.352345 
        5.65487          4.1718        0.349861 
         5.6706         4.15395        0.347398 
        5.68633         4.12688        0.344958 
        5.70203         4.09042        0.342547 
        5.71773         4.06589        0.340159 
        5.73344         4.04034        0.337793 
        5.74916         4.01954        0.335447 
        5.76486         3.98492        0.333126 
        5.78054          3.9727        0.330831 
        5.79626         3.93755        0.328552 
          5.812         3.91412        0.326291 
         5.8277          3.8874        0.324059 
        5.84339         3.86808        0.321847 
        5.85911         3.83771        0.319652 
        5.87484          3.8206        0.317477 
        5.89053         3.79454        0.315328 
        5.90623          3.7744        0.313197 
        5.92195         3.74718        0.311082 
        5.93767         3.72171        0.308988 
        5.95336         3.70683        0.306916 
        5.96905         3.67177        0.304865 
        5.98476         3.66454        0.302829 
        6.00048         3.62852        0.300811 
        6.01617         3.61161        0.298814 
        6.03185         3.59216        0.296838 
        6.04756         3.55735        0.294875 
        6.06331          3.5435        0.292926 
        6.07903         3.51861        0.290998 
        6.09473         3.50372         0.28909 
        6.11044         3.48077        0.287197 
        6.12616         3.45593        0.285321 
        6.14186         3.43699        0.283464 
        6.15755         3.41284        0.281623 
        6.17326         3.39574        0.279797 
        6.18898         3.37363        0.277987 
        6.20467         3.35189        0.276196 
        6.22036         3.33437        0.274421 
         6.2361         3.31785        0.272657 
         6.2518         3.29769        0.270911 
        6.26748         3.27662        0.269184 
        6.28319         3.25459        0.267468 
        6.29893         3.23936        0.265765 
        6.31463         3.21694         0.26408 
        6.33033         3.20592         0.26241 
        6.34604         3.18367        0.260753 
        6.36177         3.16829        0.259109 
        6.37747         3.14267        0.257483 
