# k  (h/Mpc)    Pcb(k)  (Mpc/h)^3    Pcb_linear(k) (Mpc/h)^3   ShotnoiseSubtracted = true
      0.0200456         1004.58         1017.59 
      0.0350414         768.558         759.931 
      0.0492313         573.379         572.113 
      0.0637834         475.319         480.499 
      0.0800726         370.828         374.739 
       0.096163         279.923         275.737 
       0.111083         232.404         228.217 
       0.126058          200.64          202.05 
       0.142273         165.189         165.986 
       0.158546         133.847         132.661 
        0.17375         117.836         115.956 
       0.188953         105.609         104.651 
       0.204907          88.941          90.012 
       0.220756         77.6467         76.5893 
        0.23588         69.3492         68.5534 
         0.2514         63.0734         62.3925 
       0.267535          56.747         55.3399 
       0.283568         49.9667         48.8293 
       0.299022         45.6527         44.2973 
       0.314451         42.7458         40.6676 
       0.330372         38.2711         36.8911 
       0.346141         34.8071         33.4183 
       0.361624         31.9219         30.6755 
       0.377134         29.3543         28.3616 
       0.392932         28.0434         26.1194 
       0.408854         25.3221         24.0243 
       0.424564         24.1004         22.2499 
       0.440253         22.0876         20.7038 
       0.455999         20.2244         19.2655 
       0.471626         18.9823         17.9458 
        0.48727         18.2764         16.7638 
       0.502856         17.1304           15.71 
       0.518488         15.8223          14.737 
       0.534347         14.8077         13.8237 
       0.550082         14.2096         12.9979 
       0.565732         13.5948         12.2492 
       0.581496         12.7911         11.5538 
       0.597222         12.0409         10.9108 
       0.612804         11.3724         10.3221 
       0.628434         10.9938         9.77765 
       0.644267         10.4429          9.2666 
       0.660051         9.89812         8.79332 
       0.675724         9.36036         8.35596 
       0.691403         9.03963         7.94814 
       0.707174         8.60979         7.56539 
       0.722871         8.39173          7.2095 
        0.73838         7.84507         6.88042 
       0.754018         7.49817         6.56949 
       0.769845         7.14504         6.27447 
        0.78569         6.95927          5.9974 
       0.801365         6.65813         5.73989 
       0.817031         6.43743         5.49778 
       0.832809         6.11287         5.26818 
       0.848511         5.94626         5.05282 
       0.864097         5.72824         4.85105 
       0.879701         5.57707         4.66017 
       0.895507         5.34044         4.47738 
       0.911279         5.14873         4.30483 
        0.92691         5.00125         4.14287 
       0.942635         4.79223         3.98839 
       0.958396         4.63478         3.84152 
       0.974128         4.51471         3.70235 
       0.989692         4.31522         3.57149 
        1.00528         4.22605          3.4468 
        1.02113         4.10129         3.32615 
        1.03692         3.99057         3.21175 
        1.05264         3.82839          3.1033 
        1.06832         3.73343         3.00005 
        1.08405         3.62212         2.90125 
        1.09979         3.53609         2.80687 
        1.11537         3.42781         2.71765 
        1.13105         3.31369          2.6318 
        1.14679         3.23071         2.54934 
        1.16256         3.12696         2.47028 
        1.17828         3.08566         2.39485 
        1.19395         2.97131         2.32284 
         1.2097         2.88922         2.25344 
        1.22537          2.7975         2.18723 
          1.241         2.74078         2.12389 
        1.25666         2.70019         2.06292 
        1.27241         2.63461         2.00407 
        1.28819         2.53115         1.94742 
        1.30392         2.47276         1.89314 
        1.31957         2.43634         1.84119 
        1.33529         2.34213           1.791 
        1.35108         2.30052         1.74249 
        1.36674         2.23921         1.69614 
         1.3824         2.21148         1.65152 
        1.39811         2.14771         1.60837 
        1.41389          2.0968          1.5666 
        1.42964          2.0513         1.52639 
        1.44531         2.01736          1.4878 
        1.46101         1.96299         1.45046 
        1.47667         1.93021         1.41453 
        1.49229         1.86414         1.37991 
        1.50793         1.82089         1.34642 
        1.52367         1.78739         1.31383 
        1.53953         1.74426          1.2821 
        1.55526         1.73842         1.25168 
        1.57092         1.69761         1.22238 
        1.58662         1.67699         1.19395 
        1.60235         1.61785         1.16637 
        1.61809         1.59345         1.13965 
        1.63369         1.55406         1.11401 
        1.64941          1.5305         1.08898 
        1.66519         1.50782         1.06464 
        1.68085         1.46894         1.04121 
        1.69652         1.44335         1.01848 
        1.71228         1.41222        0.996307 
        1.72806         1.38988        0.974778 
        1.74368         1.36584        0.954103 
        1.75933         1.34402         0.93399 
        1.77505          1.3208        0.914363 
        1.79081          1.2855        0.895269 
         1.8065         1.27309        0.876803 
        1.82218         1.24227        0.858877 
        1.83797         1.21937         0.84133 
        1.85367         1.20297        0.824373 
        1.86928         1.18227        0.807986 
        1.88497         1.15745        0.791957 
        1.90073         1.14848        0.776306 
        1.91647         1.11707        0.761092 
        1.93218         1.10303         0.74632 
        1.94787         1.08433        0.731963 
        1.96363         1.07022        0.717928 
        1.97935         1.04953        0.704292 
        1.99499         1.03385        0.691087 
        2.01064         1.01818        0.678204 
         2.0264        0.995877        0.665568 
        2.04216        0.986473        0.653262 
        2.05781          0.9677        0.641346 
        2.07353        0.956142        0.629685 
        2.08928        0.938701         0.61829 
        2.10499        0.924106        0.607208 
        2.12065        0.909319        0.596432 
        2.13633        0.897892        0.585909 
        2.15211        0.879016        0.575572 
        2.16785        0.870684        0.565515 
        2.18349        0.856008        0.555762 
        2.19916         0.84594        0.546219 
        2.21489        0.832742        0.536869 
        2.23063         0.81627        0.527732 
         2.2463        0.806541        0.518849 
        2.26194        0.797492        0.510194 
        2.27765        0.784409        0.501692 
        2.29341        0.773538        0.493363 
        2.30914        0.758971         0.48524 
        2.32486        0.751873        0.477305 
        2.34061        0.740205        0.469535 
        2.35635        0.729915        0.461945 
        2.37203        0.721299         0.45455 
        2.38768        0.711605        0.447332 
        2.40339         0.70398        0.440246 
        2.41914        0.693974        0.433297 
        2.43483        0.683886        0.426522 
         2.4505        0.674996        0.419905 
        2.46622        0.666475        0.413405 
        2.48195        0.655762        0.407043 
        2.49759        0.649972        0.400849 
        2.51328        0.638993        0.394768 
        2.52906        0.631574        0.388775 
        2.54479        0.622294        0.382929 
        2.56049         0.61568        0.377215 
        2.57618         0.60856        0.371623 
        2.59189        0.600154        0.366136 
        2.60758         0.59468        0.360769 
        2.62325         0.58576        0.355516 
        2.63898        0.580852        0.350349 
        2.65468        0.570264        0.345297 
        2.67044        0.565361        0.340322 
        2.68618        0.559998        0.335457 
        2.70184        0.550727        0.330707 
        2.71755        0.544326        0.326038 
        2.73329        0.540866        0.321451 
        2.74897        0.531767        0.316968 
        2.76462        0.525777        0.312581 
        2.78034         0.51972        0.308258 
        2.79607        0.515143        0.304013 
        2.81179        0.507237        0.299853 
        2.82749         0.50295        0.295776 
        2.84321        0.496401         0.29177 
        2.85893        0.490266         0.28784 
        2.87462        0.484366        0.283989 
        2.89033        0.482538        0.280205 
        2.90605        0.476221        0.276486 
        2.92176        0.471945        0.272838 
        2.93747         0.46527        0.269257 
        2.95318        0.460775        0.265739 
        2.96891        0.457073        0.262284 
        2.98456        0.450013        0.258905 
        3.00023        0.446296         0.25558 
        3.01596        0.441728        0.252304 
        3.03164        0.437181        0.249095 
        3.04738        0.432567        0.245932 
         3.0631        0.427977        0.242825 
        3.07883        0.424082        0.239772 
        3.09456        0.420941        0.236772 
        3.11026        0.415479        0.233829 
        3.12596        0.410598        0.230935 
        3.14163        0.408808        0.228097 
        3.15734         0.40432        0.225301 
        3.17308        0.400498        0.222545 
        3.18879        0.396869        0.219842 
        3.20447        0.391751        0.217188 
         3.2202         0.38808         0.21457 
         3.2359        0.384735           0.212 
        3.25157          0.3786        0.209478 
        3.26729        0.378644         0.20699 
        3.28304        0.374162        0.204537 
        3.29877        0.370757        0.202127 
        3.31446        0.368865        0.199762 
        3.33014        0.364148        0.197436 
        3.34585        0.360348        0.195144 
        3.36158        0.358095        0.192885 
        3.37727        0.355304        0.190669 
        3.39294        0.352695        0.188489 
        3.40867         0.34797        0.186336 
        3.42439        0.346126        0.184218 
        3.44008        0.342834        0.182137 
        3.45578        0.339412        0.180087 
        3.47153        0.337491        0.178064 
        3.48724        0.334654        0.176075 
        3.50292         0.33157        0.174122 
        3.51859        0.329184        0.172199 
        3.53431        0.326339        0.170299 
        3.55007        0.323814        0.168423 
        3.56577        0.320932        0.166583 
        3.58146        0.318549        0.164771 
        3.59719        0.316038        0.162982 
        3.61292        0.313761        0.161221 
        3.62859        0.311577        0.159492 
        3.64429        0.308717        0.157785 
        3.66003        0.305888        0.156098 
        3.67578        0.304202        0.154436 
        3.69146        0.301028        0.152805 
        3.70712        0.299966          0.1512 
        3.72284        0.298368        0.149612 
        3.73853        0.295763         0.14805 
        3.75422          0.2931         0.14651 
        3.76993        0.290748         0.14499 
        3.78564        0.288215        0.143493 
        3.80137        0.286355        0.142014 
        3.81707        0.284856        0.140559 
        3.83279        0.282624        0.139124 
        3.84853        0.280182        0.137706 
        3.86424        0.278569        0.136311 
        3.87992        0.276153        0.134937 
        3.89561        0.274499        0.133582 
        3.91134        0.272127        0.132243 
        3.92704        0.270118        0.130924 
        3.94273         0.26905        0.129624 
        3.95845        0.266591         0.12834 
        3.97418        0.265133        0.127072 
        3.98988        0.262504        0.125824 
        4.00554        0.260058        0.124596 
        4.02125        0.257731         0.12338 
        4.03698        0.254989        0.122179 
        4.05268        0.252411        0.120997 
        4.06839        0.250433        0.119829 
         4.0841        0.247602        0.118678 
        4.09983        0.245642         0.11754 
        4.11555        0.242807        0.116417 
        4.13124        0.240631        0.115312 
        4.14693        0.238434         0.11422 
        4.16266        0.235836         0.11314 
        4.17839        0.233663        0.112075 
        4.19408        0.231493        0.111026 
        4.20977        0.230235         0.10999 
        4.22551        0.227964        0.108964 
        4.24123        0.225527        0.107953 
        4.25691        0.224542        0.106957 
        4.27259        0.222407        0.105974 
        4.28831        0.220996        0.105001 
        4.30404        0.218766        0.104039 
        4.31974        0.217089        0.103092 
        4.33543        0.215844        0.102156 
        4.35116        0.214623         0.10123 
        4.36688        0.213001        0.100317 
        4.38255        0.210942       0.0994172 
        4.39825        0.210185        0.098527 
        4.41398        0.208618        0.097646 
         4.4297        0.207664       0.0967766 
        4.44541        0.205892       0.0959181 
        4.46111        0.205218       0.0950706 
        4.47683        0.204371       0.0942327 
        4.49251        0.202784       0.0934067 
        4.50819        0.202193       0.0925907 
         4.5239        0.201255       0.0917834 
        4.53962        0.199731       0.0909847 
        4.55535        0.199278       0.0901951 
        4.57106        0.198475       0.0894161 
        4.58678        0.197096       0.0886461 
         4.6025        0.196961        0.087885 
        4.61821        0.196427        0.087133 
        4.63391        0.195644       0.0863907 
         4.6496        0.194891       0.0856574 
        4.66532        0.194341       0.0849315 
        4.68103        0.193718       0.0842144 
        4.69673        0.193467       0.0835062 
        4.71241        0.192994       0.0828068 
        4.72811        0.193198       0.0821144 
        4.74384        0.192397       0.0814289 
        4.75955        0.191789       0.0807524 
        4.77525        0.191827       0.0800839 
        4.79096        0.191337       0.0794222 
        4.80669        0.190946       0.0787677 
         4.8224        0.191283       0.0781212 
        4.83809        0.190867       0.0774828 
        4.85379        0.190721        0.076851 
         4.8695        0.191165       0.0762259 
        4.88521        0.190812       0.0756079 
        4.90093        0.191353       0.0749967 
        4.91663        0.190951       0.0743929 
        4.93234         0.19122        0.073795 
        4.94807        0.191381       0.0732033 
        4.96377        0.192213       0.0726192 
        4.97943        0.192433       0.0720428 
        4.99514        0.191539       0.0714711 
        5.01086        0.192778       0.0709052 
        5.02654        0.192902       0.0703468 
        5.04227         0.19361       0.0697929 
          5.058        0.194493       0.0692446 
        5.07371        0.194303       0.0687034 
        5.08942        0.195554       0.0681678 
        5.10513        0.195831       0.0676379 
        5.12084         0.19631       0.0671134 
        5.13656        0.196777       0.0665945 
        5.15225        0.197899        0.066082 
        5.16796        0.199032       0.0655741 
        5.18369        0.199627       0.0650711 
         5.1994        0.200638       0.0645743 
        5.21509         0.20094       0.0640831 
        5.23079        0.201964       0.0635964 
        5.24649         0.20281       0.0631152 
        5.26217         0.20428       0.0626393 
        5.27788        0.204807       0.0621677 
        5.29359         0.20616       0.0617008 
        5.30933         0.20743       0.0612381 
        5.32504        0.208512       0.0607808 
        5.34073        0.210182       0.0603288 
        5.35646         0.21116       0.0598804 
        5.37218        0.212607       0.0594366 
        5.38789        0.212981       0.0589979 
        5.40357        0.214824       0.0585642 
        5.41929        0.215674       0.0581339 
        5.43502        0.218224       0.0577078 
         5.4507        0.219268       0.0572871 
        5.46639        0.220848       0.0568705 
        5.48212        0.222116        0.056457 
        5.49786        0.223641       0.0560472 
        5.51353        0.226718       0.0556435 
        5.52921        0.226752       0.0552434 
        5.54495        0.229078        0.054846 
        5.56066         0.23104        0.054453 
        5.57637        0.232676       0.0540639 
        5.59207        0.234395       0.0536789 
        5.60778        0.236414       0.0532975 
        5.62346        0.238629       0.0529204 
        5.63916        0.239938       0.0525466 
        5.65487        0.242403       0.0521762 
         5.6706        0.242929       0.0518089 
        5.68633         0.24666       0.0514451 
        5.70203        0.249338       0.0510854 
        5.71773         0.25048       0.0507293 
        5.73344        0.252833       0.0503764 
        5.74916        0.254576       0.0500266 
        5.76486        0.257857       0.0496805 
        5.78054        0.258811       0.0493383 
        5.79626        0.261025       0.0489983 
          5.812        0.264554       0.0486612 
         5.8277        0.266152       0.0483282 
        5.84339        0.268386       0.0479984 
        5.85911        0.271718        0.047671 
        5.87484        0.273358       0.0473467 
        5.89053         0.27603       0.0470261 
        5.90623        0.277753       0.0467083 
        5.92195        0.280328       0.0463929 
        5.93767        0.282271       0.0460806 
        5.95336        0.285135       0.0457717 
        5.96905        0.288154       0.0454657 
        5.98476         0.29036       0.0451621 
        6.00048        0.292774       0.0448612 
        6.01617        0.296714       0.0445634 
        6.03185        0.298573       0.0442687 
        6.04756        0.299918       0.0439759 
        6.06331        0.302832       0.0436852 
        6.07903          0.3073       0.0433977 
        6.09473        0.308911       0.0431131 
        6.11044        0.311193       0.0428308 
        6.12616        0.314399        0.042551 
        6.14186        0.317223       0.0422741 
        6.15755        0.320724       0.0419996 
        6.17326        0.322458       0.0417273 
        6.18898          0.3244       0.0414574 
        6.20467        0.325291       0.0411903 
        6.22036        0.331839       0.0409255 
         6.2361        0.331304       0.0406624 
         6.2518        0.335154       0.0404021 
        6.26748        0.337236       0.0401446 
        6.28319        0.341658       0.0398886 
        6.29893         0.34353       0.0396346 
        6.31463         0.34541       0.0393833 
        6.33033         0.34938       0.0391343 
        6.34604        0.352509       0.0388872 
        6.36177        0.353122        0.038642 
        6.37747        0.356139       0.0383994 
