# k  (h/Mpc)    Pcb(k)  (Mpc/h)^3    Pcb_linear(k) (Mpc/h)^3   ShotnoiseSubtracted = true
      0.0200456         448.884         454.718 
      0.0350414          342.59          339.58 
      0.0492313         256.392         255.652 
      0.0637834         213.101         214.714 
      0.0800726         166.308         167.455 
       0.096163         124.705         123.215 
       0.111083         103.331          101.98 
       0.126058         89.7565         90.2872 
       0.142273         73.8436         74.1718 
       0.158546         59.5936         59.2804 
        0.17375         52.3134         51.8158 
       0.188953         46.8661         46.7638 
       0.204907           39.71         40.2225 
       0.220756         34.3957         34.2244 
        0.23588         30.7167         30.6335 
         0.2514          27.952         27.8805 
       0.267535         24.9618          24.729 
       0.283568         22.0074         21.8197 
       0.299022         20.0005         19.7945 
       0.314451          18.604         18.1726 
       0.330372         16.7326          16.485 
       0.346141         15.1821         14.9332 
       0.361624         13.8941         13.7075 
       0.377134         12.7957         12.6735 
       0.392932         12.0971         11.6716 
       0.408854         10.9236         10.7354 
       0.424564         10.3124         9.94252 
       0.440253         9.48837         9.25164 
       0.455999           8.726         8.60891 
       0.471626         8.15169         8.01919 
        0.48727          7.7697         7.49102 
       0.502856         7.28662         7.02012 
       0.518488         6.72352         6.58531 
       0.534347         6.27945         6.17721 
       0.550082         6.00505         5.80818 
       0.565732          5.7263         5.47365 
       0.581496           5.366         5.16291 
       0.597222         5.05678         4.87556 
       0.612804          4.7705         4.61252 
       0.628434          4.5519         4.36921 
       0.644267         4.33394         4.14084 
       0.660051          4.1117         3.92936 
       0.675724         3.87794         3.73392 
       0.691403         3.70904         3.55168 
       0.707174         3.52928         3.38065 
       0.722871          3.4371         3.22161 
        0.73838          3.2069         3.07456 
       0.754018         3.06597         2.93562 
       0.769845         2.90255         2.80379 
        0.78569         2.81755         2.67998 
       0.801365         2.70041         2.56491 
       0.817031         2.60044         2.45672 
       0.832809         2.46499         2.35412 
       0.848511         2.38396         2.25788 
       0.864097         2.29919         2.16772 
       0.879701         2.22587         2.08243 
       0.895507         2.11497         2.00075 
       0.911279         2.04933         1.92364 
        0.92691         1.98972         1.85127 
       0.942635          1.8881         1.78224 
       0.958396         1.82775         1.71661 
       0.974128         1.76864         1.65442 
       0.989692         1.70178         1.59594 
        1.00528         1.64209         1.54023 
        1.02113         1.60115         1.48631 
        1.03692         1.55334         1.43519 
        1.05264          1.4838         1.38673 
        1.06832         1.44369         1.34059 
        1.08405         1.38845         1.29644 
        1.09979         1.35524         1.25427 
        1.11537         1.30577          1.2144 
        1.13105         1.25649         1.17604 
        1.14679         1.22775         1.13919 
        1.16256         1.19018         1.10386 
        1.17828         1.16273         1.07015 
        1.19395         1.12348         1.03798 
         1.2097         1.08845         1.00697 
        1.22537         1.05203        0.977379 
          1.241         1.02623        0.949076 
        1.25666         1.00639         0.92183 
        1.27241        0.973999        0.895531 
        1.28819        0.940746        0.870219 
        1.30392        0.918652        0.845964 
        1.31957        0.896015        0.822746 
        1.33529        0.866478        0.800319 
        1.35108         0.84543        0.778644 
        1.36674        0.820845         0.75793 
         1.3824        0.807792        0.737992 
        1.39811           0.782        0.718709 
        1.41389          0.7638        0.700045 
        1.42964        0.743975        0.682078 
        1.44531        0.726055        0.664832 
        1.46101        0.703784        0.648149 
        1.47667         0.69089        0.632091 
        1.49229        0.668896        0.616622 
        1.50793        0.656652        0.601656 
        1.52367        0.637166        0.587092 
        1.53953        0.622502        0.572915 
        1.55526        0.611371        0.559322 
        1.57092         0.60181        0.546228 
        1.58662        0.588216        0.533523 
        1.60235        0.571814          0.5212 
        1.61809        0.557286        0.509262 
        1.63369        0.542266        0.497805 
        1.64941        0.533738         0.48662 
        1.66519        0.523643         0.47574 
        1.68085         0.50885        0.465271 
        1.69652        0.498924        0.455115 
        1.71228        0.486943        0.445207 
        1.72806         0.47788        0.435586 
        1.74368        0.467874        0.426348 
        1.75933        0.458827        0.417359 
        1.77505        0.450677        0.408589 
        1.79081        0.436881        0.400057 
         1.8065        0.431976        0.391805 
        1.82218         0.42004        0.383795 
        1.83797        0.409293        0.375954 
        1.85367        0.405225        0.368377 
        1.86928        0.395949        0.361054 
        1.88497        0.386284        0.353891 
        1.90073        0.380722        0.346897 
        1.91647        0.372982        0.340099 
        1.93218         0.36687        0.333498 
        1.94787         0.35838        0.327083 
        1.96363        0.352151        0.320811 
        1.97935        0.344875        0.314717 
        1.99499        0.338393        0.308817 
        2.01064        0.332951         0.30306 
         2.0264        0.325234        0.297414 
        2.04216        0.318697        0.291915 
        2.05781         0.31419         0.28659 
        2.07353        0.308378        0.281379 
        2.08928        0.303449        0.276287 
        2.10499        0.296483        0.271335 
        2.12065        0.291961         0.26652 
        2.13633        0.287261        0.261817 
        2.15211         0.28193        0.257198 
        2.16785          0.2769        0.252704 
        2.18349        0.272566        0.248346 
        2.19916        0.266602        0.244081 
        2.21489        0.261776        0.239903 
        2.23063        0.257564         0.23582 
         2.2463        0.253743        0.231851 
        2.26194        0.250003        0.227984 
        2.27765        0.244809        0.224185 
        2.29341        0.240998        0.220462 
        2.30914        0.235964        0.216833 
        2.32486        0.232381        0.213287 
        2.34061        0.228506        0.209815 
        2.35635        0.225003        0.206423 
        2.37203        0.223146        0.203119 
        2.38768        0.218157        0.199893 
        2.40339        0.214671        0.196727 
        2.41914        0.211328        0.193621 
        2.43483        0.207848        0.190594 
         2.4505        0.204206        0.187637 
        2.46622         0.20144        0.184733 
        2.48195        0.197927         0.18189 
        2.49759        0.196205        0.179122 
        2.51328        0.191143        0.176405 
        2.52906        0.188784        0.173727 
        2.54479        0.186131        0.171114 
        2.56049        0.182468        0.168561 
        2.57618        0.181122        0.166062 
        2.59189        0.177244         0.16361 
        2.60758        0.175691        0.161212 
        2.62325        0.172734        0.158865 
        2.63898        0.170861        0.156556 
        2.65468        0.166883        0.154298 
        2.67044        0.165088        0.152075 
        2.68618        0.162449        0.149901 
        2.70184         0.16055        0.147779 
        2.71755         0.15769        0.145692 
        2.73329         0.15628        0.143643 
        2.74897         0.15342        0.141639 
        2.76462        0.151293        0.139679 
        2.78034        0.149108        0.137747 
        2.79607         0.14743         0.13585 
        2.81179        0.144223        0.133991 
        2.82749        0.143087         0.13217 
        2.84321        0.141246        0.130379 
        2.85893        0.138611        0.128623 
        2.87462        0.137403        0.126902 
        2.89033        0.134888        0.125211 
        2.90605        0.133663         0.12355 
        2.92176        0.132085        0.121919 
        2.93747        0.129887        0.120319 
        2.95318        0.128528        0.118747 
        2.96891        0.126913        0.117203 
        2.98456        0.125445        0.115693 
        3.00023        0.123666        0.114208 
        3.01596        0.121524        0.112744 
        3.03164        0.120095         0.11131 
        3.04738        0.118901        0.109896 
         3.0631         0.11726        0.108508 
        3.07883        0.115751        0.107144 
        3.09456         0.11441        0.105803 
        3.11026         0.11261        0.104488 
        3.12596        0.111528        0.103195 
        3.14163        0.110215        0.101927 
        3.15734        0.109069        0.100677 
        3.17308        0.107413       0.0994455 
        3.18879        0.106315       0.0982379 
        3.20447        0.104657        0.097052 
         3.2202        0.103752       0.0958822 
         3.2359        0.102492       0.0947337 
        3.25157        0.101268       0.0936068 
        3.26729        0.100023       0.0924948 
        3.28304       0.0992202       0.0913988 
        3.29877       0.0976086       0.0903219 
        3.31446       0.0967179       0.0892648 
        3.33014       0.0957061       0.0882256 
        3.34585       0.0942202       0.0872014 
        3.36158       0.0933844       0.0861919 
        3.37727       0.0924684       0.0852016 
        3.39294       0.0916561       0.0842278 
        3.40867       0.0904688       0.0832657 
        3.42439        0.089638       0.0823192 
        3.44008       0.0888138       0.0813893 
        3.45578       0.0879593       0.0804731 
        3.47153       0.0870789        0.079569 
        3.48724       0.0860598       0.0786803 
        3.50292       0.0853458       0.0778074 
        3.51859       0.0842428       0.0769481 
        3.53431       0.0834785       0.0760992 
        3.55007       0.0826699        0.075261 
        3.56577       0.0820254       0.0744388 
        3.58146       0.0810927       0.0736292 
        3.59719       0.0801703       0.0728298 
        3.61292       0.0794281       0.0720425 
        3.62859       0.0787865       0.0712699 
        3.64429       0.0778333       0.0705072 
        3.66003       0.0775101       0.0697533 
        3.67578       0.0766815       0.0690107 
        3.69146        0.075977       0.0682817 
        3.70712       0.0753212       0.0675646 
        3.72284       0.0744936       0.0668552 
        3.73853       0.0741731       0.0661572 
        3.75422       0.0732497       0.0654689 
        3.76993        0.072649       0.0647898 
        3.78564       0.0722216       0.0641207 
        3.80137       0.0716865       0.0634599 
        3.81707       0.0705306       0.0628099 
        3.83279       0.0701614       0.0621684 
        3.84853        0.069542       0.0615348 
        3.86424       0.0690998       0.0609114 
        3.87992       0.0685551       0.0602975 
        3.89561       0.0677371       0.0596921 
        3.91134       0.0671857       0.0590937 
        3.92704       0.0665703       0.0585043 
        3.94273       0.0659218       0.0579235 
        3.95845       0.0653691       0.0573495 
        3.97418       0.0648513       0.0567832 
        3.98988       0.0639302       0.0562253 
        4.00554       0.0635122       0.0556764 
        4.02125       0.0630623       0.0551333 
        4.03698       0.0619834       0.0545966 
        4.05268       0.0615527       0.0540683 
        4.06839       0.0605985       0.0535466 
         4.0841       0.0596821       0.0530319 
        4.09983       0.0589752       0.0525233 
        4.11555       0.0582021       0.0520216 
        4.13124       0.0574247       0.0515278 
        4.14693       0.0567752       0.0510401 
        4.16266       0.0558274       0.0505575 
        4.17839       0.0553142       0.0500814 
        4.19408       0.0546529       0.0496126 
        4.20977        0.054039       0.0491496 
        4.22551       0.0534596       0.0486914 
        4.24123       0.0527499       0.0482395 
        4.25691       0.0523207       0.0477946 
        4.27259       0.0517712       0.0473551 
        4.28831       0.0514517       0.0469203 
        4.30404       0.0507716       0.0464906 
        4.31974       0.0503602       0.0460671 
        4.33543       0.0498559       0.0456492 
        4.35116       0.0495833       0.0452355 
        4.36688       0.0489642       0.0448271 
        4.38255       0.0486674       0.0444252 
        4.39825       0.0484099       0.0440275 
        4.41398       0.0479282       0.0436337 
         4.4297       0.0476534       0.0432453 
        4.44541       0.0473687       0.0428616 
        4.46111       0.0469704       0.0424829 
        4.47683       0.0468055       0.0421085 
        4.49251       0.0465654       0.0417394 
        4.50819        0.046295       0.0413748 
         4.5239       0.0460915        0.041014 
        4.53962       0.0460444       0.0406571 
        4.55535       0.0459026       0.0403043 
        4.57106       0.0456142       0.0399562 
        4.58678       0.0456144       0.0396121 
         4.6025       0.0453468        0.039272 
        4.61821       0.0453719       0.0389359 
        4.63391       0.0452523       0.0386043 
         4.6496       0.0451053       0.0382766 
        4.66532       0.0451343       0.0379522 
        4.68103       0.0452717       0.0376317 
        4.69673       0.0450917       0.0373153 
        4.71241       0.0452361       0.0370028 
        4.72811        0.045096       0.0366934 
        4.74384        0.045139       0.0363871 
        4.75955       0.0453244       0.0360848 
        4.77525       0.0454059        0.035786 
        4.79096          0.0455       0.0354903 
        4.80669       0.0455525       0.0351979 
         4.8224       0.0456519        0.034909 
        4.83809       0.0457651       0.0346237 
        4.85379       0.0460173       0.0343414 
         4.8695       0.0463022        0.034062 
        4.88521       0.0464368       0.0337859 
        4.90093       0.0467713       0.0335128 
        4.91663       0.0471449       0.0332429 
        4.93234        0.047035       0.0329758 
        4.94807       0.0475862       0.0327114 
        4.96377       0.0477461       0.0324504 
        4.97943       0.0482329       0.0321928 
        4.99514       0.0484663       0.0319373 
        5.01086       0.0488559       0.0316845 
        5.02654       0.0492915        0.031435 
        5.04227       0.0496467       0.0311874 
          5.058         0.05011       0.0309424 
        5.07371       0.0504078       0.0307006 
        5.08942       0.0510499       0.0304612 
        5.10513       0.0513533       0.0302244 
        5.12084       0.0520554       0.0299901 
        5.13656       0.0526953       0.0297582 
        5.15225       0.0531503       0.0295292 
        5.16796       0.0538024       0.0293022 
        5.18369       0.0543909       0.0290775 
         5.1994       0.0549272       0.0288555 
        5.21509       0.0557525        0.028636 
        5.23079       0.0562703       0.0284185 
        5.24649       0.0570756       0.0282035 
        5.26217       0.0576675       0.0279908 
        5.27788       0.0588259         0.02778 
        5.29359       0.0594821       0.0275714 
        5.30933       0.0603567       0.0273646 
        5.32504       0.0611471       0.0271603 
        5.34073       0.0616706       0.0269583 
        5.35646       0.0626866        0.026758 
        5.37218       0.0637884       0.0265596 
        5.38789       0.0646958       0.0263636 
        5.40357       0.0657642       0.0261698 
        5.41929       0.0669542       0.0259775 
        5.43502       0.0679528       0.0257871 
         5.4507       0.0688653       0.0255991 
        5.46639        0.069587       0.0254129 
        5.48212        0.070975       0.0252282 
        5.49786       0.0727218       0.0250451 
        5.51353       0.0738661       0.0248647 
        5.52921       0.0747446       0.0246859 
        5.54495       0.0761398       0.0245083 
        5.56066       0.0774539       0.0243327 
        5.57637       0.0790197       0.0241588 
        5.59207        0.080019       0.0239868 
        5.60778       0.0813412       0.0238164 
        5.62346       0.0827746       0.0236478 
        5.63916       0.0847236       0.0234808 
        5.65487       0.0863277       0.0233153 
         5.6706       0.0873974       0.0231512 
        5.68633       0.0890875       0.0229886 
        5.70203       0.0908463       0.0228279 
        5.71773       0.0929981       0.0226687 
        5.73344       0.0950732        0.022511 
        5.74916       0.0966839       0.0223547 
        5.76486       0.0987508       0.0222001 
        5.78054        0.100872       0.0220471 
        5.79626        0.102367       0.0218952 
          5.812        0.104716       0.0217446 
         5.8277        0.106376       0.0215958 
        5.84339        0.108653       0.0214484 
        5.85911        0.110581       0.0213021 
        5.87484        0.112529       0.0211572 
        5.89053        0.115637       0.0210139 
        5.90623        0.118113       0.0208719 
        5.92195        0.120176        0.020731 
        5.93767        0.122463       0.0205914 
        5.95336        0.124655       0.0204534 
        5.96905        0.128661       0.0203167 
        5.98476        0.130121        0.020181 
        6.00048        0.132819       0.0200465 
        6.01617        0.136081       0.0199135 
        6.03185        0.138538       0.0197818 
        6.04756        0.140699       0.0196509 
        6.06331        0.144842        0.019521 
        6.07903        0.146883       0.0193926 
        6.09473         0.14936       0.0192654 
        6.11044        0.153969       0.0191392 
        6.12616        0.156907       0.0190142 
        6.14186        0.159625       0.0188905 
        6.15755        0.163043       0.0187678 
        6.17326         0.16664       0.0186461 
        6.18898        0.170687       0.0185255 
        6.20467        0.172918       0.0184061 
        6.22036        0.177099       0.0182879 
         6.2361        0.179604       0.0181703 
         6.2518        0.186051       0.0180539 
        6.26748        0.188514       0.0179389 
        6.28319        0.192159       0.0178245 
        6.29893        0.197438        0.017711 
        6.31463        0.201234       0.0175987 
        6.33033        0.203738       0.0174874 
        6.34604        0.208964        0.017377 
        6.36177        0.212395       0.0172674 
        6.37747        0.217163        0.017159 
