# k  (h/Mpc)    Pcb(k)  (Mpc/h)^3    Pcb_linear(k) (Mpc/h)^3   ShotnoiseSubtracted = true
      0.0200456            3908         3971.21 
      0.0350414         2920.47         2965.68 
      0.0492313         2229.02         2232.71 
      0.0637834         1899.05         1875.18 
      0.0800726          1483.6         1462.44 
       0.096163         1064.83         1076.08 
       0.111083          872.03         890.629 
       0.126058         794.121         788.511 
       0.142273         664.644         647.769 
       0.158546         540.882         517.717 
        0.17375         454.654         452.526 
       0.188953         425.635         408.406 
       0.204907         387.674         351.278 
       0.220756         325.122         298.895 
        0.23588         289.021         267.534 
         0.2514         257.312          243.49 
       0.267535         237.802         215.968 
       0.283568         214.347          190.56 
       0.299022         197.706         172.873 
       0.314451         179.214         158.708 
       0.330372         165.878          143.97 
       0.346141         149.865         130.417 
       0.361624         141.249         119.713 
       0.377134         133.346         110.683 
       0.392932         119.612         101.932 
       0.408854         115.073         93.7562 
       0.424564         109.876         86.8317 
       0.440253         101.969          80.798 
       0.455999         96.1851         75.1848 
       0.471626         89.2588         70.0345 
        0.48727         86.2852         65.4218 
       0.502856         81.7188         61.3093 
       0.518488         78.5678         57.5119 
       0.534347         75.4513         53.9478 
       0.550082         69.4461         50.7249 
       0.565732         65.7928         47.8034 
       0.581496         63.8444         45.0896 
       0.597222         61.7893           42.58 
       0.612804         58.1705         40.2828 
       0.628434         56.5509         38.1579 
       0.644267         55.0245         36.1635 
       0.660051         52.7708         34.3165 
       0.675724         50.2963         32.6097 
       0.691403          48.783         31.0181 
       0.707174         47.3863         29.5244 
       0.722871         45.5962         28.1355 
        0.73838         44.3122         26.8513 
       0.754018         42.3377         25.6378 
       0.769845         41.3117         24.4865 
        0.78569         40.0903         23.4052 
       0.801365         38.6977         22.4003 
       0.817031         37.8072         21.4554 
       0.832809         37.1082         20.5594 
       0.848511          35.007         19.7189 
       0.864097         34.3996         18.9315 
       0.879701         33.7338         18.1866 
       0.895507         33.1017         17.4733 
       0.911279         32.0531         16.7999 
        0.92691         31.2729         16.1678 
       0.942635         30.1485          15.565 
       0.958396         29.7535         14.9918 
       0.974128         28.8573         14.4486 
       0.989692         28.5514          13.938 
        1.00528         27.8974         13.4514 
        1.02113          26.855         12.9805 
        1.03692         26.3541         12.5341 
        1.05264         25.8675         12.1108 
        1.06832         25.2957         11.7079 
        1.08405         24.7212         11.3223 
        1.09979         24.2225          10.954 
        1.11537         23.7067         10.6058 
        1.13105         23.4198         10.2707 
        1.14679         23.0945         9.94896 
        1.16256         22.2895         9.64042 
        1.17828         22.1997         9.34605 
        1.19395         21.5041         9.06503 
         1.2097         21.3505          8.7942 
        1.22537         20.8348         8.53581 
          1.241         20.5131         8.28863 
        1.25666         19.9869         8.05068 
        1.27241         19.6593           7.821 
        1.28819         19.2626         7.59994 
        1.30392         19.1079         7.38811 
        1.31957         18.8816         7.18534 
        1.33529         18.5829         6.98948 
        1.35108         18.1431         6.80018 
        1.36674         17.9206         6.61928 
         1.3824          17.548         6.44516 
        1.39811         17.2987         6.27675 
        1.41389          17.121         6.11375 
        1.42964         16.8903         5.95684 
        1.44531         16.7129         5.80622 
        1.46101         16.2439         5.66052 
        1.47667         16.0694         5.52028 
        1.49229         15.8852         5.38519 
        1.50793         15.6534         5.25448 
        1.52367         15.4417         5.12729 
        1.53953         15.2409         5.00348 
        1.55526         14.9956         4.88476 
        1.57092         14.7888         4.77041 
        1.58662         14.6369         4.65945 
        1.60235         14.4071         4.55183 
        1.61809         14.2473         4.44757 
        1.63369         14.0453         4.34751 
        1.64941         13.8071         4.24983 
        1.66519         13.7231         4.15481 
        1.68085         13.5076         4.06338 
        1.69652         13.3279         3.97469 
        1.71228         13.1473         3.88815 
        1.72806         13.0879         3.80413 
        1.74368         12.8647         3.72345 
        1.75933         12.7194         3.64495 
        1.77505         12.5596         3.56836 
        1.79081         12.3637         3.49384 
         1.8065         12.2885         3.42178 
        1.82218         12.0682         3.35182 
        1.83797         11.9806         3.28335 
        1.85367         11.8028         3.21717 
        1.86928         11.7934         3.15322 
        1.88497         11.5322         3.09066 
        1.90073         11.4954         3.02958 
        1.91647         11.3846         2.97021 
        1.93218         11.2698         2.91256 
        1.94787          11.094         2.85653 
        1.96363         11.0223         2.80176 
        1.97935         10.8541         2.74854 
        1.99499         10.7114         2.69701 
        2.01064         10.6054         2.64673 
         2.0264         10.5137         2.59742 
        2.04216         10.4036          2.5494 
        2.05781         10.2539         2.50289 
        2.07353         10.1965         2.45739 
        2.08928         10.0939         2.41292 
        2.10499         10.0399         2.36967 
        2.12065         9.87175         2.32761 
        2.13633         9.84611         2.28655 
        2.15211          9.6945         2.24621 
        2.16785         9.63548         2.20696 
        2.18349         9.56352          2.1689 
        2.19916         9.44404         2.13165 
        2.21489         9.33712         2.09516 
        2.23063         9.25662         2.05951 
         2.2463         9.13883         2.02484 
        2.26194         9.05446         1.99106 
        2.27765         9.02073         1.95789 
        2.29341         8.91844         1.92538 
        2.30914         8.79365         1.89368 
        2.32486         8.71983         1.86271 
        2.34061         8.65302         1.83239 
        2.35635         8.60955         1.80277 
        2.37203         8.51063         1.77391 
        2.38768          8.3949         1.74574 
        2.40339          8.3493         1.71809 
        2.41914         8.22872         1.69097 
        2.43483         8.21689         1.66453 
         2.4505         8.14146          1.6387 
        2.46622          8.0608         1.61334 
        2.48195         7.97697         1.58851 
        2.49759         7.93886         1.56434 
        2.51328         7.83922         1.54061 
        2.52906         7.80374         1.51722 
        2.54479         7.71891          1.4944 
        2.56049         7.65876         1.47211 
        2.57618         7.61522         1.45028 
        2.59189         7.50252         1.42887 
        2.60758         7.48723         1.40792 
        2.62325         7.40679         1.38742 
        2.63898         7.30988         1.36726 
        2.65468         7.25294         1.34754 
        2.67044          7.2056         1.32813 
        2.68618         7.16075         1.30914 
        2.70184         7.08981         1.29061 
        2.71755         7.01797         1.27238 
        2.73329          6.9834         1.25448 
        2.74897         6.93477         1.23699 
        2.76462         6.89083         1.21987 
        2.78034         6.80897           1.203 
        2.79607         6.75911         1.18643 
        2.81179         6.72414          1.1702 
        2.82749         6.64897         1.15428 
        2.84321         6.65699         1.13865 
        2.85893         6.57456         1.12331 
        2.87462         6.49658         1.10828 
        2.89033         6.45046         1.09352 
        2.90605         6.39635         1.07901 
        2.92176         6.33658         1.06477 
        2.93747          6.3004         1.05079 
        2.95318         6.27259         1.03706 
        2.96891         6.20577         1.02358 
        2.98456         6.16042         1.01039 
        3.00023         6.09774        0.997418 
        3.01596         6.06374        0.984632 
        3.03164         6.03436        0.972108 
        3.04738         5.99369        0.959765 
         3.0631         5.93212        0.947642 
        3.07883         5.88694        0.935727 
        3.09456         5.84278         0.92402 
        3.11026         5.82184        0.912531 
        3.12596         5.76921        0.901239 
        3.14163         5.70975        0.890165 
        3.15734         5.66926        0.879251 
        3.17308         5.64342        0.868494 
        3.18879         5.58606        0.857947 
        3.20447         5.56578        0.847591 
         3.2202         5.50328        0.837374 
         3.2359         5.48663        0.827344 
        3.25157         5.42576        0.817502 
        3.26729         5.41407        0.807791 
        3.28304         5.35987        0.798219 
        3.29877         5.31197        0.788815 
        3.31446         5.27198        0.779583 
        3.33014         5.25419        0.770507 
        3.34585          5.2094        0.761562 
        3.36158          5.1874        0.752746 
        3.37727         5.14462        0.744097 
        3.39294         5.12131        0.735592 
        3.40867         5.06525         0.72719 
        3.42439         5.03935        0.718924 
        3.44008         5.00162        0.710802 
        3.45578         4.96098        0.702801 
        3.47153         4.92962        0.694905 
        3.48724         4.90699        0.687144 
        3.50292         4.86786         0.67952 
        3.51859         4.83088        0.672016 
        3.53431         4.78307        0.664602 
        3.55007         4.77404        0.657282 
        3.56577         4.74872        0.650101 
        3.58146         4.71296         0.64303 
        3.59719         4.68039        0.636049 
        3.61292         4.65487        0.629174 
        3.62859         4.60826        0.622426 
        3.64429         4.57942        0.615765 
        3.66003         4.55782        0.609181 
        3.67578         4.52141        0.602696 
        3.69146         4.47741        0.596329 
        3.70712         4.46187        0.590067 
        3.72284         4.43334        0.583871 
        3.73853         4.41288        0.577775 
        3.75422         4.37691        0.571764 
        3.76993         4.34144        0.565833 
        3.78564         4.31718        0.559989 
        3.80137         4.29662        0.554219 
        3.81707         4.26111        0.548542 
        3.83279         4.23627        0.542939 
        3.84853         4.19077        0.537406 
        3.86424         4.17645        0.531962 
        3.87992         4.15072          0.5266 
        3.89561         4.13072        0.521313 
        3.91134         4.09295        0.516087 
        3.92704         4.06793        0.510939 
        3.94273         4.04653        0.505867 
        3.95845         4.02765        0.500854 
        3.97418         3.99242        0.495908 
        3.98988         3.97562        0.491036 
        4.00554          3.9428        0.486242 
        4.02125         3.90657        0.481499 
        4.03698         3.87966        0.476812 
        4.05268         3.85382        0.472198 
        4.06839         3.84364        0.467642 
         4.0841         3.80334        0.463147 
        4.09983         3.77838        0.458706 
        4.11555         3.75425        0.454324 
        4.13124         3.73127        0.450012 
        4.14693         3.70435        0.445752 
        4.16266         3.68616        0.441537 
        4.17839         3.66586         0.43738 
        4.19408         3.62755        0.433285 
        4.20977         3.61033        0.429241 
        4.22551         3.58462        0.425239 
        4.24123         3.55995        0.421293 
        4.25691         3.53838        0.417407 
        4.27259         3.52762        0.413569 
        4.28831         3.49266        0.409772 
        4.30404          3.4708        0.406019 
        4.31974         3.45098        0.402321 
        4.33543         3.42283        0.398672 
        4.35116         3.39751        0.395058 
        4.36688         3.38857        0.391491 
        4.38255         3.35874        0.387982 
        4.39825         3.34967        0.384508 
        4.41398         3.33169        0.381069 
         4.4297         3.30693        0.377677 
        4.44541         3.28554        0.374326 
        4.46111         3.26437        0.371019 
        4.47683         3.23667        0.367749 
        4.49251         3.21886        0.364525 
        4.50819         3.20157        0.361341 
         4.5239         3.18632        0.358191 
        4.53962         3.16392        0.355074 
        4.55535         3.14666        0.351992 
        4.57106         3.12938        0.348952 
        4.58678         3.10485        0.345947 
         4.6025         3.08817        0.342977 
        4.61821         3.07616        0.340042 
        4.63391         3.05742        0.337145 
         4.6496         3.03803        0.334283 
        4.66532         3.00193        0.331451 
        4.68103         2.99563        0.328652 
        4.69673         2.97609        0.325888 
        4.71241         2.95486        0.323159 
        4.72811         2.94258        0.320456 
        4.74384         2.92763        0.317782 
        4.75955         2.91441        0.315141 
        4.77525          2.8966        0.312533 
        4.79096         2.86932         0.30995 
        4.80669         2.86069        0.307396 
         4.8224         2.85289        0.304873 
        4.83809          2.8294        0.302381 
        4.85379         2.81466        0.299916 
         4.8695         2.79876        0.297476 
        4.88521         2.78195        0.295065 
        4.90093         2.75992        0.292679 
        4.91663         2.74671        0.290323 
        4.93234         2.73182         0.28799 
        4.94807         2.71716        0.285681 
        4.96377         2.69773        0.283401 
        4.97943         2.68667        0.281151 
        4.99514         2.66559         0.27892 
        5.01086         2.64841        0.276712 
        5.02654         2.64072        0.274533 
        5.04227         2.62691        0.272371 
          5.058           2.615        0.270232 
        5.07371         2.59532        0.268119 
        5.08942         2.58438        0.266029 
        5.10513         2.56561        0.263961 
        5.12084         2.55791        0.261914 
        5.13656         2.53992        0.259889 
        5.15225         2.52298        0.257889 
        5.16796         2.50438        0.255907 
        5.18369         2.49487        0.253944 
         5.1994          2.4854        0.252005 
        5.21509         2.47012        0.250088 
        5.23079         2.45779        0.248189 
        5.24649         2.44235        0.246311 
        5.26217         2.43533        0.244454 
        5.27788         2.41028        0.242613 
        5.29359         2.40223        0.240791 
        5.30933         2.39344        0.238985 
        5.32504          2.3746        0.237201 
        5.34073         2.36323        0.235437 
        5.35646         2.35109        0.233687 
        5.37218         2.33739        0.231955 
        5.38789          2.3299        0.230243 
        5.40357         2.31536         0.22855 
        5.41929         2.30351        0.226871 
        5.43502         2.29176        0.225208 
         5.4507         2.27815        0.223566 
        5.46639         2.26845        0.221941 
        5.48212         2.25828        0.220327 
        5.49786         2.24942        0.218728 
        5.51353         2.22929        0.217152 
        5.52921         2.22023        0.215591 
        5.54495         2.21203         0.21404 
        5.56066         2.20186        0.212506 
        5.57637         2.18914        0.210988 
        5.59207         2.17862        0.209485 
        5.60778         2.16958        0.207997 
        5.62346         2.15757        0.206525 
        5.63916         2.14077        0.205066 
        5.65487         2.13349        0.203621 
         5.6706         2.12491        0.202188 
        5.68633          2.1109        0.200768 
        5.70203         2.10385        0.199364 
        5.71773         2.09481        0.197974 
        5.73344         2.08017        0.196597 
        5.74916          2.0692        0.195232 
        5.76486         2.06422        0.193881 
        5.78054         2.05333        0.192546 
        5.79626         2.04342        0.191219 
          5.812         2.02985        0.189903 
         5.8277         2.01905        0.188604 
        5.84339         2.01231        0.187317 
        5.85911         2.00151        0.186039 
        5.87484         1.99329        0.184773 
        5.89053         1.98298        0.183522 
        5.90623         1.97259        0.182282 
        5.92195         1.96465        0.181051 
        5.93767         1.95485        0.179832 
        5.95336         1.94557        0.178627 
        5.96905         1.93643        0.177433 
        5.98476         1.92462        0.176248 
        6.00048         1.91571        0.175074 
        6.01617         1.90927        0.173911 
        6.03185         1.90003        0.172761 
        6.04756         1.88959        0.171619 
        6.06331         1.88025        0.170484 
        6.07903         1.87252        0.169362 
        6.09473         1.86821        0.168252 
        6.11044         1.85637         0.16715 
        6.12616         1.84637        0.166058 
        6.14186         1.83839        0.164977 
        6.15755         1.82951        0.163906 
        6.17326         1.82175        0.162844 
        6.18898         1.81338         0.16179 
        6.20467         1.80614        0.160748 
        6.22036         1.79739        0.159715 
         6.2361         1.78811        0.158688 
         6.2518         1.77907        0.157672 
        6.26748         1.77211        0.156667 
        6.28319         1.76527        0.155668 
        6.29893          1.7609        0.154677 
        6.31463         1.75007        0.153696 
        6.33033         1.73866        0.152724 
        6.34604         1.73364         0.15176 
        6.36177          1.7266        0.150803 
        6.37747         1.71923        0.149856 
