# k  (h/Mpc)    Pcb(k)  (Mpc/h)^3    Pcb_linear(k) (Mpc/h)^3   ShotnoiseSubtracted = true
      0.0200456         794.093         805.411 
      0.0350414          598.82         601.476 
      0.0492313         453.916          452.82 
      0.0637834         382.608         380.309 
      0.0800726         298.879         296.601 
       0.096163         217.903         218.243 
       0.111083          179.07         180.631 
       0.126058         160.198          159.92 
       0.142273         132.724         131.376 
       0.158546          106.45         104.999 
        0.17375         91.4033         91.7779 
       0.188953          83.375         82.8297 
       0.204907         73.7978         71.2434 
       0.220756         61.9901         60.6195 
        0.23588         55.2742         54.2592 
         0.2514         49.8353         49.3829 
       0.267535          44.631         43.8009 
       0.283568         39.6536         38.6478 
       0.299022         36.1709         35.0608 
       0.314451         32.5802         32.1879 
       0.330372         29.9255         29.1989 
       0.346141         27.1498         26.4502 
       0.361624         25.0931         24.2793 
       0.377134         23.4442         22.4478 
       0.392932          20.893         20.6732 
       0.408854         19.8744         19.0149 
       0.424564         18.3978         17.6105 
       0.440253         17.0517         16.3868 
       0.455999         16.0402         15.2484 
       0.471626         15.0491         14.2039 
        0.48727         14.0458         13.2683 
       0.502856         13.1062         12.4343 
       0.518488         12.5091         11.6641 
       0.534347         11.8965         10.9413 
       0.550082         10.9009         10.2876 
       0.565732         10.0884         9.69512 
       0.581496         9.84079         9.14472 
       0.597222         9.40203         8.63576 
       0.612804         8.77359         8.16985 
       0.628434         8.44847         7.73889 
       0.644267         8.03987          7.3344 
       0.660051         7.58454         6.95981 
       0.675724         7.21691         6.61364 
       0.691403          6.9557         6.29086 
       0.707174         6.59058         5.98792 
       0.722871         6.30112         5.70623 
        0.73838          6.0618         5.44577 
       0.754018         5.85452         5.19967 
       0.769845         5.54746         4.96617 
        0.78569         5.35321         4.74687 
       0.801365         5.11505         4.54306 
       0.817031         4.94132         4.35143 
       0.832809          4.7576         4.16971 
       0.848511         4.50268         3.99924 
       0.864097         4.33129         3.83954 
       0.879701         4.18305         3.68847 
       0.895507         4.01615         3.54379 
       0.911279         3.94143         3.40722 
        0.92691         3.78684         3.27903 
       0.942635         3.62483         3.15677 
       0.958396         3.49153         3.04051 
       0.974128         3.39129         2.93036 
       0.989692         3.31631         2.82679 
        1.00528         3.16958          2.7281 
        1.02113         3.05081         2.63261 
        1.03692         2.99705         2.54206 
        1.05264         2.88527         2.45622 
        1.06832         2.81336          2.3745 
        1.08405         2.67749          2.2963 
        1.09979         2.62126          2.2216 
        1.11537         2.55297         2.15099 
        1.13105         2.48791         2.08303 
        1.14679         2.41949         2.01777 
        1.16256         2.33347          1.9552 
        1.17828         2.27902         1.89549 
        1.19395         2.21592          1.8385 
         1.2097         2.11992         1.78357 
        1.22537         2.07811         1.73117 
          1.241         2.03179         1.68104 
        1.25666         2.01183         1.63278 
        1.27241         1.91725         1.58619 
        1.28819         1.87302         1.54136 
        1.30392         1.84072          1.4984 
        1.31957         1.79436         1.45728 
        1.33529         1.74045         1.41755 
        1.35108         1.69948         1.37916 
        1.36674         1.64443         1.34247 
         1.3824         1.60989         1.30716 
        1.39811         1.57085           1.273 
        1.41389         1.54236         1.23994 
        1.42964         1.50697         1.20812 
        1.44531         1.46961         1.17757 
        1.46101         1.44244         1.14802 
        1.47667         1.38766         1.11958 
        1.49229         1.37696         1.09218 
        1.50793         1.33958         1.06567 
        1.52367         1.31721         1.03988 
        1.53953         1.27491         1.01477 
        1.55526         1.25042         0.99069 
        1.57092         1.22494        0.967497 
        1.58662         1.20356        0.944995 
        1.60235         1.17524        0.923167 
        1.61809         1.14535        0.902022 
        1.63369         1.13711        0.881729 
        1.64941         1.10337        0.861918 
        1.66519         1.08402        0.842646 
        1.68085         1.05148        0.824104 
        1.69652         1.03444        0.806116 
        1.71228          1.0212        0.788565 
        1.72806        0.991084        0.771525 
        1.74368        0.980594        0.755161 
        1.75933        0.955557        0.739242 
        1.77505        0.940147        0.723708 
        1.79081        0.922476        0.708595 
         1.8065        0.898867        0.693979 
        1.82218        0.889479        0.679791 
        1.83797        0.872586        0.665903 
        1.85367        0.863757        0.652481 
        1.86928        0.845068        0.639512 
        1.88497        0.824654        0.626825 
        1.90073        0.806917        0.614437 
        1.91647        0.801387        0.602395 
        1.93218        0.782714        0.590703 
        1.94787        0.768068         0.57934 
        1.96363        0.753925        0.568232 
        1.97935        0.740095        0.557438 
        1.99499        0.728017        0.546987 
        2.01064        0.714993         0.53679 
         2.0264        0.704292        0.526789 
        2.04216        0.694011        0.517049 
        2.05781        0.681217        0.507618 
        2.07353        0.669191        0.498388 
        2.08928        0.654836        0.489369 
        2.10499        0.647779        0.480598 
        2.12065        0.642068        0.472069 
        2.13633        0.628789         0.46374 
        2.15211        0.616527        0.455559 
        2.16785        0.605668        0.447598 
        2.18349        0.597142        0.439879 
        2.19916        0.588666        0.432325 
        2.21489         0.57765        0.424925 
        2.23063        0.569373        0.417693 
         2.2463        0.564131        0.410663 
        2.26194         0.54762        0.403812 
        2.27765         0.54231        0.397083 
        2.29341         0.53698        0.390491 
        2.30914        0.531915        0.384062 
        2.32486        0.520314        0.377781 
        2.34061        0.512123        0.371631 
        2.35635        0.502695        0.365624 
        2.37203        0.496914        0.359771 
        2.38768        0.490319        0.354058 
        2.40339        0.483772        0.348449 
        2.41914        0.476996        0.342949 
        2.43483        0.469143        0.337587 
         2.4505         0.46179        0.332349 
        2.46622        0.455863        0.327205 
        2.48195        0.452011        0.322169 
        2.49759        0.444277        0.317267 
        2.51328        0.436155        0.312454 
        2.52906        0.432066        0.307711 
        2.54479        0.425259        0.303084 
        2.56049        0.418136        0.298561 
        2.57618        0.413995        0.294135 
        2.59189        0.409432        0.289792 
        2.60758        0.404227        0.285544 
        2.62325        0.397464        0.281386 
        2.63898        0.393545        0.277297 
        2.65468        0.387277        0.273298 
        2.67044        0.381834        0.269361 
        2.68618        0.376952        0.265511 
        2.70184        0.372814        0.261751 
        2.71755        0.367052        0.258055 
        2.73329        0.362778        0.254425 
        2.74897        0.358846        0.250877 
        2.76462        0.354203        0.247404 
        2.78034        0.349369        0.243983 
        2.79607        0.345482        0.240623 
        2.81179        0.340928         0.23733 
        2.82749        0.336979        0.234103 
        2.84321        0.333627        0.230933 
        2.85893        0.329048        0.227822 
        2.87462        0.324629        0.224774 
        2.89033        0.320447        0.221779 
        2.90605        0.317803        0.218836 
        2.92176        0.313267        0.215948 
        2.93747        0.309426        0.213113 
        2.95318        0.306332         0.21033 
        2.96891        0.302759        0.207594 
        2.98456        0.299064         0.20492 
        3.00023        0.296431        0.202289 
        3.01596        0.292328        0.199696 
        3.03164        0.289445        0.197156 
        3.04738        0.284624        0.194652 
         3.0631        0.283174        0.192193 
        3.07883        0.278517        0.189777 
        3.09456        0.275792        0.187403 
        3.11026        0.273825        0.185073 
        3.12596        0.269674        0.182782 
        3.14163        0.267644        0.180536 
        3.15734        0.265352        0.178323 
        3.17308        0.262324        0.176141 
        3.18879        0.259955        0.174002 
        3.20447        0.255301        0.171902 
         3.2202         0.25421         0.16983 
         3.2359        0.251184        0.167796 
        3.25157        0.248814          0.1658 
        3.26729        0.246143         0.16383 
        3.28304        0.244241        0.161889 
        3.29877        0.241019        0.159981 
        3.31446        0.238892        0.158109 
        3.33014        0.236839        0.156268 
        3.34585        0.235802        0.154454 
        3.36158        0.232607        0.152666 
        3.37727        0.230693        0.150912 
        3.39294        0.228099        0.149187 
        3.40867        0.225645        0.147483 
        3.42439        0.224272        0.145807 
        3.44008        0.221787         0.14416 
        3.45578        0.220706        0.142537 
        3.47153        0.218146        0.140935 
        3.48724        0.216655        0.139361 
        3.50292        0.214742        0.137815 
        3.51859        0.211975        0.136293 
        3.53431        0.210226        0.134789 
        3.55007        0.209153        0.133305 
        3.56577        0.206507        0.131848 
        3.58146        0.204647        0.130415 
        3.59719        0.203314        0.128999 
        3.61292        0.202164        0.127604 
        3.62859        0.199704        0.126236 
        3.64429        0.198124        0.124885 
        3.66003        0.196688        0.123549 
        3.67578        0.194982        0.122234 
        3.69146        0.193212        0.120943 
        3.70712        0.192176        0.119673 
        3.72284        0.190295        0.118416 
        3.73853        0.189362         0.11718 
        3.75422        0.187747        0.115961 
        3.76993        0.186088        0.114758 
        3.78564        0.184258        0.113573 
        3.80137         0.18292        0.112402 
        3.81707         0.18157        0.111251 
        3.83279        0.180173        0.110115 
        3.84853         0.17851        0.108993 
        3.86424        0.177201        0.107888 
        3.87992        0.175924        0.106801 
        3.89561        0.174331        0.105729 
        3.91134         0.17366        0.104669 
        3.92704        0.171685        0.103625 
        3.94273        0.169903        0.102596 
        3.95845        0.168918        0.101579 
        3.97418        0.167978        0.100576 
        3.98988         0.16579       0.0995881 
        4.00554           0.165        0.098616 
        4.02125        0.163369        0.097654 
        4.03698        0.161455       0.0967034 
        4.05268        0.160268       0.0957676 
        4.06839        0.157809       0.0948436 
         4.0841        0.156033        0.093932 
        4.09983        0.154361       0.0930312 
        4.11555        0.152583       0.0921425 
        4.13124        0.150384       0.0912679 
        4.14693        0.149539       0.0904039 
        4.16266        0.147687       0.0895492 
        4.17839        0.146404        0.088706 
        4.19408        0.144967       0.0878756 
        4.20977        0.143789       0.0870554 
        4.22551        0.142215       0.0862438 
        4.24123        0.141054       0.0854434 
        4.25691        0.139604       0.0846554 
        4.27259         0.13839        0.083877 
        4.28831        0.137233       0.0831069 
        4.30404         0.13598       0.0823457 
        4.31974        0.135516       0.0815957 
        4.33543        0.134058       0.0808555 
        4.35116        0.132735       0.0801227 
        4.36688        0.132003       0.0793993 
        4.38255         0.13062       0.0786875 
        4.39825        0.130339        0.077983 
        4.41398        0.129278       0.0772856 
         4.4297        0.128391       0.0765975 
        4.44541        0.127837        0.075918 
        4.46111        0.126884       0.0752472 
        4.47683        0.126361        0.074584 
        4.49251        0.125352       0.0739302 
        4.50819          0.1248       0.0732845 
         4.5239        0.124237       0.0726455 
        4.53962        0.123928       0.0720133 
        4.55535        0.123046       0.0713884 
        4.57106        0.122702       0.0707718 
        4.58678        0.122015       0.0701623 
         4.6025        0.121858       0.0695599 
        4.61821        0.121421       0.0689647 
        4.63391        0.121111       0.0683772 
         4.6496        0.120758       0.0677968 
        4.66532        0.120705       0.0672223 
        4.68103        0.120326       0.0666547 
        4.69673        0.119707       0.0660941 
        4.71241         0.11983       0.0655406 
        4.72811        0.119559       0.0649925 
        4.74384        0.119645         0.06445 
        4.75955        0.119726       0.0639146 
        4.77525         0.11975       0.0633855 
        4.79096        0.119211       0.0628617 
        4.80669        0.119535       0.0623437 
         4.8224         0.11957        0.061832 
        4.83809        0.119383       0.0613267 
        4.85379        0.119649       0.0608267 
         4.8695        0.119737       0.0603319 
        4.88521         0.11999       0.0598428 
        4.90093        0.120194        0.059359 
        4.91663        0.120464       0.0588811 
        4.93234        0.120547       0.0584078 
        4.94807        0.121063       0.0579395 
        4.96377        0.121584       0.0574773 
        4.97943         0.12226        0.057021 
        4.99514        0.122124       0.0565685 
        5.01086        0.123208       0.0561206 
        5.02654        0.123169       0.0556787 
        5.04227        0.123817       0.0552402 
          5.058         0.12439       0.0548063 
        5.07371        0.125258       0.0543779 
        5.08942         0.12564        0.053954 
        5.10513        0.126474       0.0535346 
        5.12084        0.127172       0.0531194 
        5.13656         0.12752       0.0527088 
        5.15225        0.128782       0.0523031 
        5.16796        0.129517       0.0519011 
        5.18369        0.130027        0.051503 
         5.1994        0.131507       0.0511098 
        5.21509         0.13214        0.050721 
        5.23079        0.133515       0.0503358 
        5.24649        0.134702        0.049955 
        5.26217        0.135489       0.0495783 
        5.27788        0.136683        0.049205 
        5.29359        0.137518       0.0488355 
        5.30933        0.138964       0.0484692 
        5.32504        0.139991       0.0481073 
        5.34073        0.141264       0.0477495 
        5.35646        0.141888       0.0473946 
        5.37218        0.143822       0.0470433 
        5.38789        0.144767       0.0466961 
        5.40357        0.146119       0.0463528 
        5.41929         0.14813       0.0460122 
        5.43502        0.149069        0.045675 
         5.4507        0.151069        0.045342 
        5.46639        0.152332       0.0450123 
        5.48212        0.154114       0.0446851 
        5.49786        0.155867       0.0443607 
        5.51353        0.157642       0.0440412 
        5.52921        0.158965       0.0437245 
        5.54495        0.161287       0.0434099 
        5.56066        0.162826       0.0430989 
        5.57637        0.164914       0.0427909 
        5.59207        0.166973       0.0424862 
        5.60778        0.168905       0.0421844 
        5.62346        0.171305       0.0418859 
        5.63916        0.173036         0.04159 
        5.65487        0.174827       0.0412968 
         5.6706        0.177262       0.0410061 
        5.68633        0.178756       0.0407181 
        5.70203        0.181544       0.0404335 
        5.71773         0.18406       0.0401517 
        5.73344        0.185409       0.0398723 
        5.74916         0.18867       0.0395954 
        5.76486        0.190408       0.0393215 
        5.78054        0.192806       0.0390506 
        5.79626        0.195486       0.0387815 
          5.812        0.198124       0.0385147 
         5.8277        0.200847       0.0382512 
        5.84339        0.203223       0.0379901 
        5.85911        0.206322        0.037731 
        5.87484        0.208094       0.0374743 
        5.89053        0.212064       0.0372206 
        5.90623        0.213888       0.0369691 
        5.92195        0.216652       0.0367194 
        5.93767        0.219178       0.0364722 
        5.95336        0.223316       0.0362277 
        5.96905        0.224989       0.0359856 
        5.98476        0.227016       0.0357453 
        6.00048        0.231843       0.0355071 
        6.01617        0.234129       0.0352714 
        6.03185        0.236653       0.0350381 
        6.04756        0.240943       0.0348064 
        6.06331        0.242278       0.0345763 
        6.07903        0.245477       0.0343488 
        6.09473        0.249002       0.0341235 
        6.11044        0.252614       0.0339001 
        6.12616        0.254863       0.0336786 
        6.14186        0.259311       0.0334594 
        6.15755         0.26215       0.0332422 
        6.17326        0.266077       0.0330267 
        6.18898        0.268052        0.032813 
        6.20467        0.272599       0.0326016 
        6.22036        0.274835       0.0323921 
         6.2361        0.278321       0.0321838 
         6.2518        0.282576       0.0319778 
        6.26748        0.283773       0.0317739 
        6.28319        0.288271       0.0315713 
        6.29893        0.291764       0.0313703 
        6.31463        0.296128       0.0311714 
        6.33033        0.298456       0.0309743 
        6.34604        0.302145       0.0307787 
        6.36177        0.306046       0.0305847 
        6.37747        0.310126       0.0303927 
