# k  (h/Mpc)    Pcb(k)  (Mpc/h)^3    Pcb_linear(k) (Mpc/h)^3   ShotnoiseSubtracted = true
      0.0200456         14332.7         14640.5 
      0.0350414         10534.4         10933.4 
      0.0492313          8098.9         8231.23 
      0.0637834         7019.42         6913.14 
      0.0800726         5472.48         5391.53 
       0.096163         3854.67         3967.14 
       0.111083         3162.32         3283.45 
       0.126058         2919.74         2906.97 
       0.142273          2474.2         2388.11 
       0.158546         2123.91         1908.65 
        0.17375          1734.1         1668.31 
       0.188953         1682.47         1505.65 
       0.204907         1567.03         1295.04 
       0.220756         1348.35         1101.92 
        0.23588          1201.8         986.306 
         0.2514         1049.52         897.667 
       0.267535         1033.06         796.199 
       0.283568         938.077         702.528 
       0.299022         882.298         637.324 
       0.314451         838.406         585.102 
       0.330372          772.43         530.768 
       0.346141         715.312         480.804 
       0.361624         687.626         441.341 
       0.377134         639.222          408.05 
       0.392932         614.939          375.79 
       0.408854         594.029         345.647 
       0.424564         559.129         320.119 
       0.440253         547.195         297.875 
       0.455999         517.625         277.181 
       0.471626          489.51         258.194 
        0.48727         474.267         241.188 
       0.502856          460.58         226.026 
       0.518488         455.734         212.027 
       0.534347         426.014         198.887 
       0.550082         407.341         187.006 
       0.565732         406.725         176.235 
       0.581496         383.034          166.23 
       0.597222         377.249         156.978 
       0.612804         365.906         148.509 
       0.628434         352.444         140.675 
       0.644267         342.711         133.322 
       0.660051         334.679         126.513 
       0.675724         330.639         120.221 
       0.691403         320.516         114.353 
       0.707174         308.965         108.847 
       0.722871         305.576         103.726 
        0.73838         300.835         98.9915 
       0.754018         292.328          94.518 
       0.769845         282.751         90.2735 
        0.78569         282.581         86.2872 
       0.801365         273.099         82.5823 
       0.817031          265.06         79.0989 
       0.832809         262.325         75.7956 
       0.848511         255.492          72.697 
       0.864097         251.917         69.7941 
       0.879701         247.763         67.0479 
       0.895507         241.971          64.418 
       0.911279         234.473         61.9355 
        0.92691         234.346         59.6052 
       0.942635         228.677         57.3827 
       0.958396         226.397         55.2695 
       0.974128         221.581         53.2673 
       0.989692         216.518         51.3846 
        1.00528             214         49.5906 
        1.02113         212.308         47.8547 
        1.03692         206.607         46.2089 
        1.05264         202.666         44.6485 
        1.06832         199.247          43.163 
        1.08405         195.775         41.7415 
        1.09979         194.306         40.3836 
        1.11537         189.331            39.1 
        1.13105         186.368         37.8648 
        1.14679         186.452         36.6785 
        1.16256         182.837          35.541 
        1.17828         178.993         34.4557 
        1.19395         176.647         33.4197 
         1.2097         175.642         32.4212 
        1.22537         171.671         31.4686 
          1.241         170.035         30.5574 
        1.25666         166.698         29.6801 
        1.27241          164.13         28.8334 
        1.28819         162.249         28.0184 
        1.30392         159.799         27.2375 
        1.31957          158.77         26.4899 
        1.33529         154.506         25.7678 
        1.35108         153.469           25.07 
        1.36674         152.223          24.403 
         1.3824         149.056         23.7611 
        1.39811         148.985         23.1403 
        1.41389         145.706         22.5393 
        1.42964         142.786         21.9608 
        1.44531         140.695         21.4056 
        1.46101         139.288         20.8684 
        1.47667         136.978         20.3514 
        1.49229         135.502         19.8534 
        1.50793          134.45         19.3715 
        1.52367         132.819         18.9026 
        1.53953         130.089         18.4461 
        1.55526         128.659         18.0085 
        1.57092         127.081         17.5869 
        1.58662         125.053         17.1778 
        1.60235          124.24         16.7811 
        1.61809         122.047         16.3967 
        1.63369         120.763         16.0278 
        1.64941         119.462         15.6677 
        1.66519         117.428         15.3174 
        1.68085         116.647         14.9803 
        1.69652         113.593         14.6533 
        1.71228         113.881         14.3343 
        1.72806          112.14         14.0245 
        1.74368         110.936         13.7271 
        1.75933         109.306         13.4377 
        1.77505         107.853         13.1553 
        1.79081         106.665         12.8806 
         1.8065         105.279         12.6149 
        1.82218         103.395          12.357 
        1.83797         102.127         12.1046 
        1.85367         101.074         11.8606 
        1.86928         100.239         11.6248 
        1.88497         98.0928         11.3942 
        1.90073         97.8158          11.169 
        1.91647         96.1788         10.9502 
        1.93218         95.2225         10.7376 
        1.94787         94.2219         10.5311 
        1.96363         92.8179         10.3291 
        1.97935         91.5057         10.1329 
        1.99499         90.7288         9.94297 
        2.01064         89.7342          9.7576 
         2.0264         88.1649         9.57581 
        2.04216         87.3696         9.39876 
        2.05781         86.2849         9.22732 
        2.07353         84.8018         9.05955 
        2.08928         83.8909          8.8956 
        2.10499         82.8114         8.73616 
        2.12065         82.4568         8.58112 
        2.13633          81.326         8.42972 
        2.15211         80.2437         8.28101 
        2.16785         79.0986         8.13631 
        2.18349         78.1502         7.99598 
        2.19916         77.4524         7.85868 
        2.21489         76.4531         7.72416 
        2.23063         75.5187          7.5927 
         2.2463         74.7842         7.46491 
        2.26194         74.3314         7.34038 
        2.27765         73.0939         7.21806 
        2.29341         72.1788         7.09822 
        2.30914         71.1196         6.98135 
        2.32486         70.3869         6.86719 
        2.34061         69.6266          6.7554 
        2.35635         68.9584          6.6462 
        2.37203         67.7584          6.5398 
        2.38768         67.2414         6.43596 
        2.40339         66.3998           6.334 
        2.41914         65.7087         6.23402 
        2.43483         65.4362         6.13656 
         2.4505         64.3422         6.04135 
        2.46622         63.6611         5.94783 
        2.48195         62.8134          5.8563 
        2.49759         61.9547         5.76718 
        2.51328         61.4605         5.67969 
        2.52906         60.9052         5.59347 
        2.54479         60.1296         5.50936 
        2.56049         59.2682         5.42715 
        2.57618         58.7664          5.3467 
        2.59189         58.0342         5.26775 
        2.60758         57.5786         5.19053 
        2.62325         56.9239         5.11495 
        2.63898         56.3105         5.04062 
        2.65468         55.8045         4.96793 
        2.67044         54.9857         4.89636 
        2.68618         54.6864         4.82637 
        2.70184         53.8576         4.75803 
        2.71755         53.6467         4.69084 
        2.73329         52.6013         4.62486 
        2.74897         52.1292         4.56036 
        2.76462         51.6984         4.49723 
        2.78034         51.1813         4.43504 
        2.79607         50.3971         4.37397 
        2.81179         49.9348         4.31412 
        2.82749         49.2858         4.25546 
        2.84321         48.9189         4.19782 
        2.85893         48.3047         4.14127 
        2.87462         47.6817         4.08586 
        2.89033         47.2921         4.03142 
        2.90605         46.7181         3.97793 
        2.92176         46.2992         3.92543 
        2.93747         45.8004         3.87391 
        2.95318         45.2181         3.82331 
        2.96891         44.5645         3.77358 
        2.98456          44.498         3.72497 
        3.00023         43.8609         3.67714 
        3.01596         43.5478         3.63001 
        3.03164         42.8622         3.58383 
        3.04738         42.6673         3.53833 
         3.0631         42.1106         3.49363 
        3.07883         41.7317         3.44971 
        3.09456         41.2904         3.40655 
        3.11026         40.7246         3.36419 
        3.12596         40.4865         3.32256 
        3.14163         39.9634         3.28173 
        3.15734         39.3192          3.2415 
        3.17308         39.2961         3.20184 
        3.18879         38.9482         3.16296 
        3.20447         38.3497         3.12478 
         3.2202         37.9124         3.08711 
         3.2359         37.5936         3.05014 
        3.25157         37.1532         3.01385 
        3.26729         36.8738         2.97805 
        3.28304         36.3935         2.94276 
        3.29877          36.137         2.90809 
        3.31446         35.8202         2.87406 
        3.33014         35.4223          2.8406 
        3.34585         35.0895         2.80762 
        3.36158         34.7713         2.77512 
        3.37727         34.3747         2.74323 
        3.39294          34.061         2.71188 
        3.40867         33.7036          2.6809 
        3.42439         33.3785         2.65043 
        3.44008         33.2824         2.62049 
        3.45578          32.659         2.59099 
        3.47153         32.4186         2.56188 
        3.48724         32.1438         2.53327 
        3.50292         31.8308         2.50516 
        3.51859         31.5143         2.47749 
        3.53431         31.2544         2.45016 
        3.55007         30.9731         2.42317 
        3.56577         30.6783          2.3967 
        3.58146         30.3757         2.37063 
        3.59719         30.0636          2.3449 
        3.61292         29.8347         2.31955 
        3.62859         29.4715         2.29467 
        3.64429         29.1343         2.27012 
        3.66003           28.92         2.24584 
        3.67578         28.6587         2.22193 
        3.69146         28.4641         2.19846 
        3.70712         28.1339         2.17538 
        3.72284         27.9589         2.15253 
        3.73853         27.6607         2.13006 
        3.75422         27.3981          2.1079 
        3.76993         27.2349         2.08604 
        3.78564         26.9449         2.06449 
        3.80137         26.7099         2.04322 
        3.81707         26.4411         2.02229 
        3.83279         26.2419         2.00163 
        3.84853         25.9044         1.98123 
        3.86424         25.6613         1.96116 
        3.87992          25.433          1.9414 
        3.89561          25.194          1.9219 
        3.91134         25.0239         1.90264 
        3.92704         24.8078         1.88366 
        3.94273         24.5427         1.86496 
        3.95845         24.2908         1.84648 
        3.97418         24.1622         1.82824 
        3.98988          23.832         1.81028 
        4.00554         23.6661         1.79261 
        4.02125         23.5474         1.77512 
        4.03698         23.2145         1.75784 
        4.05268         23.0827         1.74083 
        4.06839         22.8228         1.72404 
         4.0841         22.6818         1.70747 
        4.09983         22.4968         1.69109 
        4.11555         22.2825         1.67494 
        4.13124         22.0112         1.65904 
        4.14693         21.8234         1.64333 
        4.16266         21.6362          1.6278 
        4.17839         21.4547         1.61247 
        4.19408         21.2405         1.59737 
        4.20977         21.1043         1.58247 
        4.22551         20.8818         1.56771 
        4.24123         20.7194         1.55316 
        4.25691         20.5501         1.53884 
        4.27259         20.3867         1.52469 
        4.28831         20.2096         1.51069 
        4.30404         19.9906         1.49685 
        4.31974         19.8737         1.48322 
        4.33543         19.7056         1.46977 
        4.35116         19.5859         1.45645 
        4.36688          19.365          1.4433 
        4.38255         19.2422         1.43036 
        4.39825         19.0853         1.41755 
        4.41398         18.8756         1.40487 
         4.4297         18.7255         1.39237 
        4.44541         18.6032         1.38001 
        4.46111          18.413         1.36782 
        4.47683         18.2742         1.35577 
        4.49251         18.1246         1.34388 
        4.50819         17.9493         1.33214 
         4.5239          17.846         1.32053 
        4.53962         17.6589         1.30904 
        4.55535         17.5317         1.29768 
        4.57106         17.3591         1.28647 
        4.58678         17.2568         1.27539 
         4.6025         17.1044         1.26444 
        4.61821         16.9769         1.25362 
        4.63391         16.8307         1.24294 
         4.6496         16.6883         1.23239 
        4.66532         16.5364         1.22195 
        4.68103         16.3841         1.21163 
        4.69673         16.3181         1.20144 
        4.71241          16.182         1.19138 
        4.72811         15.9964         1.18141 
        4.74384         15.9104         1.17155 
        4.75955         15.7707         1.16182 
        4.77525          15.663          1.1522 
        4.79096         15.5137         1.14268 
        4.80669         15.4268         1.13326 
         4.8224         15.2602         1.12396 
        4.83809         15.1356         1.11478 
        4.85379          15.018         1.10569 
         4.8695         14.9637         1.09669 
        4.88521         14.7967          1.0878 
        4.90093         14.7139         1.07901 
        4.91663         14.6013         1.07032 
        4.93234         14.4509         1.06172 
        4.94807         14.3596         1.05321 
        4.96377         14.2173          1.0448 
        4.97943         14.1375         1.03651 
        4.99514         14.0037         1.02828 
        5.01086          13.914         1.02014 
        5.02654          13.794         1.01211 
        5.04227         13.6793         1.00414 
          5.058         13.5962        0.996252 
        5.07371          13.478        0.988464 
        5.08942         13.3738        0.980759 
        5.10513         13.2844        0.973135 
        5.12084         13.1783        0.965588 
        5.13656         13.0736        0.958124 
        5.15225         12.9575         0.95075 
        5.16796         12.8867        0.943443 
        5.18369         12.7626        0.936206 
         5.1994         12.7085        0.929058 
        5.21509         12.5808        0.921991 
        5.23079          12.493        0.914989 
        5.24649         12.3995        0.908066 
        5.26217         12.3123        0.901219 
        5.27788         12.2036        0.894433 
        5.29359           12.14        0.887716 
        5.30933          12.016        0.881058 
        5.32504         11.9563         0.87448 
        5.34073         11.8693        0.867976 
        5.35646         11.7913        0.861525 
        5.37218         11.6784        0.855139 
        5.38789         11.6034        0.848828 
        5.40357         11.5246        0.842588 
        5.41929         11.4367        0.836397 
        5.43502         11.3641        0.830267 
         5.4507         11.2666        0.824213 
        5.46639         11.1789        0.818219 
        5.48212         11.1257        0.812271 
        5.49786         11.0345        0.806375 
        5.51353         10.9512        0.800567 
        5.52921         10.8671         0.79481 
        5.54495           10.79        0.789093 
        5.56066         10.6988        0.783438 
        5.57637         10.6243         0.77784 
        5.59207         10.5646        0.772301 
        5.60778         10.4916        0.766814 
        5.62346         10.4283        0.761388 
        5.63916         10.3273         0.75601 
        5.65487         10.2556        0.750681 
         5.6706         10.2027        0.745397 
        5.68633         10.1163        0.740162 
        5.70203         10.0402        0.734988 
        5.71773         9.98524        0.729864 
        5.73344         9.90302        0.724787 
        5.74916          9.8248        0.719753 
        5.76486         9.75793        0.714774 
        5.78054         9.69853         0.70985 
        5.79626         9.62991        0.704959 
          5.812         9.56449        0.700109 
         5.8277         9.48344        0.695318 
        5.84339         9.43788        0.690573 
        5.85911         9.36947        0.685862 
        5.87484         9.29182        0.681197 
        5.89053         9.22676        0.676584 
        5.90623         9.16365        0.672012 
        5.92195         9.11587        0.667474 
        5.93767         9.04126        0.662981 
        5.95336         8.99973        0.658536 
        5.96905         8.94003        0.654134 
        5.98476         8.87556        0.649766 
        6.00048         8.79689        0.645437 
        6.01617         8.75662        0.641153 
        6.03185         8.69326        0.636912 
        6.04756          8.6318        0.632701 
        6.06331         8.58597        0.628518 
        6.07903         8.51286        0.624382 
        6.09473         8.46815        0.620287 
        6.11044         8.40021        0.616225 
        6.12616         8.34167          0.6122 
        6.14186         8.28034        0.608215 
        6.15755         8.23292        0.604266 
        6.17326         8.19605        0.600349 
        6.18898         8.11959        0.596465 
        6.20467         8.07766        0.592622 
        6.22036         8.00631        0.588813 
         6.2361         7.95593        0.585028 
         6.2518         7.91246        0.581282 
        6.26748         7.85855        0.577577 
        6.28319         7.81709        0.573894 
        6.29893         7.75795         0.57024 
        6.31463         7.70608        0.566625 
        6.33033         7.65836        0.563041 
        6.34604         7.62158        0.559487 
        6.36177         7.55133        0.555959 
        6.37747         7.51835        0.552469 
