# k  (h/Mpc)    Pcb(k)  (Mpc/h)^3    Pcb_linear(k) (Mpc/h)^3   ShotnoiseSubtracted = true
      0.0200456         6489.05         6572.54 
      0.0350414         4242.21         4120.68 
      0.0492313         2759.76         2754.21 
      0.0637834         2225.07         2271.38 
      0.0800726         1717.08         1764.23 
       0.096163         1242.93         1193.52 
       0.111083         975.468         925.834 
       0.126058         835.719         837.491 
       0.142273         705.087         702.046 
       0.158546         553.575         529.516 
        0.17375           470.9         439.966 
       0.188953         432.826         404.324 
       0.204907         366.322         356.575 
       0.220756         319.483         293.623 
        0.23588          278.47         252.346 
         0.2514         249.831         230.839 
       0.267535         236.181         208.863 
       0.283568         203.909         181.457 
       0.299022         189.334         160.095 
       0.314451         182.039         146.555 
       0.330372         158.555         134.444 
       0.346141         145.247         121.095 
       0.361624         135.093         109.286 
       0.377134         123.268         100.422 
       0.392932         119.039         92.8615 
       0.408854         111.333          85.241 
       0.424564         105.488         78.1897 
       0.440253         95.6104         72.3236 
       0.455999         87.9511         67.2927 
       0.471626         84.9034         62.5978 
        0.48727         81.5908         58.1748 
       0.502856          74.813         54.2528 
       0.518488         72.3696         50.7994 
       0.534347         67.7935         47.5749 
       0.550082         65.6651         44.5912 
       0.565732          63.557         41.8733 
       0.581496         58.3389          39.404 
       0.597222         56.4236          37.141 
       0.612804         54.0282         35.0589 
       0.628434         52.8939         33.1212 
       0.644267         49.8155         31.3167 
       0.660051         48.0136         29.6593 
       0.675724         46.2869         28.1311 
       0.691403         45.2808         26.7081 
       0.707174         43.4791         25.3746 
       0.722871         42.3351         24.1367 
        0.73838         40.5089          22.994 
       0.754018         38.1505         21.9162 
       0.769845         37.7061         20.8955 
        0.78569         36.3665         19.9387 
       0.801365         35.1724         19.0511 
       0.817031         33.7718         18.2183 
       0.832809         33.0747         17.4302 
       0.848511         32.1107         16.6924 
       0.864097         31.3505         16.0026 
       0.879701         30.6198         15.3512 
       0.895507         29.4337         14.7286 
       0.911279         28.6239         14.1418 
        0.92691         28.0975          13.592 
       0.942635          27.389         13.0685 
       0.958396         26.9147         12.5714 
       0.974128         26.1705         12.1012 
       0.989692         25.1259         11.6597 
        1.00528         24.7381         11.2396 
        1.02113         24.0628         10.8337 
        1.03692         23.7487         10.4493 
        1.05264         23.1772         10.0853 
        1.06832         22.6732         9.73925 
        1.08405         22.0658         9.40853 
        1.09979         21.8269         9.09298 
        1.11537         21.0891         8.79504 
        1.13105         20.7099         8.50868 
        1.14679         20.2196         8.23398 
        1.16256         19.9324         7.97089 
        1.17828         19.6203         7.72016 
        1.19395         19.1222         7.48107 
         1.2097         18.9289         7.25091 
        1.22537         18.4617         7.03154 
          1.241         18.0915         6.82192 
        1.25666         17.7569         6.62033 
        1.27241         17.5503         6.42596 
        1.28819         16.9312         6.23906 
        1.30392         16.9562         6.06015 
        1.31957         16.6116         5.88906 
        1.33529         16.2888         5.72395 
        1.35108         16.0414         5.56452 
        1.36674         15.7888         5.41231 
         1.3824          15.466         5.26593 
        1.39811         15.1376         5.12449 
        1.41389         14.9587          4.9877 
        1.42964         14.8542         4.85613 
        1.44531         14.5425         4.72996 
        1.46101         14.3641           4.608 
        1.47667         14.1211         4.49071 
        1.49229          13.783         4.37781 
        1.50793         13.7079         4.26867 
        1.52367         13.4669         4.16254 
        1.53953         13.3551         4.05931 
        1.55526         13.0519         3.96041 
        1.57092         12.9731         3.86521 
        1.58662         12.7892         3.77291 
        1.60235         12.6138         3.68345 
        1.61809         12.3934         3.59684 
        1.63369         12.2521         3.51378 
        1.64941         12.0581         3.43275 
        1.66519         11.9697         3.35399 
        1.68085         11.6699         3.27825 
        1.69652          11.676         3.20483 
        1.71228         11.5079         3.13325 
        1.72806         11.2955         3.06379 
        1.74368         11.2092         2.99713 
        1.75933         11.0588         2.93232 
        1.77505         10.9114         2.86912 
        1.79081         10.7831         2.80768 
         1.8065         10.6733         2.74829 
        1.82218           10.59         2.69068 
        1.83797         10.4892         2.63432 
        1.85367          10.368         2.57988 
        1.86928         10.2354         2.52731 
        1.88497         10.0872         2.47592 
        1.90073          9.9665         2.42576 
        1.91647          9.7809         2.37704 
        1.93218         9.76465         2.32976 
        1.94787         9.61008         2.28383 
        1.96363         9.53014         2.23896 
        1.97935         9.37679         2.19538 
        1.99499         9.27651         2.15321 
        2.01064          9.1827         2.11209 
         2.0264         9.06507         2.07178 
        2.04216         9.06015         2.03254 
        2.05781         8.93698         1.99457 
        2.07353         8.85077         1.95742 
        2.08928         8.73728         1.92115 
        2.10499         8.64142         1.88589 
        2.12065         8.57201         1.85161 
        2.13633          8.4646         1.81816 
        2.15211          8.3818         1.78532 
        2.16785         8.30823         1.75338 
        2.18349         8.19326         1.72242 
        2.19916         8.14993         1.69215 
        2.21489          8.0294          1.6625 
        2.23063          7.9996         1.63354 
         2.2463         7.88212         1.60539 
        2.26194          7.8198         1.57799 
        2.27765          7.7142         1.55107 
        2.29341         7.66326         1.52472 
        2.30914         7.58953         1.49903 
        2.32486         7.54729         1.47395 
        2.34061         7.45729          1.4494 
        2.35635         7.41124         1.42543 
        2.37203         7.31404         1.40208 
        2.38768         7.21226         1.37931 
        2.40339         7.20347         1.35695 
        2.41914         7.08775         1.33504 
        2.43483         7.06381         1.31369 
         2.4505         6.98682         1.29284 
        2.46622         6.92538         1.27238 
        2.48195         6.89701         1.25235 
        2.49759         6.79672         1.23286 
        2.51328         6.75293         1.21373 
        2.52906         6.67676         1.19489 
        2.54479         6.63685         1.17652 
        2.56049         6.54337         1.15857 
        2.57618         6.51809         1.14101 
        2.59189         6.49989         1.12378 
        2.60758         6.40038         1.10694 
        2.62325         6.34681         1.09046 
        2.63898         6.33152         1.07426 
        2.65468         6.25538         1.05842 
        2.67044         6.22935         1.04284 
        2.68618         6.13373          1.0276 
        2.70184         6.10459         1.01273 
        2.71755         6.06107         0.99811 
        2.73329         5.98611        0.983759 
        2.74897         5.94458        0.969737 
        2.76462         5.91098        0.956019 
        2.78034         5.84583        0.942509 
        2.79607         5.83029        0.929246 
        2.81179         5.76441        0.916252 
        2.82749          5.7191        0.903522 
        2.84321         5.68497        0.891018 
        2.85893         5.64376        0.878754 
        2.87462         5.59395        0.866742 
        2.89033         5.53923        0.854943 
        2.90605         5.49742        0.843352 
        2.92176         5.46528        0.831982 
        2.93747         5.41208        0.820828 
        2.95318         5.37438        0.809875 
        2.96891         5.34707        0.799116 
        2.98456         5.27922          0.7886 
        3.00023         5.25203        0.778258 
        3.01596         5.20971        0.768068 
        3.03164         5.18288         0.75809 
        3.04738         5.13811         0.74826 
         3.0631         5.08971        0.738606 
        3.07883         5.05197        0.729123 
        3.09456         5.00321        0.719807 
        3.11026         4.97047        0.710668 
        3.12596         4.93209        0.701688 
        3.14163         4.91742        0.692883 
        3.15734          4.8732        0.684209 
        3.17308         4.85746        0.675663 
        3.18879         4.80341        0.667285 
        3.20447          4.7566        0.659061 
         3.2202         4.73286         0.65095 
         3.2359         4.70379         0.64299 
        3.25157         4.67683        0.635181 
        3.26729         4.64366        0.627479 
        3.28304         4.60339        0.619888 
        3.29877         4.57656        0.612433 
        3.31446         4.54926        0.605117 
        3.33014         4.50422        0.597926 
        3.34585         4.47928         0.59084 
        3.36158         4.44681        0.583859 
        3.37727         4.40347        0.577012 
        3.39294         4.38025        0.570281 
        3.40867         4.35036        0.563633 
        3.42439         4.33747        0.557095 
        3.44008         4.30659        0.550672 
        3.45578         4.27092        0.544346 
        3.47153         4.23396        0.538105 
        3.48724         4.19514        0.531972 
        3.50292         4.16954         0.52595 
        3.51859         4.15036        0.520023 
        3.53431         4.11446        0.514169 
        3.55007         4.08718         0.50839 
        3.56577         4.05272        0.502723 
        3.58146         4.03704        0.497145 
        3.59719         4.00999        0.491638 
        3.61292         3.97902        0.486216 
        3.62859         3.95213        0.480896 
        3.64429         3.93379        0.475646 
        3.66003         3.89851        0.470457 
        3.67578         3.89092        0.465348 
        3.69146         3.86629        0.460334 
        3.70712         3.83192        0.455402 
        3.72284          3.8136        0.450524 
        3.73853         3.78621        0.445727 
        3.75422          3.7408        0.440996 
        3.76993         3.74841        0.436331 
        3.78564         3.71495        0.431735 
        3.80137          3.6892        0.427197 
        3.81707         3.65452        0.422734 
        3.83279         3.64033         0.41833 
        3.84853         3.61403        0.413983 
        3.86424         3.57802        0.409705 
        3.87992          3.5665        0.405494 
        3.89561         3.54462        0.401342 
        3.91134         3.52065        0.397239 
        3.92704         3.50106        0.393199 
        3.94273         3.48148        0.389218 
        3.95845         3.45572        0.385285 
        3.97418         3.42514        0.381406 
        3.98988         3.40731        0.377585 
        4.00554         3.38638        0.373826 
        4.02125         3.35737        0.370108 
        4.03698         3.34094        0.366435 
        4.05268          3.3056         0.36282 
        4.06839         3.28866         0.35925 
         4.0841         3.26938         0.35573 
        4.09983         3.24639        0.352252 
        4.11555         3.22857        0.348822 
        4.13124         3.19843        0.345446 
        4.14693         3.18091        0.342113 
        4.16266         3.16324        0.338815 
        4.17839         3.15021        0.335563 
        4.19408          3.1319        0.332361 
        4.20977         3.10951        0.329199 
        4.22551         3.08075         0.32607 
        4.24123         3.06274        0.322986 
        4.25691         3.04544        0.319949 
        4.27259         3.02117        0.316951 
        4.28831         3.00068        0.313985 
        4.30404         2.98641        0.311053 
        4.31974          2.9668        0.308166 
        4.33543         2.94502        0.305317 
        4.35116         2.93041        0.302497 
        4.36688         2.91644        0.299713 
        4.38255         2.89982        0.296975 
        4.39825         2.87526        0.294265 
        4.41398         2.86064        0.291583 
         4.4297         2.84679        0.288938 
        4.44541         2.82742        0.286326 
        4.46111         2.80634        0.283747 
        4.47683         2.79598        0.281199 
        4.49251         2.77079        0.278687 
        4.50819         2.75971        0.276207 
         4.5239          2.7348        0.273753 
        4.53962         2.72435        0.271325 
        4.55535         2.70509        0.268926 
        4.57106         2.68911        0.266559 
        4.58678         2.67727        0.264221 
         4.6025         2.66157        0.261909 
        4.61821         2.64199        0.259626 
        4.63391         2.62679        0.257372 
         4.6496         2.61021        0.255147 
        4.66532          2.5916        0.252944 
        4.68103          2.5803        0.250768 
        4.69673         2.56635        0.248619 
        4.71241         2.54675        0.246498 
        4.72811         2.53815        0.244398 
        4.74384         2.53009         0.24232 
        4.75955          2.5089        0.240269 
        4.77525         2.49744        0.238243 
        4.79096         2.47884        0.236238 
        4.80669         2.47056        0.234254 
         4.8224         2.44913        0.232296 
        4.83809         2.44219        0.230362 
        4.85379         2.42446        0.228449 
         4.8695         2.41604        0.226556 
        4.88521         2.40251        0.224685 
        4.90093         2.38396        0.222835 
        4.91663         2.37489        0.221008 
        4.93234         2.35559        0.219199 
        4.94807         2.35066        0.217408 
        4.96377          2.3386        0.215642 
        4.97943          2.3245        0.213898 
        4.99514         2.31506        0.212169 
        5.01086          2.2996        0.210458 
        5.02654         2.28811        0.208771 
        5.04227         2.27213        0.207096 
          5.058         2.26171         0.20544 
        5.07371         2.25141        0.203804 
        5.08942         2.23575        0.202186 
        5.10513         2.22753        0.200586 
        5.12084         2.21324        0.199002 
        5.13656         2.20058        0.197435 
        5.15225         2.18924        0.195888 
        5.16796         2.18025        0.194354 
        5.18369         2.16657        0.192836 
         5.1994         2.15565        0.191337 
        5.21509         2.14396        0.189855 
        5.23079         2.13077        0.188387 
        5.24649         2.12807        0.186935 
        5.26217         2.11761          0.1855 
        5.27788         2.09697        0.184078 
        5.29359         2.09482         0.18267 
        5.30933         2.08233        0.181275 
        5.32504         2.07233        0.179897 
        5.34073         2.05609        0.178535 
        5.35646         2.04719        0.177184 
        5.37218         2.04239        0.175847 
        5.38789         2.03074        0.174526 
        5.40357         2.02095        0.173219 
        5.41929         2.01153        0.171923 
        5.43502         1.99869        0.170641 
         5.4507         1.99095        0.169374 
        5.46639         1.97311         0.16812 
        5.48212         1.96789        0.166876 
        5.49786         1.96345        0.165643 
        5.51353         1.95125        0.164428 
        5.52921         1.94386        0.163224 
        5.54495         1.93097        0.162029 
        5.56066         1.92227        0.160847 
        5.57637         1.91236        0.159677 
        5.59207         1.90389         0.15852 
        5.60778         1.89582        0.157373 
        5.62346         1.88481         0.15624 
        5.63916         1.87712        0.155116 
        5.65487         1.87032        0.154003 
         5.6706         1.85804          0.1529 
        5.68633         1.85228        0.151807 
        5.70203         1.84096        0.150727 
        5.71773         1.83294        0.149657 
        5.73344         1.82652        0.148597 
        5.74916         1.81758        0.147547 
        5.76486         1.81085        0.146508 
        5.78054         1.79963        0.145481 
        5.79626         1.79395         0.14446 
          5.812         1.78263        0.143449 
         5.8277         1.77415         0.14245 
        5.84339          1.7649         0.14146 
        5.85911         1.75677        0.140478 
        5.87484          1.7503        0.139506 
        5.89053         1.74371        0.138544 
        5.90623         1.73764        0.137592 
        5.92195         1.72689        0.136646 
        5.93767         1.71885         0.13571 
        5.95336         1.70852        0.134784 
        5.96905         1.70584        0.133867 
        5.98476         1.69705        0.132957 
        6.00048         1.68825        0.132056 
        6.01617          1.6834        0.131164 
        6.03185         1.67324        0.130281 
        6.04756         1.66511        0.129404 
        6.06331         1.65987        0.128534 
        6.07903          1.6514        0.127673 
        6.09473         1.64637        0.126821 
        6.11044         1.63947        0.125976 
        6.12616         1.63421        0.125139 
        6.14186         1.62593         0.12431 
        6.15755           1.621        0.123488 
        6.17326         1.61309        0.122674 
        6.18898         1.60338        0.121866 
        6.20467         1.60028        0.121067 
        6.22036         1.58985        0.120276 
         6.2361         1.58554        0.119489 
         6.2518         1.57927         0.11871 
        6.26748         1.57192         0.11794 
        6.28319         1.56749        0.117175 
        6.29893         1.56094        0.116416 
        6.31463         1.55211        0.115665 
        6.33033         1.54626        0.114921 
        6.34604         1.54001        0.114183 
        6.36177         1.53295         0.11345 
        6.37747         1.53191        0.112726 
