# k  (h/Mpc)    Pcb(k)  (Mpc/h)^3    Pcb_linear(k) (Mpc/h)^3   ShotnoiseSubtracted = true
      0.0200456         8630.19         8766.02 
      0.0350414         5397.21         5495.89 
      0.0492313         3677.83         3673.38 
      0.0637834         3102.92         3029.41 
      0.0800726         2405.02         2353.01 
       0.096163         1584.36         1591.84 
       0.111083         1229.37         1234.82 
       0.126058         1141.18         1116.99 
       0.142273         977.163         936.343 
       0.158546         773.053         706.233 
        0.17375         614.324         586.797 
       0.188953         590.598          539.26 
       0.204907         548.448         475.576 
       0.220756         453.129         391.615 
        0.23588         393.447         336.562 
         0.2514         345.743         307.877 
       0.267535         328.338         278.568 
       0.283568         294.431         242.015 
       0.299022         270.176         213.524 
       0.314451         247.528         195.465 
       0.330372         228.569         179.312 
       0.346141         203.571         161.508 
       0.361624         194.296         145.758 
       0.377134         180.572         133.936 
       0.392932         165.262         123.853 
       0.408854         157.866         113.689 
       0.424564         150.414         104.284 
       0.440253         142.115         96.4605 
       0.455999         132.654         89.7506 
       0.471626         123.044         83.4889 
        0.48727         118.121         77.5897 
       0.502856         113.155         72.3588 
       0.518488         109.727         67.7529 
       0.534347         104.622         63.4522 
       0.550082         96.3566         59.4728 
       0.565732         92.4354         55.8478 
       0.581496         88.7276         52.5544 
       0.597222          85.544         49.5363 
       0.612804         81.4502         46.7592 
       0.628434         79.2246         44.1748 
       0.644267          76.352         41.7681 
       0.660051         74.4529         39.5576 
       0.675724          71.515         37.5194 
       0.691403          69.168         35.6215 
       0.707174          66.493          33.843 
       0.722871          65.059         32.1919 
        0.73838         63.5505         30.6679 
       0.754018         60.3226         29.2304 
       0.769845         58.9491          27.869 
        0.78569         57.4354         26.5929 
       0.801365         55.4257         25.4091 
       0.817031         53.5563         24.2983 
       0.832809         52.9059         23.2472 
       0.848511         50.4778         22.2632 
       0.864097          49.404         21.3432 
       0.879701         48.3528         20.4744 
       0.895507          47.551          19.644 
       0.911279           46.31         18.8614 
        0.92691         45.3564         18.1281 
       0.942635         43.5963         17.4299 
       0.958396          43.397          16.767 
       0.974128         42.1466         16.1398 
       0.989692         41.3884          15.551 
        1.00528         40.3811         14.9907 
        1.02113         39.4231         14.4492 
        1.03692         38.2497         13.9365 
        1.05264         38.1921         13.4511 
        1.06832         36.7879         12.9896 
        1.08405         36.3859         12.5485 
        1.09979         35.9588         12.1276 
        1.11537         34.5285         11.7302 
        1.13105         34.8032         11.3483 
        1.14679          33.916         10.9819 
        1.16256         33.2205          10.631 
        1.17828         32.4591         10.2966 
        1.19395         31.9405         9.97776 
         1.2097         31.4295         9.67078 
        1.22537         31.3465          9.3782 
          1.241         30.3884         9.09863 
        1.25666          29.767         8.82976 
        1.27241         29.3812         8.57052 
        1.28819          28.673         8.32125 
        1.30392         28.3065         8.08263 
        1.31957         28.0624         7.85444 
        1.33529         27.6799         7.63423 
        1.35108         27.2643         7.42159 
        1.36674          26.816         7.21858 
         1.3824         26.1314         7.02335 
        1.39811         26.0502          6.8347 
        1.41389         25.6871         6.65226 
        1.42964         25.1523         6.47679 
        1.44531         24.8899         6.30851 
        1.46101         24.3417         6.14585 
        1.47667          24.215         5.98941 
        1.49229         23.9288         5.83883 
        1.50793         23.5861         5.69326 
        1.52367         23.2368         5.55172 
        1.53953         23.1308         5.41404 
        1.55526         22.6582         5.28213 
        1.57092          22.346         5.15516 
        1.58662         22.0742         5.03206 
        1.60235         21.7958         4.91274 
        1.61809         21.4996         4.79722 
        1.63369         21.2787         4.68645 
        1.64941         20.9856         4.57838 
        1.66519         20.7114         4.47333 
        1.68085         20.4896         4.37232 
        1.69652         20.2332          4.2744 
        1.71228         20.1177         4.17892 
        1.72806         19.7255         4.08628 
        1.74368           19.44         3.99737 
        1.75933         19.2339         3.91094 
        1.77505         19.1946         3.82665 
        1.79081         18.8598         3.74469 
         1.8065         18.6871         3.66549 
        1.82218         18.5053         3.58865 
        1.83797         18.1963         3.51348 
        1.85367         18.0341         3.44087 
        1.86928         17.8526         3.37076 
        1.88497         17.6051         3.30221 
        1.90073         17.5378         3.23532 
        1.91647         17.2768         3.17034 
        1.93218         17.1339         3.10727 
        1.94787         16.9132         3.04602 
        1.96363         16.8469         2.98617 
        1.97935         16.6206         2.92806 
        1.99499         16.4132         2.87181 
        2.01064         16.3562         2.81696 
         2.0264          16.045          2.7632 
        2.04216         15.9456         2.71087 
        2.05781         15.6661         2.66022 
        2.07353         15.6044         2.61068 
        2.08928         15.5144          2.5623 
        2.10499         15.3575         2.51527 
        2.12065         15.0843         2.46956 
        2.13633         14.9877         2.42494 
        2.15211          14.819         2.38114 
        2.16785         14.6795         2.33854 
        2.18349         14.5322         2.29725 
        2.19916         14.4302         2.25687 
        2.21489         14.2717         2.21733 
        2.23063         14.1501          2.1787 
         2.2463          14.023         2.14117 
        2.26194         13.9192         2.10461 
        2.27765          13.728         2.06872 
        2.29341         13.5785         2.03357 
        2.30914         13.5112         1.99931 
        2.32486         13.3954         1.96586 
        2.34061          13.262         1.93311 
        2.35635         13.0972         1.90114 
        2.37203         12.9779            1.87 
        2.38768         12.8872         1.83963 
        2.40339         12.7435         1.80981 
        2.41914         12.6611         1.78059 
        2.43483         12.5602         1.75212 
         2.4505         12.3907         1.72431 
        2.46622         12.2915         1.69701 
        2.48195         12.1955          1.6703 
        2.49759         12.0574         1.64431 
        2.51328         11.9592          1.6188 
        2.52906         11.8827         1.59367 
        2.54479         11.7692         1.56916 
        2.56049         11.6796         1.54522 
        2.57618         11.5941          1.5218 
        2.59189         11.4809         1.49882 
        2.60758         11.3881         1.47636 
        2.62325         11.3152         1.45438 
        2.63898         11.1747         1.43278 
        2.65468         11.1056         1.41165 
        2.67044         10.9706         1.39086 
        2.68618         10.8995         1.37054 
        2.70184         10.8115         1.35071 
        2.71755         10.6928         1.33121 
        2.73329         10.6261         1.31207 
        2.74897         10.5105         1.29337 
        2.76462         10.4772         1.27508 
        2.78034         10.3179         1.25706 
        2.79607         10.2598         1.23937 
        2.81179         10.1411         1.22204 
        2.82749           10.08         1.20506 
        2.84321         10.0006         1.18838 
        2.85893         9.92147         1.17202 
        2.87462         9.83027           1.156 
        2.89033         9.73253         1.14027 
        2.90605         9.66925         1.12481 
        2.92176         9.56774         1.10964 
        2.93747         9.54858         1.09477 
        2.95318         9.42311         1.08016 
        2.96891         9.35473         1.06581 
        2.98456         9.29417         1.05178 
        3.00023         9.20358         1.03799 
        3.01596         9.14682          1.0244 
        3.03164         9.09229         1.01109 
        3.04738         8.97576        0.997979 
         3.0631         8.94512        0.985104 
        3.07883         8.83451        0.972455 
        3.09456          8.7764        0.960031 
        3.11026         8.71123        0.947841 
        3.12596         8.65036        0.935864 
        3.14163         8.56774        0.924122 
        3.15734         8.49182        0.912553 
        3.17308         8.42426        0.901154 
        3.18879         8.39219         0.88998 
        3.20447         8.28856        0.879012 
         3.2202         8.25187        0.868194 
         3.2359         8.19096        0.857577 
        3.25157         8.13226        0.847163 
        3.26729          8.0706        0.836889 
        3.28304         8.00284        0.826766 
        3.29877         7.93692        0.816823 
        3.31446         7.85664        0.807064 
        3.33014         7.81128        0.797474 
        3.34585         7.77986        0.788024 
        3.36158         7.71698        0.778713 
        3.37727         7.61909        0.769581 
        3.39294         7.59015        0.760603 
        3.40867         7.50861        0.751737 
        3.42439         7.46344        0.743016 
        3.44008         7.42655         0.73445 
        3.45578         7.36638        0.726012 
        3.47153          7.3175        0.717689 
        3.48724         7.26007         0.70951 
        3.50292         7.19389        0.701477 
        3.51859         7.14601        0.693572 
        3.53431         7.10693        0.685764 
        3.55007         7.05156        0.678057 
        3.56577         6.99972        0.670499 
        3.58146         6.95304        0.663059 
        3.59719         6.90253        0.655714 
        3.61292         6.83506        0.648483 
        3.62859         6.79819        0.641387 
        3.64429         6.76142        0.634385 
        3.66003         6.68945        0.627465 
        3.67578         6.63026         0.62065 
        3.69146         6.59106        0.613962 
        3.70712         6.54241        0.607385 
        3.72284         6.50359         0.60088 
        3.73853         6.43817         0.59448 
        3.75422         6.43138        0.588172 
        3.76993         6.35054        0.581949 
        3.78564         6.31699        0.575819 
        3.80137         6.25184        0.569767 
        3.81707         6.23296        0.563814 
        3.83279         6.18517        0.557941 
        3.84853         6.13604        0.552143 
        3.86424         6.09504        0.546437 
        3.87992         6.04596        0.540821 
        3.89561         6.00201        0.535283 
        3.91134         5.96139        0.529812 
        3.92704         5.91096        0.524422 
        3.94273         5.88781        0.519113 
        3.95845         5.84487        0.513868 
        3.97418         5.78785        0.508694 
        3.98988         5.75469        0.503598 
        4.00554         5.72456        0.498585 
        4.02125          5.6732        0.493626 
        4.03698         5.62287        0.488727 
        4.05268         5.60463        0.483905 
        4.06839          5.5546        0.479144 
         4.0841         5.51118        0.474449 
        4.09983         5.47283         0.46981 
        4.11555          5.4442        0.465235 
        4.13124         5.41308        0.460733 
        4.14693         5.36594        0.456287 
        4.16266         5.32634        0.451889 
        4.17839         5.27938        0.447552 
        4.19408         5.24609        0.443281 
        4.20977         5.20205        0.439064 
        4.22551         5.17204        0.434891 
        4.24123         5.13606        0.430777 
        4.25691         5.08058        0.426727 
        4.27259         5.06762        0.422728 
        4.28831         5.02668        0.418772 
        4.30404         4.99699        0.414862 
        4.31974         4.95028        0.411011 
        4.33543         4.91871        0.407211 
        4.35116         4.87408         0.40345 
        4.36688         4.84822        0.399738 
        4.38255          4.8214        0.396086 
        4.39825         4.76984        0.392471 
        4.41398         4.76187        0.388894 
         4.4297         4.71014        0.385366 
        4.44541          4.6832        0.381882 
        4.46111         4.66862        0.378444 
        4.47683         4.62731        0.375045 
        4.49251         4.59613        0.371695 
        4.50819         4.56004        0.368386 
         4.5239         4.53255        0.365113 
        4.53962         4.50475        0.361876 
        4.55535         4.48019        0.358676 
        4.57106         4.44054        0.355519 
        4.58678         4.41815          0.3524 
         4.6025         4.38247        0.349317 
        4.61821         4.35924        0.346272 
        4.63391         4.32712        0.343266 
         4.6496         4.29891        0.340298 
        4.66532         4.28229         0.33736 
        4.68103         4.23981        0.334457 
        4.69673         4.22428        0.331592 
        4.71241         4.19724        0.328763 
        4.72811         4.15561        0.325962 
        4.74384         4.12541         0.32319 
        4.75955         4.09995        0.320455 
        4.77525         4.07226        0.317753 
        4.79096         4.05345        0.315078 
        4.80669         4.03211        0.312433 
         4.8224         4.00522        0.309821 
        4.83809         3.96882        0.307242 
        4.85379         3.95266         0.30469 
         4.8695         3.92727        0.302165 
        4.88521         3.90338         0.29967 
        4.90093         3.86762        0.297203 
        4.91663         3.85727        0.294765 
        4.93234         3.83446        0.292352 
        4.94807         3.79695        0.289965 
        4.96377         3.77244        0.287609 
        4.97943         3.75666        0.285283 
        4.99514         3.73226        0.282978 
        5.01086          3.7068        0.280696 
        5.02654         3.68597        0.278444 
        5.04227         3.65318        0.276211 
          5.058         3.63578        0.274002 
        5.07371         3.61447         0.27182 
        5.08942         3.58912        0.269663 
        5.10513         3.57452        0.267528 
        5.12084         3.55199        0.265415 
        5.13656         3.52831        0.263326 
        5.15225          3.5081        0.261262 
        5.16796         3.48357        0.259217 
        5.18369          3.4573        0.257192 
         5.1994         3.44284        0.255193 
        5.21509         3.41873        0.253216 
        5.23079          3.4073        0.251258 
        5.24649         3.38113        0.249322 
        5.26217         3.35458        0.247408 
        5.27788         3.33534        0.245511 
        5.29359         3.32055        0.243634 
        5.30933         3.29758        0.241773 
        5.32504         3.28913        0.239935 
        5.34073         3.26444        0.238118 
        5.35646         3.23948        0.236316 
        5.37218         3.22234        0.234533 
        5.38789         3.19905        0.232771 
        5.40357         3.18834        0.231028 
        5.41929          3.1625          0.2293 
        5.43502         3.14674        0.227589 
         5.4507          3.1297          0.2259 
        5.46639         3.10794        0.224227 
        5.48212         3.09222        0.222568 
        5.49786         3.07453        0.220923 
        5.51353         3.05258        0.219303 
        5.52921         3.04001        0.217698 
        5.54495         3.01999        0.216104 
        5.56066         3.00837        0.214527 
        5.57637         2.98654        0.212967 
        5.59207         2.96462        0.211423 
        5.60778         2.94585        0.209894 
        5.62346         2.93323        0.208382 
        5.63916         2.91572        0.206884 
        5.65487         2.90092        0.205399 
         5.6706         2.87991        0.203928 
        5.68633         2.86559         0.20247 
        5.70203         2.84977        0.201029 
        5.71773         2.83637        0.199603 
        5.73344          2.8194        0.198189 
        5.74916         2.80561        0.196788 
        5.76486         2.79117        0.195403 
        5.78054         2.77454        0.194033 
        5.79626         2.75844        0.192672 
          5.812         2.73958        0.191323 
         5.8277         2.72695         0.18999 
        5.84339          2.7119         0.18867 
        5.85911         2.69849        0.187361 
        5.87484         2.68222        0.186064 
        5.89053         2.66251        0.184781 
        5.90623         2.65159         0.18351 
        5.92195         2.64005        0.182249 
        5.93767         2.62063        0.181001 
        5.95336         2.60914        0.179766 
        5.96905         2.59318        0.178543 
        5.98476         2.58278         0.17733 
        6.00048         2.56788        0.176127 
        6.01617         2.55351        0.174937 
        6.03185         2.53368         0.17376 
        6.04756         2.52173        0.172591 
        6.06331         2.50686         0.17143 
        6.07903         2.49625        0.170282 
        6.09473         2.48634        0.169145 
        6.11044         2.47031        0.168018 
        6.12616         2.45854        0.166901 
        6.14186         2.44552        0.165796 
        6.15755         2.43482        0.164701 
        6.17326         2.42065        0.163614 
        6.18898         2.40563        0.162537 
        6.20467         2.39547        0.161472 
        6.22036         2.38071        0.160416 
         6.2361         2.36655        0.159366 
         6.2518         2.35605        0.158328 
        6.26748         2.34664        0.157301 
        6.28319         2.33094        0.156281 
        6.29893         2.31857        0.155268 
        6.31463         2.30403        0.154267 
        6.33033         2.29475        0.153274 
        6.34604          2.2875        0.152289 
        6.36177         2.27539        0.151313 
        6.37747         2.26175        0.150346 
