# k  (h/Mpc)    Pcb(k)  (Mpc/h)^3    Pcb_linear(k) (Mpc/h)^3   ShotnoiseSubtracted = true
      0.0200456         1287.95          1303.6 
      0.0350414         832.682         817.299 
      0.0492313         549.381         546.271 
      0.0637834         446.422         450.506 
      0.0800726         345.111         349.918 
       0.096163         241.761         236.724 
       0.111083         188.309         183.631 
       0.126058         165.111         166.109 
       0.142273          138.11         139.244 
       0.158546         106.295         105.025 
        0.17375         89.2767         87.2631 
       0.188953         81.1728         80.1939 
       0.204907         69.7222         70.7234 
       0.220756           59.16         58.2374 
        0.23588         50.9695         50.0504 
         0.2514         46.3919         45.7847 
       0.267535         42.3263         41.4261 
       0.283568         36.7788         35.9903 
       0.299022         32.8282         31.7534 
       0.314451         30.5832         29.0677 
       0.330372         27.5727         26.6657 
       0.346141         24.9119          24.018 
       0.361624         22.5263         21.6759 
       0.377134          20.588         19.9177 
       0.392932         19.6344         18.4182 
       0.408854         17.6989         16.9068 
       0.424564         16.6922         15.5082 
       0.440253         15.1974         14.3447 
       0.455999           13.88         13.3469 
       0.471626         12.9948         12.4157 
        0.48727         12.4234         11.5384 
       0.502856         11.6238         10.7605 
       0.518488         10.6753         10.0756 
       0.534347         9.95542         9.43604 
       0.550082         9.51454         8.84425 
       0.565732         9.06451         8.30517 
       0.581496         8.49071         7.81541 
       0.597222         7.97915         7.36658 
       0.612804         7.49276          6.9536 
       0.628434         7.22221         6.56928 
       0.644267         6.83045         6.21137 
       0.660051         6.44745         5.88265 
       0.675724         6.08171         5.57954 
       0.691403         5.85276          5.2973 
       0.707174         5.55065         5.03282 
       0.722871         5.39076         4.78729 
        0.73838         5.03719         4.56064 
       0.754018         4.78385         4.34688 
       0.769845         4.55271         4.14443 
        0.78569         4.42618         3.95465 
       0.801365         4.22133         3.77861 
       0.817031         4.05537         3.61343 
       0.832809         3.84844         3.45711 
       0.848511         3.72506         3.31078 
       0.864097         3.58159         3.17396 
       0.879701          3.4764         3.04477 
       0.895507          3.3143         2.92127 
       0.911279         3.19019          2.8049 
        0.92691         3.08948         2.69585 
       0.942635         2.94431         2.59201 
       0.958396         2.85518         2.49343 
       0.974128         2.76603         2.40017 
       0.989692          2.6325          2.3126 
        1.00528         2.56845         2.22928 
        1.02113         2.48266         2.14876 
        1.03692         2.42024         2.07252 
        1.05264         2.31116         2.00033 
        1.06832          2.2467         1.93169 
        1.08405         2.16844         1.86609 
        1.09979         2.11088         1.80351 
        1.11537         2.04043         1.74441 
        1.13105         1.96561         1.68762 
        1.14679         1.91389         1.63313 
        1.16256          1.8501         1.58095 
        1.17828         1.81842         1.53122 
        1.19395         1.74556          1.4838 
         1.2097         1.69292         1.43815 
        1.22537         1.63595         1.39464 
          1.241         1.59937         1.35307 
        1.25666         1.56901         1.31308 
        1.27241         1.52622         1.27453 
        1.28819          1.4619         1.23746 
        1.30392         1.42585         1.20198 
        1.31957         1.39935         1.16804 
        1.33529         1.33935         1.13529 
        1.35108          1.3144         1.10367 
        1.36674         1.27762         1.07348 
         1.3824         1.25949         1.04445 
        1.39811         1.22238         1.01639 
        1.41389         1.18664        0.989264 
        1.42964         1.15595        0.963169 
        1.44531          1.1326        0.938144 
        1.46101           1.103        0.913954 
        1.47667         1.07923         0.89069 
        1.49229         1.04178        0.868298 
        1.50793         1.01362         0.84665 
        1.52367        0.993579        0.825601 
        1.53953        0.966101        0.805127 
        1.55526        0.957529        0.785511 
        1.57092        0.935141        0.766628 
        1.58662        0.922108        0.748322 
        1.60235         0.88772        0.730578 
        1.61809         0.87053          0.7134 
        1.63369        0.845481        0.696926 
        1.64941        0.831524        0.680855 
        1.66519        0.817027        0.665233 
        1.68085        0.794617        0.650212 
        1.69652        0.777795        0.635649 
        1.71228        0.759595        0.621451 
        1.72806        0.745941        0.607674 
        1.74368        0.729576        0.594453 
        1.75933         0.71712        0.581599 
        1.77505        0.703348        0.569064 
        1.79081        0.680839        0.556877 
         1.8065        0.674914        0.545098 
        1.82218        0.655722        0.533671 
        1.83797        0.641255        0.522492 
        1.85367        0.632241        0.511696 
        1.86928        0.618304        0.501268 
        1.88497        0.603964        0.491075 
        1.90073         0.59839        0.481127 
        1.91647        0.580647        0.471464 
        1.93218        0.571664        0.462086 
        1.94787        0.561494        0.452976 
        1.96363        0.551328        0.444077 
        1.97935        0.539067        0.435434 
        1.99499        0.530126         0.42707 
        2.01064        0.520258        0.418913 
         2.0264        0.507863        0.410918 
        2.04216        0.501124        0.403136 
        2.05781        0.491204        0.395604 
        2.07353        0.482872        0.388237 
        2.08928        0.475012        0.381042 
        2.10499        0.465954        0.374048 
        2.12065        0.456367         0.36725 
        2.13633        0.450291        0.360616 
        2.15211         0.43862        0.354102 
        2.16785         0.43462        0.347767 
        2.18349        0.425567        0.341627 
        2.19916        0.419468        0.335622 
        2.21489        0.411676        0.329741 
        2.23063        0.403333        0.323997 
         2.2463        0.397012        0.318415 
        2.26194        0.391315        0.312979 
        2.27765        0.384661        0.307641 
        2.29341         0.37845        0.302414 
        2.30914        0.369834        0.297319 
        2.32486        0.365634        0.292344 
        2.34061        0.357764        0.287475 
        2.35635        0.352436        0.282721 
        2.37203         0.34835         0.27809 
        2.38768        0.342648        0.273573 
        2.40339         0.33713        0.269139 
        2.41914        0.332652        0.264793 
        2.43483        0.326706        0.260559 
         2.4505        0.321167        0.256424 
        2.46622         0.31686        0.252364 
        2.48195        0.311261        0.248392 
        2.49759         0.30736        0.244526 
        2.51328        0.300997        0.240733 
        2.52906        0.297442        0.236996 
        2.54479        0.291945        0.233351 
        2.56049        0.288347        0.229791 
        2.57618        0.284799        0.226308 
        2.59189         0.27937        0.222891 
        2.60758        0.276271        0.219551 
        2.62325        0.272183        0.216283 
        2.63898        0.268801        0.213069 
        2.65468         0.26253        0.209928 
        2.67044        0.259703        0.206837 
        2.68618        0.256937        0.203815 
        2.70184         0.25309        0.200865 
        2.71755        0.249046        0.197966 
        2.73329        0.246055         0.19512 
        2.74897        0.242148        0.192338 
        2.76462        0.238879        0.189618 
        2.78034        0.235301        0.186938 
        2.79607         0.23265        0.184307 
        2.81179        0.229032         0.18173 
        2.82749        0.225793        0.179205 
        2.84321        0.222314        0.176725 
        2.85893        0.219814        0.174293 
        2.87462        0.216573         0.17191 
        2.89033        0.214793         0.16957 
        2.90605        0.211623        0.167271 
        2.92176         0.20938        0.165016 
        2.93747        0.205893        0.162804 
        2.95318        0.203661        0.160631 
        2.96891        0.201686        0.158497 
        2.98456        0.198461        0.156412 
        3.00023        0.196066         0.15436 
        3.01596        0.193392        0.152339 
        3.03164        0.190971         0.15036 
        3.04738        0.189175         0.14841 
         3.0631        0.186309        0.146496 
        3.07883        0.184009        0.144615 
        3.09456        0.182351        0.142767 
        3.11026        0.180044        0.140954 
        3.12596        0.177533        0.139173 
        3.14163        0.175687        0.137427 
        3.15734        0.173948        0.135707 
        3.17308        0.172001        0.134011 
        3.18879        0.169677         0.13235 
        3.20447        0.167801        0.130719 
         3.2202        0.166132         0.12911 
         3.2359        0.163622        0.127531 
        3.25157        0.161367        0.125982 
        3.26729        0.160762        0.124455 
        3.28304        0.158732        0.122949 
        3.29877        0.157102         0.12147 
        3.31446        0.155751        0.120019 
        3.33014        0.153393        0.118593 
        3.34585        0.152312        0.117188 
        3.36158        0.150769        0.115803 
        3.37727         0.14898        0.114445 
        3.39294        0.147871         0.11311 
        3.40867        0.145675        0.111791 
        3.42439          0.1448        0.110495 
        3.44008        0.143302        0.109221 
        3.45578        0.142091        0.107966 
        3.47153        0.140573        0.106728 
        3.48724        0.139278        0.105512 
        3.50292        0.138246        0.104317 
        3.51859        0.136631        0.103142 
        3.53431        0.135406        0.101981 
        3.55007        0.134378        0.100835 
        3.56577        0.133238       0.0997105 
        3.58146        0.131774        0.098604 
        3.59719        0.130767       0.0975118 
        3.61292        0.129508       0.0964364 
        3.62859        0.128555       0.0953813 
        3.64429        0.127034       0.0943399 
        3.66003        0.126076       0.0933108 
        3.67578        0.125184       0.0922975 
        3.69146        0.123993       0.0913029 
        3.70712        0.123166       0.0903248 
        3.72284         0.12228       0.0893574 
        3.73853        0.121331       0.0884057 
        3.75422        0.120015       0.0874676 
        3.76993        0.119283       0.0865422 
        3.78564        0.117953       0.0856306 
        3.80137        0.117241       0.0847305 
        3.81707        0.116488       0.0838453 
        3.83279        0.115506        0.082972 
        3.84853        0.114347       0.0821096 
        3.86424        0.113576       0.0812612 
        3.87992        0.112636        0.080426 
        3.89561        0.111774       0.0796025 
        3.91134         0.11076       0.0787888 
        3.92704        0.109717       0.0779873 
        3.94273        0.109085       0.0771978 
        3.95845        0.107854       0.0764178 
        3.97418        0.107278       0.0756483 
        3.98988        0.106182       0.0748905 
        4.00554         0.10485        0.074145 
        4.02125        0.103971       0.0734076 
        4.03698        0.102702        0.072679 
        4.05268        0.101372        0.071962 
        4.06839        0.100252        0.071254 
         4.0841       0.0989707       0.0705558 
        4.09983       0.0979132       0.0698659 
        4.11555        0.096517       0.0691856 
        4.13124       0.0953607       0.0685161 
        4.14693       0.0942578       0.0678549 
        4.16266       0.0932098       0.0672008 
        4.17839       0.0922417       0.0665558 
        4.19408       0.0910078       0.0659207 
        4.20977       0.0902898       0.0652935 
        4.22551       0.0891686        0.064673 
        4.24123        0.088231       0.0640612 
        4.25691        0.087517        0.063459 
        4.27259       0.0864838       0.0628642 
        4.28831       0.0860477       0.0622759 
        4.30404        0.084857       0.0616946 
        4.31974       0.0841811       0.0611219 
        4.33543       0.0835154       0.0605568 
        4.35116       0.0829881       0.0599974 
        4.36688       0.0822848       0.0594453 
        4.38255       0.0815161       0.0589022 
        4.39825       0.0810736       0.0583647 
        4.41398       0.0804064       0.0578328 
         4.4297       0.0800499       0.0573081 
        4.44541       0.0793326         0.05679 
        4.46111       0.0787163       0.0562787 
        4.47683       0.0784104       0.0557733 
        4.49251       0.0778905       0.0552751 
        4.50819       0.0777744       0.0547831 
         4.5239       0.0772787       0.0542963 
        4.53962       0.0769867       0.0538149 
        4.55535        0.076548        0.053339 
        4.57106       0.0763899       0.0528696 
        4.58678       0.0759653       0.0524057 
         4.6025       0.0760162       0.0519473 
        4.61821       0.0759304       0.0514944 
        4.63391       0.0755724       0.0510474 
         4.6496       0.0754014        0.050606 
        4.66532       0.0752926       0.0501691 
        4.68103       0.0752505       0.0497375 
        4.69673       0.0751987       0.0493113 
        4.71241        0.075054       0.0488906 
        4.72811       0.0751593       0.0484741 
        4.74384        0.074936       0.0480619 
        4.75955        0.075158       0.0476551 
        4.77525       0.0752476       0.0472533 
        4.79096       0.0751764       0.0468555 
        4.80669       0.0750277       0.0464622 
         4.8224       0.0753973       0.0460738 
        4.83809       0.0754814       0.0456902 
        4.85379       0.0759005       0.0453107 
         4.8695       0.0760544       0.0449353 
        4.88521       0.0761325       0.0445642 
        4.90093       0.0766147       0.0441973 
        4.91663       0.0767382       0.0438348 
        4.93234       0.0770249        0.043476 
        4.94807        0.077541        0.043121 
        4.96377       0.0779229       0.0427705 
        4.97943       0.0785149       0.0424247 
        4.99514       0.0780884       0.0420819 
        5.01086       0.0791969       0.0417425 
        5.02654       0.0795862       0.0414077 
        5.04227       0.0799766       0.0410756 
          5.058       0.0808754        0.040747 
        5.07371       0.0811789       0.0404227 
        5.08942       0.0820909       0.0401018 
        5.10513       0.0824851       0.0397843 
        5.12084       0.0829564       0.0394701 
        5.13656       0.0839545       0.0391594 
        5.15225       0.0845202       0.0388525 
        5.16796       0.0854771       0.0385484 
        5.18369       0.0861766       0.0382473 
         5.1994       0.0872217       0.0379499 
        5.21509       0.0876968        0.037656 
        5.23079       0.0888791       0.0373648 
        5.24649       0.0897675       0.0370769 
        5.26217       0.0906475       0.0367922 
        5.27788       0.0914438       0.0365102 
        5.29359       0.0924232        0.036231 
        5.30933       0.0942519       0.0359543 
        5.32504       0.0948814        0.035681 
        5.34073       0.0962743       0.0354108 
        5.35646       0.0972033       0.0351428 
        5.37218       0.0987041       0.0348776 
        5.38789       0.0995003       0.0346155 
        5.40357        0.100475       0.0343564 
        5.41929        0.102077       0.0340994 
        5.43502        0.103988        0.033845 
         5.4507         0.10527       0.0335938 
        5.46639         0.10667       0.0333451 
        5.48212           0.108       0.0330983 
        5.49786        0.109609       0.0328537 
        5.51353        0.112049       0.0326128 
        5.52921        0.112419        0.032374 
        5.54495        0.114462        0.032137 
        5.56066        0.116498       0.0319025 
        5.57637        0.118526       0.0316705 
        5.59207        0.119849       0.0314409 
        5.60778        0.121888       0.0312135 
        5.62346        0.124249       0.0309887 
        5.63916        0.125042       0.0307659 
        5.65487        0.128028       0.0305451 
         5.6706        0.129525       0.0303262 
        5.68633        0.131964       0.0301095 
        5.70203         0.13464       0.0298952 
        5.71773        0.137059       0.0296831 
        5.73344        0.138224       0.0294729 
        5.74916        0.141299       0.0292646 
        5.76486         0.14384       0.0290585 
        5.78054        0.145524       0.0288548 
        5.79626        0.148189       0.0286524 
          5.812        0.150961       0.0284518 
         5.8277        0.153474       0.0282536 
        5.84339        0.155548       0.0280574 
        5.85911        0.158706       0.0278626 
        5.87484        0.161138       0.0276697 
        5.89053        0.164743        0.027479 
        5.90623        0.166721         0.02729 
        5.92195        0.170328       0.0271025 
        5.93767         0.17322       0.0269168 
        5.95336        0.175427       0.0267331 
        5.96905        0.178588       0.0265513 
        5.98476        0.180913       0.0263708 
        6.00048        0.184513        0.026192 
        6.01617        0.188908       0.0260151 
        6.03185        0.192176         0.02584 
        6.04756        0.193586       0.0256661 
        6.06331         0.19761       0.0254935 
        6.07903        0.203412       0.0253227 
        6.09473        0.205432       0.0251537 
        6.11044        0.209403       0.0249861 
        6.12616        0.211127       0.0248201 
        6.14186        0.215441       0.0246557 
        6.15755        0.220111       0.0244928 
        6.17326        0.222851       0.0243312 
        6.18898        0.226038        0.024171 
        6.20467         0.22974       0.0240126 
        6.22036        0.233605       0.0238555 
         6.2361        0.235741       0.0236995 
         6.2518        0.241555       0.0235451 
        6.26748        0.245084       0.0233924 
        6.28319        0.249522       0.0232406 
        6.29893        0.252573       0.0230901 
        6.31463        0.258048       0.0229411 
        6.33033        0.260715       0.0227935 
        6.34604        0.266472       0.0226471 
        6.36177        0.269468       0.0225018 
        6.37747        0.273758       0.0223581 
