# k  (h/Mpc)    Pcb(k)  (Mpc/h)^3    Pcb_linear(k) (Mpc/h)^3   ShotnoiseSubtracted = true
      0.0200456         173.518         175.687 
      0.0350414         110.784         110.148 
      0.0492313         74.1132         73.6213 
      0.0637834         60.9698          60.715 
      0.0800726         47.1946         47.1587 
       0.096163          32.063         31.9035 
       0.111083         24.8243          24.748 
       0.126058          22.361         22.3866 
       0.142273         18.7719         18.7661 
       0.158546         14.2707         14.1542 
        0.17375         11.7693         11.7605 
       0.188953          10.793         10.8078 
       0.204907          9.6097         9.53144 
       0.220756         7.89886         7.84869 
        0.23588         6.78452         6.74533 
         0.2514         6.16619         6.17044 
       0.267535         5.57902         5.58302 
       0.283568         4.86371         4.85043 
       0.299022         4.30438         4.27943 
       0.314451         3.89773         3.91748 
       0.330372         3.58752         3.59375 
       0.346141         3.23481         3.23693 
       0.361624         2.92781         2.92127 
       0.377134         2.69618         2.68432 
       0.392932         2.45363         2.48224 
       0.408854         2.28439         2.27854 
       0.424564         2.08397         2.09005 
       0.440253         1.93036         1.93325 
       0.455999         1.80275         1.79877 
       0.471626         1.67919         1.67327 
        0.48727         1.55229         1.55504 
       0.502856          1.4435         1.45021 
       0.518488         1.36393         1.35789 
       0.534347         1.28454          1.2717 
       0.550082         1.18722         1.19194 
       0.565732         1.10319         1.11929 
       0.581496         1.05221         1.05329 
       0.597222        0.993313        0.992799 
       0.612804        0.933814        0.937141 
       0.628434        0.887992        0.885346 
       0.644267        0.835267        0.837111 
       0.660051        0.787848        0.792808 
       0.675724        0.749805        0.751958 
       0.691403         0.71376        0.713921 
       0.707174        0.675696        0.678276 
       0.722871         0.63922        0.645186 
        0.73838        0.612722        0.614641 
       0.754018        0.586891        0.585831 
       0.769845        0.557747        0.558547 
        0.78569        0.531192         0.53297 
       0.801365        0.505817        0.509245 
       0.817031        0.484525        0.486984 
       0.832809        0.463412        0.465917 
       0.848511        0.442367        0.446197 
       0.864097        0.422618        0.427757 
       0.879701        0.404225        0.410346 
       0.895507        0.390953        0.393702 
       0.911279        0.375522        0.378019 
        0.92691        0.359404        0.363322 
       0.942635        0.345817        0.349327 
       0.958396        0.331318        0.336041 
       0.974128        0.318565        0.323472 
       0.989692        0.307877         0.31167 
        1.00528        0.297005        0.300441 
        1.02113        0.283834        0.289589 
        1.03692        0.274924        0.279314 
        1.05264        0.265228        0.269585 
        1.06832        0.256174        0.260335 
        1.08405        0.246008        0.251495 
        1.09979        0.237688         0.24306 
        1.11537        0.231439        0.235096 
        1.13105        0.223355        0.227441 
        1.14679         0.21691        0.220099 
        1.16256        0.207751        0.213066 
        1.17828        0.201159        0.206364 
        1.19395        0.194592        0.199973 
         1.2097        0.188174         0.19382 
        1.22537        0.183831        0.187957 
          1.241        0.177486        0.182353 
        1.25666        0.173197        0.176965 
        1.27241        0.166882        0.171769 
        1.28819        0.162009        0.166773 
        1.30392        0.157093        0.161991 
        1.31957        0.152899        0.157418 
        1.33529        0.148026        0.153004 
        1.35108        0.143734        0.148743 
        1.36674        0.138711        0.144674 
         1.3824        0.136503        0.140761 
        1.39811        0.132054         0.13698 
        1.41389        0.128497        0.133324 
        1.42964        0.125526        0.129807 
        1.44531        0.121128        0.126434 
        1.46101        0.118208        0.123174 
        1.47667        0.114666        0.120039 
        1.49229          0.1122        0.117021 
        1.50793        0.108735        0.114104 
        1.52367        0.106276        0.111267 
        1.53953        0.103791        0.108508 
        1.55526        0.101039        0.105864 
        1.57092       0.0977225        0.103319 
        1.58662        0.095944        0.100852 
        1.60235       0.0939208       0.0984604 
        1.61809       0.0905858       0.0961453 
        1.63369       0.0893138       0.0939252 
        1.64941       0.0870297       0.0917593 
        1.66519       0.0846421       0.0896539 
        1.68085       0.0824941       0.0876294 
        1.69652       0.0805165       0.0856669 
        1.71228       0.0790925       0.0837533 
        1.72806       0.0765871       0.0818966 
        1.74368       0.0752687       0.0801148 
        1.75933       0.0736062       0.0783824 
        1.77505       0.0717864       0.0766932 
        1.79081        0.070384       0.0750507 
         1.8065       0.0683533       0.0734633 
        1.82218       0.0670866       0.0719232 
        1.83797       0.0654397       0.0704166 
        1.85367       0.0640058       0.0689615 
        1.86928        0.062868       0.0675563 
        1.88497        0.061592       0.0661825 
        1.90073       0.0600389       0.0648418 
        1.91647       0.0585852       0.0635394 
        1.93218       0.0574376       0.0622756 
        1.94787       0.0561786       0.0610479 
        1.96363       0.0551436       0.0598485 
        1.97935       0.0537391       0.0586837 
        1.99499       0.0528091       0.0575565 
        2.01064       0.0518792       0.0564572 
         2.0264       0.0507856       0.0553797 
        2.04216       0.0496963       0.0543309 
        2.05781       0.0487451       0.0533158 
        2.07353       0.0474735        0.052323 
        2.08928       0.0466725       0.0513532 
        2.10499        0.045571       0.0504107 
        2.12065       0.0450232       0.0494946 
        2.13633       0.0438252       0.0486004 
        2.15211       0.0433578       0.0477225 
        2.16785       0.0423912       0.0468688 
        2.18349        0.041246       0.0460413 
        2.19916        0.040867       0.0452319 
        2.21489       0.0400979       0.0444394 
        2.23063       0.0392984       0.0436653 
         2.2463       0.0383826        0.042913 
        2.26194       0.0376268       0.0421804 
        2.27765       0.0369572        0.041461 
        2.29341       0.0364841       0.0407566 
        2.30914       0.0356241       0.0400699 
        2.32486       0.0350181       0.0393995 
        2.34061       0.0344633       0.0387432 
        2.35635       0.0337313       0.0381024 
        2.37203       0.0331506       0.0374784 
        2.38768       0.0325462       0.0368696 
        2.40339       0.0319412        0.036272 
        2.41914       0.0314922       0.0356864 
        2.43483       0.0308423       0.0351157 
         2.4505       0.0302394       0.0345584 
        2.46622       0.0297799       0.0340113 
        2.48195       0.0291907       0.0334759 
        2.49759       0.0288512        0.032955 
        2.51328       0.0283933       0.0324437 
        2.52906       0.0278848         0.03194 
        2.54479       0.0273714       0.0314489 
        2.56049       0.0269352       0.0309691 
        2.57618       0.0264998       0.0304997 
        2.59189       0.0260515       0.0300392 
        2.60758       0.0256732        0.029589 
        2.62325       0.0251884       0.0291486 
        2.63898       0.0247755       0.0287155 
        2.65468       0.0243041       0.0282922 
        2.67044        0.024055       0.0278755 
        2.68618       0.0235745       0.0274682 
        2.70184       0.0232141       0.0270707 
        2.71755       0.0227393         0.02668 
        2.73329       0.0224619       0.0262964 
        2.74897       0.0221464       0.0259216 
        2.76462        0.021742       0.0255549 
        2.78034       0.0214503       0.0251938 
        2.79607         0.02111       0.0248392 
        2.81179       0.0208338       0.0244919 
        2.82749       0.0204293       0.0241516 
        2.84321       0.0201598       0.0238174 
        2.85893       0.0198489       0.0234896 
        2.87462        0.019564       0.0231685 
        2.89033       0.0193134       0.0228531 
        2.90605       0.0189199       0.0225432 
        2.92176       0.0187343       0.0222393 
        2.93747       0.0184329       0.0219411 
        2.95318        0.018109       0.0216484 
        2.96891       0.0179273       0.0213608 
        2.98456       0.0177124       0.0210797 
        3.00023        0.017375       0.0208032 
        3.01596       0.0170853       0.0205309 
        3.03164       0.0169499       0.0202641 
        3.04738       0.0166746       0.0200014 
         3.0631        0.016347       0.0197433 
        3.07883       0.0161368       0.0194898 
        3.09456       0.0160175       0.0192408 
        3.11026       0.0157156       0.0189965 
        3.12596       0.0155663       0.0187565 
        3.14163       0.0153437       0.0185211 
        3.15734       0.0151112       0.0182893 
        3.17308       0.0149193       0.0180608 
        3.18879       0.0147164       0.0178369 
        3.20447       0.0145453        0.017617 
         3.2202       0.0143596       0.0174002 
         3.2359        0.014168       0.0171874 
        3.25157       0.0139515       0.0169787 
        3.26729       0.0138078       0.0167728 
        3.28304       0.0136058       0.0165699 
        3.29877       0.0134722       0.0163706 
        3.31446       0.0132885       0.0161751 
        3.33014        0.013113       0.0159829 
        3.34585       0.0129757       0.0157935 
        3.36158       0.0127489       0.0156069 
        3.37727       0.0126413       0.0154238 
        3.39294       0.0124913       0.0152439 
        3.40867       0.0123643       0.0150662 
        3.42439       0.0122123       0.0148914 
        3.44008        0.012063       0.0147197 
        3.45578       0.0119543       0.0145506 
        3.47153        0.011772       0.0143838 
        3.48724       0.0117217       0.0142199 
        3.50292       0.0115011       0.0140589 
        3.51859       0.0113672       0.0139005 
        3.53431        0.011308        0.013744 
        3.55007       0.0111749       0.0135895 
        3.56577       0.0110781        0.013438 
        3.58146       0.0108826       0.0132889 
        3.59719       0.0108081       0.0131417 
        3.61292       0.0106464       0.0129968 
        3.62859       0.0105573       0.0128546 
        3.64429       0.0104787       0.0127143 
        3.66003       0.0103591       0.0125756 
        3.67578       0.0102567        0.012439 
        3.69146       0.0101914        0.012305 
        3.70712       0.0100878       0.0121731 
        3.72284      0.00996326       0.0120427 
        3.73853      0.00986077       0.0119145 
        3.75422      0.00982406       0.0117881 
        3.76993      0.00968796       0.0116633 
        3.78564      0.00964215       0.0115405 
        3.80137      0.00955135       0.0114192 
        3.81707      0.00943207       0.0112999 
        3.83279      0.00936448       0.0111822 
        3.84853      0.00928655        0.011066 
        3.86424      0.00917252       0.0109516 
        3.87992      0.00911139       0.0108391 
        3.89561      0.00904878       0.0107281 
        3.91134      0.00899092       0.0106184 
        3.92704      0.00886748       0.0105104 
        3.94273      0.00880906        0.010404 
        3.95845      0.00869313       0.0102989 
        3.97418      0.00865376       0.0101952 
        3.98988      0.00856748        0.010093 
        4.00554      0.00846351      0.00999257 
        4.02125      0.00834233      0.00989319 
        4.03698      0.00823936        0.009795 
        4.05268      0.00811156      0.00969836 
        4.06839      0.00798585      0.00960295 
         4.0841       0.0078543      0.00950885 
        4.09983      0.00772298      0.00941588 
        4.11555      0.00762048      0.00932418 
        4.13124      0.00749449      0.00923396 
        4.14693      0.00739384      0.00914484 
        4.16266      0.00726468       0.0090567 
        4.17839      0.00717399      0.00896977 
        4.19408      0.00709405      0.00888417 
        4.20977      0.00699061      0.00879965 
        4.22551      0.00689009      0.00871603 
        4.24123      0.00680225      0.00863357 
        4.25691      0.00672664      0.00855241 
        4.27259      0.00665218      0.00847226 
        4.28831      0.00659917      0.00839297 
        4.30404      0.00651976      0.00831462 
        4.31974      0.00643198      0.00823744 
        4.33543      0.00637233      0.00816128 
        4.35116      0.00632594      0.00808589 
        4.36688      0.00626185      0.00801149 
        4.38255      0.00622227      0.00793829 
        4.39825      0.00618907      0.00786585 
        4.41398      0.00614634      0.00779417 
         4.4297      0.00610677      0.00772346 
        4.44541      0.00606796      0.00765363 
        4.46111      0.00602746      0.00758472 
        4.47683      0.00601177       0.0075166 
        4.49251      0.00596941      0.00744946 
        4.50819       0.0059469      0.00738315 
         4.5239      0.00594732      0.00731755 
        4.53962      0.00593336      0.00725267 
        4.55535      0.00591839      0.00718854 
        4.57106      0.00593423      0.00712527 
        4.58678      0.00588855      0.00706275 
         4.6025      0.00590446      0.00700097 
        4.61821      0.00590633      0.00693993 
        4.63391      0.00591772       0.0068797 
         4.6496      0.00592479       0.0068202 
        4.66532      0.00592342      0.00676132 
        4.68103       0.0059539      0.00670315 
        4.69673      0.00596774      0.00664572 
        4.71241      0.00599545      0.00658902 
        4.72811      0.00600306      0.00653289 
        4.74384       0.0060384      0.00647734 
        4.75955      0.00606221      0.00642251 
        4.77525      0.00610203      0.00636835 
        4.79096      0.00615895      0.00631475 
        4.80669      0.00615608      0.00626174 
         4.8224      0.00622508      0.00620939 
        4.83809      0.00626025       0.0061577 
        4.85379      0.00632438      0.00610656 
         4.8695      0.00636256      0.00605596 
        4.88521      0.00641084      0.00600595 
        4.90093      0.00647924       0.0059565 
        4.91663      0.00656528      0.00590765 
        4.93234      0.00660683      0.00585929 
        4.94807      0.00669017      0.00581144 
        4.96377      0.00676273      0.00576421 
        4.97943      0.00686385      0.00571761 
        4.99514      0.00689181       0.0056714 
        5.01086      0.00698729      0.00562566 
        5.02654      0.00710316      0.00558055 
        5.04227      0.00718467      0.00553579 
          5.058       0.0072927       0.0054915 
        5.07371      0.00740582      0.00544779 
        5.08942        0.007538      0.00540454 
        5.10513      0.00759624      0.00536176 
        5.12084      0.00768432      0.00531941 
        5.13656      0.00783769      0.00527753 
        5.15225      0.00794207      0.00523618 
        5.16796      0.00809066      0.00519519 
        5.18369      0.00819856      0.00515461 
         5.1994      0.00834908      0.00511454 
        5.21509      0.00850211      0.00507492 
        5.23079      0.00858821      0.00503568 
        5.24649      0.00878578      0.00499688 
        5.26217      0.00890566      0.00495851 
        5.27788       0.0091102       0.0049205 
        5.29359      0.00923757      0.00488287 
        5.30933      0.00947624      0.00484559 
        5.32504      0.00957719      0.00480875 
        5.34073      0.00983879      0.00477233 
        5.35646      0.00997619      0.00473622 
        5.37218       0.0101549      0.00470048 
        5.38789       0.0103752      0.00466516 
        5.40357       0.0105365      0.00463024 
        5.41929       0.0107176       0.0045956 
        5.43502       0.0109661      0.00456131 
         5.4507       0.0112014      0.00452746 
        5.46639       0.0114889      0.00449394 
        5.48212       0.0115702      0.00446068 
        5.49786       0.0118674      0.00442771 
        5.51353       0.0121925      0.00439524 
        5.52921       0.0124521      0.00436307 
        5.54495       0.0127391      0.00433112 
        5.56066       0.0129707      0.00429952 
        5.57637       0.0133026      0.00426825 
        5.59207       0.0135193      0.00423731 
        5.60778       0.0138274      0.00420666 
        5.62346       0.0141693      0.00417637 
        5.63916       0.0144605      0.00414633 
        5.65487         0.01483      0.00411658 
         5.6706       0.0150994      0.00408709 
        5.68633        0.015531      0.00405787 
        5.70203       0.0158045        0.004029 
        5.71773        0.016269      0.00400041 
        5.73344        0.016601      0.00397208 
        5.74916       0.0170562      0.00394401 
        5.76486       0.0174111      0.00391624 
        5.78054       0.0177028      0.00388878 
        5.79626       0.0182591       0.0038615 
          5.812       0.0186459      0.00383446 
         5.8277       0.0191569      0.00380776 
        5.84339       0.0195278      0.00378131 
        5.85911       0.0201459      0.00375506 
        5.87484       0.0206259      0.00372906 
        5.89053       0.0210838      0.00370336 
        5.90623        0.021649      0.00367789 
        5.92195       0.0222705      0.00365262 
        5.93767       0.0227571      0.00362759 
        5.95336       0.0233363      0.00360284 
        5.96905       0.0239624      0.00357833 
        5.98476       0.0243679      0.00355402 
        6.00048       0.0251109      0.00352992 
        6.01617         0.02571      0.00350607 
        6.03185       0.0264313      0.00348248 
        6.04756       0.0270293      0.00345904 
        6.06331       0.0278527      0.00343577 
        6.07903       0.0286381      0.00341276 
        6.09473       0.0292178      0.00338999 
        6.11044        0.030174       0.0033674 
        6.12616       0.0310767      0.00334502 
        6.14186       0.0318032      0.00332286 
        6.15755       0.0326272      0.00330091 
        6.17326       0.0332515      0.00327913 
        6.18898       0.0344525      0.00325755 
        6.20467       0.0356266      0.00323619 
        6.22036       0.0363895      0.00321503 
         6.2361        0.037357        0.003194 
         6.2518       0.0385058      0.00317319 
        6.26748        0.039247      0.00315261 
        6.28319       0.0406836      0.00313216 
        6.29893       0.0417337      0.00311187 
        6.31463       0.0429841      0.00309179 
        6.33033       0.0440809       0.0030719 
        6.34604       0.0454464      0.00305217 
        6.36177       0.0469118      0.00303259 
        6.37747       0.0480941      0.00301322 
