# k  (h/Mpc)    Pcb(k)  (Mpc/h)^3    Pcb_linear(k) (Mpc/h)^3   ShotnoiseSubtracted = true
      0.0200456           13236         13423.3 
      0.0350414         8725.05         8415.77 
      0.0492313         5608.31         5624.98 
      0.0637834         4504.03         4638.88 
      0.0800726         3469.33         3603.12 
       0.096163            2578         2437.56 
       0.111083         2033.58         1890.85 
       0.126058         1717.23         1710.43 
       0.142273         1466.62         1433.81 
       0.158546         1164.17         1081.44 
        0.17375         1003.62         898.552 
       0.188953         935.738          825.76 
       0.204907         792.865         728.242 
       0.220756         701.015         599.673 
        0.23588         617.417         515.372 
         0.2514         550.085         471.447 
       0.267535         531.108         426.567 
       0.283568         459.786         370.594 
       0.299022         435.201         326.966 
       0.314451         436.449         299.312 
       0.330372         372.495         274.578 
       0.346141         343.493         247.315 
       0.361624          325.68         223.197 
       0.377134         302.676         205.093 
       0.392932         291.654         189.653 
       0.408854         277.209          174.09 
       0.424564         266.407         159.689 
       0.440253         240.087         147.708 
       0.455999         227.289         137.434 
       0.471626         226.684         127.845 
        0.48727         214.182         118.812 
       0.502856         196.024         110.802 
       0.518488         195.895         103.749 
       0.534347         181.973         97.1633 
       0.550082         176.277         91.0696 
       0.565732         174.779         85.5187 
       0.581496         163.018         80.4757 
       0.597222         158.702          75.854 
       0.612804         152.918         71.6015 
       0.628434         148.742         67.6442 
       0.644267         140.944         63.9588 
       0.660051         138.303         60.5739 
       0.675724         135.588         57.4528 
       0.691403         132.472         54.5466 
       0.707174         127.383         51.8231 
       0.722871         125.012         49.2949 
        0.73838         123.291         46.9612 
       0.754018         116.216           44.76 
       0.769845         116.124         42.6753 
        0.78569         112.502         40.7212 
       0.801365         108.486         38.9085 
       0.817031          106.04         37.2076 
       0.832809         103.918          35.598 
       0.848511          101.34         34.0913 
       0.864097         99.3017         32.6824 
       0.879701         97.9233         31.3521 
       0.895507         95.0269         30.0805 
       0.911279         92.3953         28.8822 
        0.92691         90.5244         27.7593 
       0.942635         88.4707           26.69 
       0.958396         87.8563          25.675 
       0.974128         86.0281         24.7146 
       0.989692          83.495         23.8129 
        1.00528         82.5526          22.955 
        1.02113         80.3903         22.1259 
        1.03692          79.967         21.3408 
        1.05264         78.9392         20.5974 
        1.06832         76.6827         19.8907 
        1.08405         75.4902         19.2153 
        1.09979         74.8686         18.5708 
        1.11537          72.967         17.9623 
        1.13105         71.8158         17.3775 
        1.14679         70.8672         16.8165 
        1.16256         69.3761         16.2791 
        1.17828         68.8853         15.7671 
        1.19395         67.4106         15.2788 
         1.2097         66.6207         14.8087 
        1.22537         65.3989         14.3607 
          1.241         65.1232         13.9326 
        1.25666         62.9932         13.5209 
        1.27241         62.5507         13.1239 
        1.28819         61.9386         12.7422 
        1.30392         60.8287         12.3768 
        1.31957         60.2974         12.0274 
        1.33529         59.3469         11.6902 
        1.35108         58.9136         11.3646 
        1.36674         57.8433         11.0537 
         1.3824         57.2576         10.7547 
        1.39811         56.0721         10.4659 
        1.41389         55.3068         10.1865 
        1.42964         54.6424         9.91779 
        1.44531          54.151         9.66011 
        1.46101          53.654         9.41103 
        1.47667         52.8838         9.17147 
        1.49229         52.0088          8.9409 
        1.50793         51.4433           8.718 
        1.52367         51.2456         8.50125 
        1.53953          50.436         8.29043 
        1.55526         49.3532         8.08844 
        1.57092         49.2547           7.894 
        1.58662         48.7144          7.7055 
        1.60235         48.1775         7.52279 
        1.61809          47.139         7.34591 
        1.63369         46.8135         7.17628 
        1.64941         46.3738         7.01079 
        1.66519         45.4295         6.84993 
        1.68085         44.9516         6.69526 
        1.69652         44.3602         6.54531 
        1.71228         43.9358          6.3991 
        1.72806         43.7311         6.25725 
        1.74368         42.9634         6.12111 
        1.75933         42.7235         5.98875 
        1.77505         42.1346         5.85968 
        1.79081         41.7235         5.73419 
         1.8065         41.4305          5.6129 
        1.82218         40.5631         5.49523 
        1.83797         40.0227         5.38013 
        1.85367         39.7583         5.26895 
        1.86928         39.4315         5.16158 
        1.88497         38.8871         5.05662 
        1.90073         38.4203         4.95419 
        1.91647         38.3355         4.85468 
        1.93218         37.8206         4.75812 
        1.94787          37.424         4.66432 
        1.96363         36.9762         4.57268 
        1.97935         36.4878         4.48368 
        1.99499         36.1928         4.39756 
        2.01064         35.6377         4.31357 
         2.0264         35.5955         4.23124 
        2.04216         35.0326         4.15111 
        2.05781         34.7137         4.07355 
        2.07353         34.1982         3.99769 
        2.08928         34.1714          3.9236 
        2.10499         33.7411         3.85159 
        2.12065         33.3936         3.78159 
        2.13633         33.1784         3.71328 
        2.15211         32.7866          3.6462 
        2.16785         32.2273         3.58097 
        2.18349          31.993         3.51775 
        2.19916         31.7414         3.45591 
        2.21489         31.5675         3.39536 
        2.23063         31.1824         3.33621 
         2.2463         30.8425         3.27873 
        2.26194         30.5606         3.22276 
        2.27765         30.2068          3.1678 
        2.29341         29.8503         3.11397 
        2.30914         29.5433         3.06151 
        2.32486         29.3759         3.01028 
        2.34061         29.0602         2.96014 
        2.35635         28.7545         2.91119 
        2.37203         28.4656         2.86351 
        2.38768         28.3604         2.81699 
        2.40339         27.9887         2.77134 
        2.41914         27.8908         2.72659 
        2.43483         27.4607         2.68298 
         2.4505         27.3714         2.64041 
        2.46622           26.94          2.5986 
        2.48195         26.7298          2.5577 
        2.49759         26.5176          2.5179 
        2.51328         26.2226         2.47884 
        2.52906         25.9748         2.44035 
        2.54479           25.89         2.40283 
        2.56049          25.475         2.36617 
        2.57618         25.2968          2.3303 
        2.59189         25.1419         2.29512 
        2.60758         24.7245         2.26072 
        2.62325         24.6808         2.22707 
        2.63898           24.48         2.19399 
        2.65468         24.0859         2.16164 
        2.67044         24.0357         2.12981 
        2.68618          23.727         2.09869 
        2.70184         23.5293         2.06831 
        2.71755         23.2946         2.03846 
        2.73329          23.142         2.00915 
        2.74897         22.8546         1.98052 
        2.76462         22.6271          1.9525 
        2.78034         22.4612         1.92491 
        2.79607         22.2739         1.89782 
        2.81179         22.0418         1.87128 
        2.82749         21.8867         1.84528 
        2.84321         21.6531         1.81975 
        2.85893         21.4494          1.7947 
        2.87462         21.2898         1.77017 
        2.89033         21.0441         1.74607 
        2.90605          20.905          1.7224 
        2.92176         20.7537         1.69918 
        2.93747         20.5324          1.6764 
        2.95318         20.4082         1.65403 
        2.96891         20.1825         1.63205 
        2.98456         20.0379         1.61058 
        3.00023         19.7726         1.58945 
        3.01596         19.5173         1.56864 
        3.03164         19.4665         1.54826 
        3.04738         19.3009         1.52819 
         3.0631         19.1466         1.50847 
        3.07883         18.9069          1.4891 
        3.09456         18.7425         1.47008 
        3.11026         18.5689         1.45141 
        3.12596         18.4421         1.43307 
        3.14163         18.2588         1.41509 
        3.15734         18.1837         1.39738 
        3.17308         17.9267         1.37992 
        3.18879         17.7961         1.36281 
        3.20447         17.6871         1.34602 
         3.2202         17.4466         1.32945 
         3.2359         17.3136         1.31319 
        3.25157         17.1678         1.29725 
        3.26729         17.0857         1.28151 
        3.28304         16.9067         1.26601 
        3.29877         16.7657         1.25079 
        3.31446         16.6575         1.23584 
        3.33014         16.4504         1.22116 
        3.34585         16.3444         1.20669 
        3.36158         16.1752         1.19243 
        3.37727         16.0721         1.17845 
        3.39294         15.9466          1.1647 
        3.40867         15.8428         1.15112 
        3.42439         15.6287         1.13777 
        3.44008         15.4922         1.12465 
        3.45578         15.4402         1.11173 
        3.47153         15.2585         1.09898 
        3.48724         15.1575         1.08646 
        3.50292         14.9935         1.07416 
        3.51859         14.8883         1.06205 
        3.53431         14.7965          1.0501 
        3.55007          14.679          1.0383 
        3.56577         14.4848         1.02672 
        3.58146         14.4059         1.01533 
        3.59719         14.2979         1.00408 
        3.61292         14.2139         0.99301 
        3.62859         14.0346        0.982146 
        3.64429          13.933        0.971422 
        3.66003         13.8149        0.960826 
        3.67578         13.7302        0.950391 
        3.69146         13.6408         0.94015 
        3.70712         13.4782        0.930078 
        3.72284         13.3629        0.920117 
        3.73853         13.2914        0.910318 
        3.75422         13.1442        0.900657 
        3.76993         13.0606        0.891129 
        3.78564         12.9911        0.881742 
        3.80137         12.8565        0.872474 
        3.81707         12.7116        0.863359 
        3.83279         12.6853        0.854366 
        3.84853         12.5478        0.845486 
        3.86424         12.4535         0.83675 
        3.87992         12.3636         0.82815 
        3.89561         12.2215         0.81967 
        3.91134         12.1636        0.811291 
        3.92704         12.0729        0.803039 
        3.94273         11.9322        0.794909 
        3.95845         11.8525        0.786877 
        3.97418         11.7864        0.778954 
        3.98988         11.6909         0.77115 
        4.00554         11.5246        0.763475 
        4.02125          11.504        0.755881 
        4.03698         11.3807        0.748379 
        4.05268         11.3386        0.740995 
        4.06839         11.2053        0.733706 
         4.0841         11.1422        0.726516 
        4.09983         11.0436        0.719413 
        4.11555         10.9511        0.712407 
        4.13124          10.845        0.705513 
        4.14693         10.8097        0.698704 
        4.16266         10.7333         0.69197 
        4.17839         10.6156        0.685328 
        4.19408         10.5337        0.678788 
        4.20977         10.4455         0.67233 
        4.22551         10.3572        0.665941 
        4.24123         10.2953        0.659641 
        4.25691         10.2192         0.65344 
        4.27259         10.1256        0.647316 
        4.28831         10.0751        0.641258 
        4.30404         9.96115        0.635272 
        4.31974         9.91685        0.629375 
        4.33543         9.82875        0.623556 
        4.35116         9.75241        0.617796 
        4.36688         9.67881        0.612111 
        4.38255         9.59008        0.606519 
        4.39825          9.5467        0.600984 
        4.41398         9.46383        0.595507 
         4.4297         9.37828        0.590104 
        4.44541         9.31127        0.584769 
        4.46111         9.24222        0.579504 
        4.47683         9.17483          0.5743 
        4.49251         9.09212         0.56917 
        4.50819         9.05485        0.564104 
         4.5239         8.96753        0.559092 
        4.53962         8.90936        0.554134 
        4.55535         8.83575        0.549234 
        4.57106         8.78381        0.544401 
        4.58678         8.69726        0.539624 
         4.6025         8.65348        0.534903 
        4.61821         8.59828         0.53024 
        4.63391         8.50839        0.525638 
         4.6496         8.43864        0.521092 
        4.66532         8.38753        0.516593 
        4.68103         8.32591        0.512149 
        4.69673         8.24658        0.507761 
        4.71241         8.22489        0.503429 
        4.72811         8.13719         0.49914 
        4.74384         8.08527        0.494896 
        4.75955         8.02024        0.490707 
        4.77525         7.97585        0.486569 
        4.79096         7.91461        0.482473 
        4.80669         7.84934        0.478423 
         4.8224         7.79046        0.474424 
        4.83809         7.75856        0.470474 
        4.85379         7.69659        0.466567 
         4.8695         7.62429        0.462701 
        4.88521         7.58131         0.45888 
        4.90093         7.53373        0.455101 
        4.91663         7.46485        0.451369 
        4.93234          7.4186        0.447674 
        4.94807         7.35099        0.444018 
        4.96377         7.30255         0.44041 
        4.97943         7.25243        0.436849 
        4.99514         7.20557        0.433319 
        5.01086         7.14838        0.429824 
        5.02654         7.10066        0.426377 
        5.04227         7.05708        0.422958 
          5.058         7.00374        0.419574 
        5.07371          6.9454        0.416234 
        5.08942         6.90355         0.41293 
        5.10513         6.86985        0.409661 
        5.12084         6.79518        0.406425 
        5.13656         6.76513        0.403226 
        5.15225         6.71375        0.400066 
        5.16796         6.66152        0.396935 
        5.18369         6.62265        0.393834 
         5.1994         6.59009        0.390772 
        5.21509          6.5379        0.387745 
        5.23079         6.48889        0.384747 
        5.24649         6.44346        0.381782 
        5.26217         6.40447        0.378851 
        5.27788         6.36138        0.375947 
        5.29359         6.30083        0.373072 
        5.30933         6.27636        0.370223 
        5.32504         6.22672        0.367409 
        5.34073           6.187        0.364626 
        5.35646         6.13529        0.361867 
        5.37218         6.11009        0.359136 
        5.38789         6.07639        0.356438 
        5.40357         6.03001         0.35377 
        5.41929         5.98526        0.351123 
        5.43502         5.95686        0.348503 
         5.4507         5.91516        0.345917 
        5.46639         5.85387        0.343356 
        5.48212         5.81997        0.340814 
        5.49786          5.7902        0.338296 
        5.51353         5.76472        0.335815 
        5.52921          5.7081        0.333357 
        5.54495         5.67949        0.330916 
        5.56066         5.63991        0.328502 
        5.57637         5.60561        0.326112 
        5.59207         5.56339        0.323748 
        5.60778         5.53589        0.321407 
        5.62346         5.49408        0.319092 
        5.63916         5.45382        0.316797 
        5.65487         5.43706        0.314524 
         5.6706         5.39055        0.312271 
        5.68633         5.36082        0.310038 
        5.70203         5.30713        0.307832 
        5.71773         5.27656        0.305648 
        5.73344         5.25283        0.303484 
        5.74916         5.20699        0.301339 
        5.76486         5.18287        0.299217 
        5.78054         5.15102        0.297119 
        5.79626         5.12897        0.295035 
          5.812         5.07739        0.292969 
         5.8277         5.04726        0.290929 
        5.84339         5.02049        0.288908 
        5.85911         4.98342        0.286902 
        5.87484         4.95456        0.284916 
        5.89053         4.92061        0.282952 
        5.90623         4.89487        0.281006 
        5.92195          4.8667        0.279075 
        5.93767         4.83419        0.277163 
        5.95336         4.79288        0.275272 
        5.96905         4.76582          0.2734 
        5.98476         4.73706        0.271542 
        6.00048         4.70581          0.2697 
        6.01617         4.68318        0.267879 
        6.03185         4.66056        0.266076 
        6.04756         4.63852        0.264285 
        6.06331         4.59621        0.262507 
        6.07903         4.56857        0.260749 
        6.09473         4.54201        0.259009 
        6.11044         4.51247        0.257283 
        6.12616         4.47328        0.255573 
        6.14186         4.46054         0.25388 
        6.15755         4.43275        0.252203 
        6.17326         4.39414         0.25054 
        6.18898         4.37599         0.24889 
        6.20467         4.34834        0.247259 
        6.22036         4.31861        0.245642 
         6.2361         4.29625        0.244035 
         6.2518         4.26658        0.242445 
        6.26748         4.24235        0.240873 
        6.28319         4.21549         0.23931 
        6.29893         4.19037         0.23776 
        6.31463         4.17253        0.236226 
        6.33033         4.14653        0.234706 
        6.34604         4.11242        0.233198 
        6.36177         4.09471        0.231702 
        6.37747            4.08        0.230222 
