# k  (h/Mpc)    Pcb(k)  (Mpc/h)^3    Pcb_linear(k) (Mpc/h)^3   ShotnoiseSubtracted = true
      0.0200456         11636.7         11797.6 
      0.0350414         7657.71         7396.55 
      0.0492313         4934.93         4943.75 
      0.0637834         3965.87         4077.07 
      0.0800726         3056.04         3166.75 
       0.096163         2258.56         2142.35 
       0.111083         1779.91         1661.85 
       0.126058         1507.02         1503.28 
       0.142273         1283.51         1260.16 
       0.158546         1017.02          950.47 
        0.17375         873.949          789.73 
       0.188953         812.275         725.753 
       0.204907         687.677         640.045 
       0.220756         606.461         527.047 
        0.23588         533.138         452.956 
         0.2514           475.2         414.351 
       0.267535         457.531         374.906 
       0.283568         395.374         325.711 
       0.299022         373.333         287.368 
       0.314451         371.045         263.063 
       0.330372         317.299         241.324 
       0.346141         292.447         217.363 
       0.361624         276.446         196.166 
       0.377134         255.512         180.255 
       0.392932         246.574         166.685 
       0.408854         233.894         153.006 
       0.424564         223.956         140.349 
       0.440253         201.723         129.819 
       0.455999         190.018         120.789 
       0.471626         188.262         112.362 
        0.48727         178.464         104.423 
       0.502856         162.752         97.3827 
       0.518488         162.261         91.1839 
       0.534347         150.611          85.396 
       0.550082          146.39         80.0403 
       0.565732         144.554         75.1617 
       0.581496         133.557         70.7294 
       0.597222         130.281         66.6675 
       0.612804         125.261           62.93 
       0.628434         122.055         59.4519 
       0.644267         115.368         56.2128 
       0.660051         112.747         53.2379 
       0.675724         110.481         50.4947 
       0.691403         107.856         47.9405 
       0.707174         103.631         45.5469 
       0.722871         101.688         43.3249 
        0.73838         99.8159         41.2738 
       0.754018         93.6867         39.3392 
       0.769845         93.4238          37.507 
        0.78569         90.5967         35.7895 
       0.801365         87.2209         34.1963 
       0.817031         84.8154         32.7014 
       0.832809          83.139         31.2868 
       0.848511         81.1692         29.9625 
       0.864097         79.5906         28.7243 
       0.879701         78.1456         27.5551 
       0.895507         75.4604         26.4375 
       0.911279         73.6061         25.3843 
        0.92691         72.1028         24.3974 
       0.942635         70.1567         23.4576 
       0.958396          70.054         22.5655 
       0.974128         68.4167         21.7215 
       0.989692          66.513          20.929 
        1.00528         65.4134         20.1749 
        1.02113         63.7712         19.4462 
        1.03692         63.5859         18.7562 
        1.05264         62.5966         18.1029 
        1.06832         60.5957         17.4818 
        1.08405         59.7221         16.8881 
        1.09979         59.1135         16.3217 
        1.11537         57.6175         15.7869 
        1.13105         56.5039         15.2729 
        1.14679         55.8865         14.7798 
        1.16256         54.7813         14.3076 
        1.17828         54.3474         13.8575 
        1.19395         53.0506         13.4284 
         1.2097         52.6819         13.0152 
        1.22537         51.4457         12.6215 
          1.241         51.4166         12.2452 
        1.25666         49.5066         11.8834 
        1.27241         49.3912         11.5345 
        1.28819         48.8437          11.199 
        1.30392         47.7762         10.8779 
        1.31957         47.5356         10.5707 
        1.33529         46.7965         10.2744 
        1.35108         46.3365         9.98821 
        1.36674         45.3394         9.71499 
         1.3824         44.7629         9.45225 
        1.39811         43.9546         9.19835 
        1.41389         43.4435         8.95282 
        1.42964         43.0138         8.71666 
        1.44531         42.4218         8.49018 
        1.46101         42.0353         8.27127 
        1.47667         41.4081         8.06073 
        1.49229         40.6705         7.85808 
        1.50793         40.3247         7.66217 
        1.52367         40.1068         7.47168 
        1.53953         39.5044         7.28639 
        1.55526         38.6335         7.10886 
        1.57092         38.5837         6.93797 
        1.58662         38.1075          6.7723 
        1.60235         37.5981         6.61171 
        1.61809         37.0099         6.45625 
        1.63369         36.5171         6.30717 
        1.64941         36.1542         6.16173 
        1.66519         35.6066         6.02035 
        1.68085         35.1932          5.8844 
        1.69652          34.763         5.75262 
        1.71228         34.4936         5.62412 
        1.72806         34.1867         5.49944 
        1.74368         33.5855         5.37979 
        1.75933          33.485         5.26346 
        1.77505         32.9269         5.15002 
        1.79081         32.6982         5.03973 
         1.8065         32.4116         4.93313 
        1.82218         31.6736         4.82971 
        1.83797         31.3613         4.72855 
        1.85367         31.1517         4.63084 
        1.86928         30.9629         4.53647 
        1.88497         30.4719         4.44422 
        1.90073         30.2825         4.35419 
        1.91647         30.0882         4.26674 
        1.93218         29.7587         4.18187 
        1.94787         29.3997         4.09943 
        1.96363         28.9991         4.01889 
        1.97935         28.7154         3.94067 
        1.99499         28.5161         3.86498 
        2.01064         27.9955         3.79116 
         2.0264         27.9625          3.7188 
        2.04216         27.6701         3.64837 
        2.05781          27.402         3.58021 
        2.07353         26.9891         3.51354 
        2.08928         26.9658         3.44842 
        2.10499         26.5982         3.38513 
        2.12065         26.2502         3.32361 
        2.13633           26.16         3.26357 
        2.15211         25.7665         3.20462 
        2.16785         25.4515         3.14729 
        2.18349         25.2552         3.09172 
        2.19916           25.05         3.03737 
        2.21489         24.8781         2.98415 
        2.23063          24.566         2.93217 
         2.2463         24.4175         2.88165 
        2.26194         24.1168         2.83245 
        2.27765         23.8582         2.78415 
        2.29341         23.5905         2.73684 
        2.30914          23.367         2.69074 
        2.32486         23.2419         2.64571 
        2.34061         22.9763         2.60164 
        2.35635         22.7005         2.55862 
        2.37203         22.5888         2.51671 
        2.38768         22.3963         2.47583 
        2.40339         22.1223          2.4357 
        2.41914          22.026         2.39637 
        2.43483         21.7922         2.35805 
         2.4505         21.5693         2.32063 
        2.46622         21.3067         2.28389 
        2.48195         21.1449         2.24794 
        2.49759         20.9324         2.21296 
        2.51328         20.7042         2.17863 
        2.52906         20.5278         2.14481 
        2.54479         20.4654         2.11183 
        2.56049         20.2358          2.0796 
        2.57618         20.0544         2.04808 
        2.59189         19.8573         2.01716 
        2.60758         19.6525         1.98693 
        2.62325         19.4439         1.95735 
        2.63898         19.4189         1.92828 
        2.65468         19.1847         1.89985 
        2.67044         19.0093         1.87187 
        2.68618         18.7665         1.84452 
        2.70184         18.6224         1.81782 
        2.71755         18.4002         1.79159 
        2.73329         18.2874         1.76583 
        2.74897         18.1437         1.74066 
        2.76462          17.996         1.71604 
        2.78034         17.7654         1.69179 
        2.79607         17.6518         1.66798 
        2.81179         17.4967         1.64466 
        2.82749          17.283          1.6218 
        2.84321         17.1953         1.59936 
        2.85893         17.0387         1.57735 
        2.87462         16.8892         1.55578 
        2.89033         16.7151         1.53461 
        2.90605         16.5721          1.5138 
        2.92176         16.3902         1.49339 
        2.93747         16.3267         1.47337 
        2.95318         16.2105         1.45371 
        2.96891         15.9854          1.4344 
        2.98456         15.9047         1.41552 
        3.00023         15.7471         1.39696 
        3.01596         15.5231         1.37867 
        3.03164          15.492         1.36076 
        3.04738         15.3892         1.34311 
         3.0631         15.2427         1.32578 
        3.07883         15.0963         1.30876 
        3.09456         14.9483         1.29204 
        3.11026         14.8473         1.27563 
        3.12596         14.6597         1.25952 
        3.14163         14.5623         1.24371 
        3.15734         14.4988         1.22814 
        3.17308          14.306          1.2128 
        3.18879         14.1855         1.19776 
        3.20447         14.1272           1.183 
         3.2202         13.9557         1.16844 
         3.2359         13.8634         1.15415 
        3.25157         13.7324         1.14014 
        3.26729         13.6677         1.12631 
        3.28304         13.5498         1.11269 
        3.29877         13.4455         1.09931 
        3.31446         13.3335         1.08617 
        3.33014         13.1679         1.07326 
        3.34585         13.1544         1.06055 
        3.36158         13.0132         1.04802 
        3.37727         12.9031         1.03573 
        3.39294         12.8184         1.02364 
        3.40867         12.6787         1.01171 
        3.42439         12.5664        0.999974 
        3.44008         12.4673        0.988446 
        3.45578         12.3868         0.97709 
        3.47153         12.2791        0.965888 
        3.48724         12.1928         0.95488 
        3.50292         12.1082        0.944069 
        3.51859         11.9855        0.933431 
        3.53431         11.9297        0.922923 
        3.55007         11.8179        0.912551 
        3.56577         11.6937        0.902378 
        3.58146          11.603        0.892365 
        3.59719         11.5308         0.88248 
        3.61292         11.4502        0.872748 
        3.62859         11.3076        0.863199 
        3.64429         11.2812        0.853775 
        3.66003         11.1239        0.844462 
        3.67578         11.1009         0.83529 
        3.69146          11.004         0.82629 
        3.70712         10.8632        0.817438 
        3.72284         10.8138        0.808683 
        3.73853         10.7353         0.80007 
        3.75422          10.615         0.79158 
        3.76993         10.5393        0.783206 
        3.78564         10.4764        0.774955 
        3.80137         10.3929         0.76681 
        3.81707          10.282        0.758798 
        3.83279         10.2368        0.750895 
        3.84853         10.1523        0.743091 
        3.86424         10.0519        0.735413 
        3.87992         9.97912        0.727854 
        3.89561         9.89622        0.720401 
        3.91134         9.82091        0.713037 
        3.92704         9.75717        0.705784 
        3.94273         9.69897        0.698639 
        3.95845         9.60513        0.691579 
        3.97418          9.5259        0.684616 
        3.98988         9.45081        0.677757 
        4.00554         9.38203        0.671011 
        4.02125         9.32748        0.664337 
        4.03698         9.22595        0.657744 
        4.05268         9.20706        0.651254 
        4.06839         9.09182        0.644848 
         4.0841            9.04        0.638529 
        4.09983         8.95223        0.632286 
        4.11555         8.90528        0.626128 
        4.13124         8.80206        0.620069 
        4.14693         8.76821        0.614085 
        4.16266         8.67062        0.608166 
        4.17839         8.62463        0.602329 
        4.19408         8.56176        0.596581 
        4.20977         8.46506        0.590905 
        4.22551         8.42652         0.58529 
        4.24123         8.35762        0.579753 
        4.25691         8.28409        0.574303 
        4.27259         8.22188         0.56892 
        4.28831         8.16319        0.563596 
        4.30404           8.104        0.558335 
        4.31974         8.05264        0.553152 
        4.33543         7.98664        0.548038 
        4.35116         7.91646        0.542976 
        4.36688         7.86538        0.537979 
        4.38255         7.79332        0.533064 
        4.39825         7.73179          0.5282 
        4.41398         7.69332        0.523386 
         4.4297         7.62343        0.518638 
        4.44541         7.56477        0.513949 
        4.46111         7.50016        0.509321 
        4.47683         7.45155        0.504747 
        4.49251         7.40472        0.500238 
        4.50819         7.33848        0.495786 
         4.5239         7.28044        0.491381 
        4.53962         7.23358        0.487024 
        4.55535         7.18906        0.482717 
        4.57106         7.14177        0.478469 
        4.58678         7.07604        0.474271 
         4.6025         7.01691        0.470122 
        4.61821         6.96657        0.466023 
        4.63391          6.9098        0.461978 
         4.6496          6.8775        0.457983 
        4.66532          6.8389        0.454029 
        4.68103         6.77927        0.450123 
        4.69673         6.72674        0.446267 
        4.71241          6.6871        0.442459 
        4.72811         6.62296         0.43869 
        4.74384         6.58031         0.43496 
        4.75955         6.54753        0.431278 
        4.77525         6.50185        0.427641 
        4.79096         6.45504        0.424042 
        4.80669         6.41976        0.420482 
         4.8224         6.36483        0.416967 
        4.83809          6.3274        0.413495 
        4.85379          6.2885        0.410061 
         4.8695          6.2409        0.406663 
        4.88521         6.19612        0.403305 
        4.90093         6.15488        0.399985 
        4.91663         6.09979        0.396704 
        4.93234         6.06438        0.393457 
        4.94807         6.02691        0.390244 
        4.96377         5.97829        0.387073 
        4.97943         5.94053        0.383943 
        4.99514         5.88965         0.38084 
        5.01086         5.85579        0.377769 
        5.02654         5.81446        0.374739 
        5.04227         5.76573        0.371734 
          5.058         5.72899         0.36876 
        5.07371         5.69466        0.365824 
        5.08942          5.6529         0.36292 
        5.10513          5.6153        0.360047 
        5.12084         5.56676        0.357204 
        5.13656         5.53597        0.354392 
        5.15225         5.49784        0.351614 
        5.16796         5.46529        0.348862 
        5.18369         5.41941        0.346137 
         5.1994         5.39689        0.343446 
        5.21509         5.35146        0.340786 
        5.23079         5.31327        0.338151 
        5.24649         5.27348        0.335545 
        5.26217         5.24337        0.332969 
        5.27788         5.20933        0.330416 
        5.29359         5.17227         0.32789 
        5.30933         5.13705        0.325386 
        5.32504         5.10384        0.322912 
        5.34073         5.07193        0.320467 
        5.35646         5.03389        0.318042 
        5.37218         5.01615        0.315642 
        5.38789         4.98122         0.31327 
        5.40357         4.93705        0.310925 
        5.41929         4.91134        0.308599 
        5.43502         4.86618        0.306297 
         5.4507         4.84016        0.304023 
        5.46639         4.80469        0.301772 
        5.48212         4.77767        0.299539 
        5.49786         4.74846        0.297325 
        5.51353         4.72264        0.295145 
        5.52921         4.67922        0.292984 
        5.54495         4.66809        0.290839 
        5.56066         4.62896        0.288717 
        5.57637         4.60644        0.286617 
        5.59207         4.56653         0.28454 
        5.60778         4.53512        0.282482 
        5.62346         4.50641        0.280447 
        5.63916         4.49028         0.27843 
        5.65487         4.45528        0.276433 
         5.6706         4.41885        0.274452 
        5.68633         4.39128         0.27249 
        5.70203          4.3762        0.270551 
        5.71773         4.33937        0.268632 
        5.73344         4.31598        0.266729 
        5.74916          4.2858        0.264844 
        5.76486         4.26095        0.262979 
        5.78054         4.23125        0.261135 
        5.79626         4.21334        0.259304 
          5.812         4.18656        0.257488 
         5.8277         4.14931        0.255695 
        5.84339         4.13467        0.253919 
        5.85911         4.10118        0.252156 
        5.87484         4.07773         0.25041 
        5.89053          4.0537        0.248684 
        5.90623         4.02849        0.246974 
        5.92195         4.01243        0.245277 
        5.93767         3.98254        0.243596 
        5.95336         3.96754        0.241934 
        5.96905         3.93758        0.240289 
        5.98476         3.91338        0.238656 
        6.00048         3.88796        0.237037 
        6.01617         3.86466        0.235436 
        6.03185         3.83977        0.233852 
        6.04756         3.81175        0.232278 
        6.06331         3.78939        0.230715 
        6.07903         3.77075         0.22917 
        6.09473         3.75347        0.227641 
        6.11044         3.72276        0.226124 
        6.12616         3.70639        0.224621 
        6.14186         3.68486        0.223133 
        6.15755          3.6605        0.221659 
        6.17326         3.63966        0.220197 
        6.18898         3.61762        0.218747 
        6.20467         3.59911        0.217313 
        6.22036         3.58176        0.215892 
         6.2361         3.55266         0.21448 
         6.2518         3.53415        0.213083 
        6.26748          3.5097        0.211701 
        6.28319         3.48702        0.210327 
        6.29893         3.47254        0.208965 
        6.31463         3.45792        0.207617 
        6.33033         3.43107        0.206281 
        6.34604         3.41123        0.204956 
        6.36177         3.39424        0.203641 
        6.37747         3.37783         0.20234 
