# k  (h/Mpc)    Pcb(k)  (Mpc/h)^3    Pcb_linear(k) (Mpc/h)^3   ShotnoiseSubtracted = true
      0.0200456         6054.01         6143.96 
      0.0350414         3801.16         3851.98 
      0.0492313         2582.38         2574.61 
      0.0637834         2167.74         2123.26 
      0.0800726         1680.14         1649.19 
       0.096163         1111.06          1115.7 
       0.111083         860.558         865.462 
       0.126058         796.101          782.88 
       0.142273         679.283         656.267 
       0.158546         530.255         494.987 
        0.17375         423.901         411.276 
       0.188953         403.899         377.959 
       0.204907         373.504         333.324 
       0.220756         306.425         274.476 
        0.23588         265.012         235.891 
         0.2514         234.577         215.786 
       0.267535         219.989         195.244 
       0.283568         196.271         169.624 
       0.299022         178.712         149.656 
       0.314451         161.649         136.998 
       0.330372         149.753         125.677 
       0.346141         133.671         113.198 
       0.361624         125.942          102.16 
       0.377134         117.628         93.8734 
       0.392932         105.719         86.8062 
       0.408854         101.187         79.6827 
       0.424564         96.1452         73.0911 
       0.440253         89.6152         67.6076 
       0.455999         83.6136         62.9047 
       0.471626         77.6053          58.516 
        0.48727         74.3188         54.3813 
       0.502856         70.6066         50.7151 
       0.518488         67.6921         47.4869 
       0.534347         64.9312         44.4726 
       0.550082         59.3507         41.6835 
       0.565732         56.2256         39.1428 
       0.581496         54.3408         36.8345 
       0.597222         52.3682         34.7192 
       0.612804         49.3133         32.7727 
       0.628434         47.8356         30.9614 
       0.644267         46.2384         29.2746 
       0.660051         44.4604         27.7253 
       0.675724         42.3148         26.2967 
       0.691403         40.9483         24.9665 
       0.707174         39.4864           23.72 
       0.722871         38.1929         22.5628 
        0.73838         37.0042         21.4946 
       0.754018         35.1635         20.4871 
       0.769845         34.2486         19.5329 
        0.78569         33.2625         18.6385 
       0.801365         31.9583         17.8088 
       0.817031         31.1393         17.0303 
       0.832809         30.5512         16.2936 
       0.848511         28.8097         15.6039 
       0.864097         28.2753         14.9591 
       0.879701         27.5779         14.3502 
       0.895507         27.0815         13.7681 
       0.911279         26.1154         13.2197 
        0.92691         25.5653         12.7057 
       0.942635         24.5019         12.2163 
       0.958396         24.2393         11.7517 
       0.974128         23.4654         11.3121 
       0.989692         23.0979         10.8994 
        1.00528         22.5421         10.5067 
        1.02113         21.7299         10.1272 
        1.03692         21.1924          9.7679 
        1.05264         20.9948         9.42766 
        1.06832         20.2338         9.10417 
        1.08405         19.8802         8.79502 
        1.09979         19.4655         8.50005 
        1.11537         18.9659         8.22153 
        1.13105           18.81         7.95385 
        1.14679         18.4588         7.69706 
        1.16256         17.8087         7.45112 
        1.17828         17.5901         7.21675 
        1.19395         17.1747         6.99325 
         1.2097          16.998         6.77809 
        1.22537         16.6697         6.57303 
          1.241         16.2578         6.37708 
        1.25666         15.8462         6.18864 
        1.27241         15.5728         6.00693 
        1.28819          15.218         5.83223 
        1.30392         15.0637         5.66498 
        1.31957         14.8868         5.50505 
        1.33529         14.6655          5.3507 
        1.35108         14.3056         5.20167 
        1.36674         14.0853         5.05939 
         1.3824         13.7651         4.92255 
        1.39811         13.6096         4.79033 
        1.41389         13.4491         4.66246 
        1.42964         13.1588         4.53948 
        1.44531         13.0979         4.42153 
        1.46101         12.7141         4.30752 
        1.47667          12.566         4.19788 
        1.49229          12.405         4.09234 
        1.50793          12.241         3.99032 
        1.52367         12.0384         3.89111 
        1.53953         11.9076         3.79461 
        1.55526         11.6822         3.70216 
        1.57092         11.4521         3.61317 
        1.58662         11.3882         3.52689 
        1.60235         11.1989         3.44326 
        1.61809          11.043          3.3623 
        1.63369         10.8969         3.28466 
        1.64941         10.6919         3.20891 
        1.66519         10.6205         3.13528 
        1.68085         10.4519         3.06449 
        1.69652         10.2942         2.99585 
        1.71228         10.1994         2.92893 
        1.72806         10.0558           2.864 
        1.74368         9.89798         2.80169 
        1.75933         9.80759         2.74111 
        1.77505         9.70193         2.68203 
        1.79081         9.52105          2.6246 
         1.8065         9.47915         2.56908 
        1.82218         9.28602         2.51522 
        1.83797         9.15891         2.46254 
        1.85367         9.07048         2.41165 
        1.86928          9.0085         2.36251 
        1.88497         8.85071         2.31447 
        1.90073         8.83689         2.26758 
        1.91647         8.67956         2.22204 
        1.93218         8.61992         2.17784 
        1.94787         8.51092         2.13491 
        1.96363         8.43354         2.09296 
        1.97935         8.30639         2.05223 
        1.99499         8.16531         2.01281 
        2.01064         8.12223         1.97436 
         2.0264          8.0417         1.93668 
        2.04216          7.9402             1.9 
        2.05781         7.81432          1.8645 
        2.07353         7.77705         1.82979 
        2.08928         7.67846         1.79587 
        2.10499         7.60856         1.76291 
        2.12065         7.50571         1.73087 
        2.13633         7.48154          1.6996 
        2.15211         7.36004          1.6689 
        2.16785         7.31224         1.63905 
        2.18349         7.26251         1.61011 
        2.19916         7.17614         1.58181 
        2.21489         7.09053         1.55409 
        2.23063         7.01019         1.52702 
         2.2463         6.93771         1.50071 
        2.26194         6.86661         1.47509 
        2.27765         6.83822         1.44993 
        2.29341         6.75213          1.4253 
        2.30914         6.65351         1.40128 
        2.32486         6.61649         1.37784 
        2.34061         6.56178         1.35489 
        2.35635         6.48963         1.33248 
        2.37203         6.46771         1.31066 
        2.38768          6.3212         1.28936 
        2.40339         6.30903         1.26847 
        2.41914         6.23348         1.24799 
        2.43483         6.21972         1.22803 
         2.4505         6.14985         1.20854 
        2.46622         6.07766         1.18941 
        2.48195         6.03912         1.17069 
        2.49759         5.97221         1.15247 
        2.51328         5.92312         1.13459 
        2.52906         5.89062         1.11697 
        2.54479         5.82028          1.0998 
        2.56049         5.80353         1.08302 
        2.57618          5.7491          1.0666 
        2.59189         5.66766          1.0505 
        2.60758         5.65054         1.03476 
        2.62325         5.59073         1.01935 
        2.63898         5.51944         1.00421 
        2.65468            5.45        0.989405 
        2.67044         5.43574        0.974834 
        2.68618         5.38501        0.960591 
        2.70184         5.35552        0.946688 
        2.71755         5.30307        0.933025 
        2.73329         5.23951         0.91961 
        2.74897         5.22167        0.906503 
        2.76462         5.19162        0.893679 
        2.78034         5.11333         0.88105 
        2.79607         5.09551        0.868652 
        2.81179         5.04527        0.856506 
        2.82749         5.02576        0.844605 
        2.84321         4.98778        0.832917 
        2.85893         4.94388        0.821453 
        2.87462         4.89613        0.810223 
        2.89033         4.85537        0.799194 
        2.90605          4.8005        0.788359 
        2.92176         4.78171        0.777731 
        2.93747         4.74984        0.767303 
        2.95318         4.71948        0.757064 
        2.96891         4.67737        0.747007 
        2.98456         4.61211        0.737177 
        3.00023         4.59086        0.727509 
        3.01596         4.56111        0.717984 
        3.03164         4.53589        0.708657 
        3.04738         4.50648        0.699467 
         3.0631         4.45297        0.690443 
        3.07883         4.43725        0.681578 
        3.09456          4.3896         0.67287 
        3.11026         4.36696        0.664326 
        3.12596         4.33706        0.655932 
        3.14163         4.29332        0.647702 
        3.15734         4.26943        0.639594 
        3.17308         4.22873        0.631604 
        3.18879         4.20437        0.623773 
        3.20447         4.18616        0.616085 
         3.2202         4.12748        0.608503 
         3.2359         4.11385        0.601062 
        3.25157         4.08408        0.593763 
        3.26729         4.07112        0.586562 
        3.28304         4.02783        0.579467 
        3.29877         4.00126        0.572498 
        3.31446         3.96948        0.565658 
        3.33014         3.94348        0.558936 
        3.34585         3.93019        0.552313 
        3.36158         3.88147        0.545787 
        3.37727         3.87229        0.539387 
        3.39294         3.84592        0.533095 
        3.40867         3.80922         0.52688 
        3.42439         3.78994        0.520768 
        3.44008         3.76037        0.514764 
        3.45578         3.73477         0.50885 
        3.47153         3.70356        0.503016 
        3.48724         3.67749        0.497284 
        3.50292         3.66338        0.491654 
        3.51859         3.63864        0.486113 
        3.53431         3.61299        0.480641 
        3.55007         3.58386        0.475239 
        3.56577         3.56698        0.469942 
        3.58146         3.54796        0.464727 
        3.59719         3.51815        0.459579 
        3.61292         3.50405        0.454511 
        3.62859         3.47755        0.449538 
        3.64429         3.44856         0.44463 
        3.66003         3.41759         0.43978 
        3.67578         3.40786        0.435004 
        3.69146         3.37207        0.430316 
        3.70712         3.36273        0.425706 
        3.72284         3.33601        0.421147 
        3.73853         3.31226        0.416662 
        3.75422         3.29074         0.41224 
        3.76993         3.27712        0.407879 
        3.78564         3.25578        0.403582 
        3.80137         3.23969         0.39934 
        3.81707         3.21471        0.395168 
        3.83279          3.1851        0.391052 
        3.84853         3.17167        0.386988 
        3.86424         3.14713        0.382989 
        3.87992         3.12672        0.379053 
        3.89561         3.11963        0.375171 
        3.91134         3.08299        0.371336 
        3.92704         3.07014        0.367559 
        3.94273         3.05022        0.363838 
        3.95845         3.03152        0.360162 
        3.97418          3.0089        0.356535 
        3.98988         2.99528        0.352963 
        4.00554         2.97623         0.34945 
        4.02125         2.95627        0.345974 
        4.03698         2.93219        0.342541 
        4.05268         2.91201        0.339161 
        4.06839         2.89599        0.335825 
         4.0841         2.87764        0.332534 
        4.09983         2.85566        0.329282 
        4.11555         2.83408        0.326076 
        4.13124         2.81747        0.322921 
        4.14693         2.79832        0.319804 
        4.16266          2.7805        0.316722 
        4.17839         2.75839        0.313682 
        4.19408         2.74042        0.310688 
        4.20977         2.73035        0.307732 
        4.22551         2.70281        0.304808 
        4.24123         2.68819        0.301924 
        4.25691         2.67506        0.299086 
        4.27259         2.66417        0.296283 
        4.28831         2.64226         0.29351 
        4.30404         2.62458         0.29077 
        4.31974         2.60481        0.288071 
        4.33543         2.59415        0.285408 
        4.35116         2.57771        0.282772 
        4.36688         2.55757         0.28017 
        4.38255           2.546         0.27761 
        4.39825         2.52517        0.275077 
        4.41398         2.51789         0.27257 
         4.4297         2.49929        0.270097 
        4.44541         2.49364        0.267655 
        4.46111         2.46818        0.265245 
        4.47683         2.44865        0.262863 
        4.49251         2.44472        0.260515 
        4.50819         2.42526        0.258196 
         4.5239         2.41116        0.255902 
        4.53962         2.40261        0.253633 
        4.55535         2.38185         0.25139 
        4.57106         2.37567        0.249178 
        4.58678         2.35757        0.246991 
         4.6025         2.34599        0.244831 
        4.61821         2.33268        0.242696 
        4.63391         2.31695         0.24059 
         4.6496         2.30513        0.238509 
        4.66532         2.29055         0.23645 
        4.68103         2.27368        0.234416 
        4.69673         2.26427        0.232407 
        4.71241         2.25047        0.230425 
        4.72811         2.24148        0.228462 
        4.74384         2.22644        0.226519 
        4.75955         2.21972        0.224602 
        4.77525         2.20575        0.222708 
        4.79096         2.19192        0.220833 
        4.80669         2.17646        0.218979 
         4.8224         2.16829        0.217148 
        4.83809         2.15801        0.215341 
        4.85379         2.14851        0.213552 
         4.8695         2.13689        0.211783 
        4.88521         2.11767        0.210034 
        4.90093         2.11418        0.208305 
        4.91663         2.09962        0.206596 
        4.93234         2.09019        0.204905 
        4.94807         2.08264        0.203232 
        4.96377         2.06797         0.20158 
        4.97943          2.0573         0.19995 
        4.99514         2.04354        0.198334 
        5.01086         2.03291        0.196735 
        5.02654         2.02235        0.195157 
        5.04227         2.01891        0.193592 
          5.058         2.00563        0.192043 
        5.07371         1.99598        0.190515 
        5.08942         1.98537        0.189002 
        5.10513          1.9753        0.187506 
        5.12084         1.96528        0.186025 
        5.13656         1.95464        0.184561 
        5.15225         1.93962        0.183114 
        5.16796         1.93344        0.181681 
        5.18369         1.92027        0.180262 
         5.1994         1.91864         0.17886 
        5.21509         1.90605        0.177475 
        5.23079         1.89691        0.176103 
        5.24649         1.88963        0.174746 
        5.26217         1.88156        0.173404 
        5.27788         1.87097        0.172075 
        5.29359         1.86202        0.170759 
        5.30933         1.85163        0.169455 
        5.32504         1.83864        0.168167 
        5.34073         1.83289        0.166893 
        5.35646         1.82305         0.16563 
        5.37218         1.81538         0.16438 
        5.38789         1.80829        0.163145 
        5.40357         1.79915        0.161924 
        5.41929          1.7926        0.160713 
        5.43502         1.78625        0.159514 
         5.4507         1.77747         0.15833 
        5.46639         1.76766        0.157157 
        5.48212         1.75982        0.155994 
        5.49786          1.7525        0.154841 
        5.51353         1.74393        0.153706 
        5.52921         1.73445        0.152581 
        5.54495         1.72866        0.151463 
        5.56066         1.72054        0.150359 
        5.57637         1.71193        0.149265 
        5.59207         1.70522        0.148183 
        5.60778         1.70266        0.147111 
        5.62346         1.69023        0.146052 
        5.63916         1.68162        0.145001 
        5.65487         1.67623        0.143961 
         5.6706         1.66803        0.142929 
        5.68633         1.66321        0.141908 
        5.70203         1.65082        0.140898 
        5.71773         1.64525        0.139898 
        5.73344         1.64034        0.138908 
        5.74916         1.62976        0.137926 
        5.76486         1.62619        0.136955 
        5.78054         1.61628        0.135994 
        5.79626         1.61435        0.135041 
          5.812         1.60568        0.134095 
         5.8277         1.59642        0.133161 
        5.84339         1.58913        0.132236 
        5.85911         1.58227        0.131318 
        5.87484         1.57389        0.130409 
        5.89053         1.57185         0.12951 
        5.90623         1.56549        0.128619 
        5.92195         1.55989        0.127736 
        5.93767         1.55271         0.12686 
        5.95336         1.54336        0.125995 
        5.96905         1.53751        0.125138 
        5.98476         1.53092        0.124287 
        6.00048         1.52636        0.123445 
        6.01617         1.51871        0.122611 
        6.03185         1.51333        0.121786 
        6.04756         1.50935        0.120966 
        6.06331         1.50065        0.120152 
        6.07903         1.49859        0.119348 
        6.09473         1.49149        0.118551 
        6.11044         1.48471        0.117761 
        6.12616         1.48024        0.116978 
        6.14186         1.47303        0.116204 
        6.15755         1.46652        0.115436 
        6.17326         1.46315        0.114675 
        6.18898         1.45603         0.11392 
        6.20467         1.44922        0.113173 
        6.22036         1.44454        0.112433 
         6.2361         1.43876        0.111697 
         6.2518          1.4338        0.110969 
        6.26748         1.42783         0.11025 
        6.28319         1.42255        0.109535 
        6.29893         1.41856        0.108825 
        6.31463         1.41137        0.108123 
        6.33033         1.40723        0.107427 
        6.34604         1.39974        0.106737 
        6.36177         1.39557        0.106053 
        6.37747         1.39142        0.105375 
