# k  (h/Mpc)    Pcb(k)  (Mpc/h)^3    Pcb_linear(k) (Mpc/h)^3   ShotnoiseSubtracted = true
      0.0200456           24299         24902.8 
      0.0350414         17207.8         18103.5 
      0.0492313         12834.9         13153.6 
      0.0637834         11142.9         10934.5 
      0.0800726         8785.76         8678.44 
       0.096163          6083.4         6296.97 
       0.111083         4907.75         5022.62 
       0.126058         4512.86         4451.07 
       0.142273         3910.09         3771.03 
       0.158546         3456.37         2978.32 
        0.17375         2770.78         2509.24 
       0.188953         2713.92         2272.06 
       0.204907         2549.18         2010.31 
       0.220756         2216.74         1700.84 
        0.23588         1990.21         1479.58 
         0.2514         1736.83         1344.19 
       0.267535         1741.14         1216.26 
       0.283568         1579.32         1072.58 
       0.299022         1498.49          955.61 
       0.314451         1427.88         873.363 
       0.330372         1307.55         801.213 
       0.346141         1267.97         727.222 
       0.361624         1218.63         660.946 
       0.377134         1137.68         608.174 
       0.392932         1089.05         562.732 
       0.408854         1073.43          518.73 
       0.424564         989.315         478.121 
       0.440253         970.733         443.273 
       0.455999         945.531         412.972 
       0.471626         911.749         385.126 
        0.48727         874.666         359.077 
       0.502856         847.488         335.676 
       0.518488         842.586         314.796 
       0.534347         791.052         295.385 
       0.550082         775.638         277.488 
       0.565732         768.318         261.114 
       0.581496         729.168         246.117 
       0.597222         712.926         232.364 
       0.612804         702.748         219.717 
       0.628434         683.704         207.929 
       0.644267         666.167         196.909 
       0.660051         649.591         186.752 
       0.675724         641.684         177.373 
       0.691403         621.681          168.63 
       0.707174         601.537         160.427 
       0.722871          592.57         152.803 
        0.73838         581.518         145.756 
       0.754018         571.069         139.099 
       0.769845         561.542         132.787 
        0.78569         551.118          126.86 
       0.801365         536.817         121.355 
       0.817031         524.964         116.181 
       0.832809         519.281         111.277 
       0.848511         508.183          106.68 
       0.864097         492.092         102.375 
       0.879701         485.484         98.3054 
       0.895507         483.939         94.4096 
       0.911279          471.55          90.734 
        0.92691         464.785         87.2854 
       0.942635         452.333         83.9978 
       0.958396         441.488         80.8734 
       0.974128         436.189         77.9142 
       0.989692         433.779          75.133 
        1.00528           420.1          72.484 
        1.02113         417.981         69.9217 
        1.03692          407.29         67.4933 
        1.05264         403.161         65.1919 
        1.06832         392.571         63.0018 
        1.08405         387.869         60.9068 
        1.09979         382.076         58.9063 
        1.11537         375.064         57.0158 
        1.13105         369.402         55.1973 
        1.14679          359.05         53.4515 
        1.16256         352.081          51.778 
        1.17828          351.82         50.1819 
        1.19395         343.749         48.6588 
         1.2097         336.094         47.1913 
        1.22537         330.301         45.7917 
          1.241          325.74         44.4532 
        1.25666         321.921         43.1651 
        1.27241           316.4         41.9222 
        1.28819          310.65         40.7263 
        1.30392           304.7         39.5807 
        1.31957         302.065         38.4844 
        1.33529         298.075         37.4257 
        1.35108         291.476         36.4028 
        1.36674         286.326         35.4255 
         1.3824         283.973         34.4851 
        1.39811         278.932         33.5759 
        1.41389         275.854          32.696 
        1.42964         272.177         31.8492 
        1.44531         268.605         31.0367 
        1.46101         262.714         30.2508 
        1.47667         259.662         29.4946 
        1.49229         256.673         28.7663 
        1.50793          250.26         28.0619 
        1.52367         249.064         27.3765 
        1.53953         244.485         26.7095 
        1.55526         240.945         26.0701 
        1.57092         238.405         25.4544 
        1.58662         235.695         24.8571 
        1.60235         231.478         24.2779 
        1.61809         228.413         23.7168 
        1.63369         225.966         23.1785 
        1.64941         221.547         22.6532 
        1.66519          219.58         22.1422 
        1.68085         216.729         21.6507 
        1.69652         213.489          21.174 
        1.71228         208.083         20.7089 
        1.72806         205.916         20.2575 
        1.74368         202.953         19.8241 
        1.75933         200.311         19.4025 
        1.77505           198.5         18.9913 
        1.79081         195.981         18.5912 
         1.8065          191.81         18.2045 
        1.82218         189.862          17.829 
        1.83797         188.794         17.4617 
        1.85367         185.466         17.1067 
        1.86928         182.169         16.7637 
        1.88497         180.155         16.4283 
        1.90073         177.689         16.1008 
        1.91647         176.599         15.7826 
        1.93218         173.522         15.4736 
        1.94787          169.75         15.1734 
        1.96363         167.871           14.88 
        1.97935         166.232          14.595 
        1.99499         164.266          14.319 
        2.01064         161.954         14.0498 
         2.0264         160.684         13.7858 
        2.04216           158.3         13.5288 
        2.05781         155.969         13.2799 
        2.07353         154.482         13.0365 
        2.08928         151.609         12.7986 
        2.10499          150.47         12.5672 
        2.12065         148.137         12.3423 
        2.13633         145.877         12.1227 
        2.15211             144         11.9071 
        2.16785         142.759         11.6973 
        2.18349         141.157         11.4939 
        2.19916         139.124         11.2949 
        2.21489         137.831         11.0999 
        2.23063         135.618         10.9094 
         2.2463         133.837         10.7243 
        2.26194          131.78         10.5439 
        2.27765         130.626         10.3668 
        2.29341         129.179         10.1932 
        2.30914         127.767          10.024 
        2.32486         125.826         9.85874 
        2.34061         124.369         9.69693 
        2.35635         122.756         9.53889 
        2.37203         121.616         9.38493 
        2.38768          119.66         9.23469 
        2.40339         118.482         9.08719 
        2.41914          117.01         8.94258 
        2.43483         115.595         8.80162 
         2.4505         114.395         8.66394 
        2.46622         112.969         8.52874 
        2.48195         111.162         8.39642 
        2.49759         110.086         8.26761 
        2.51328         109.184         8.14116 
        2.52906         107.652         8.01657 
        2.54479         106.494         7.89505 
        2.56049         104.808         7.77628 
        2.57618          104.11         7.66006 
        2.59189         103.163         7.54605 
        2.60758         101.866         7.43453 
        2.62325         100.248          7.3254 
        2.63898         99.0971         7.21809 
        2.65468         97.9685         7.11315 
        2.67044         97.1705         7.00985 
        2.68618         96.2231         6.90884 
        2.70184         95.2752         6.81023 
        2.71755         93.7038         6.71329 
        2.73329         92.9167         6.61809 
        2.74897         91.9369         6.52506 
        2.76462         90.9155         6.43401 
        2.78034         89.7674         6.34433 
        2.79607         88.5636         6.25626 
        2.81179         87.8803         6.16997 
        2.82749         86.9318          6.0854 
        2.84321         85.7789         6.00232 
        2.85893         84.9521         5.92082 
        2.87462         84.0645         5.84097 
        2.89033          83.017         5.76252 
        2.90605         82.1512         5.68545 
        2.92176          81.126         5.60982 
        2.93747         80.3877         5.53561 
        2.95318         79.5113         5.46272 
        2.96891         78.8524         5.39112 
        2.98456         77.8426         5.32111 
        3.00023         77.0344         5.25225 
        3.01596         75.9517         5.18439 
        3.03164         75.3551         5.11793 
        3.04738         74.2952         5.05243 
         3.0631         73.5792          4.9881 
        3.07883         72.9341         4.92489 
        3.09456         72.4567         4.86279 
        3.11026         71.4753         4.80185 
        3.12596         70.5829         4.74197 
        3.14163         70.1766         4.68324 
        3.15734         69.1495         4.62537 
        3.17308         68.4321         4.56834 
        3.18879         67.8851         4.51243 
        3.20447         67.0128         4.45753 
         3.2202         66.4895         4.40338 
         3.2359         65.6278         4.35022 
        3.25157         65.1801         4.29807 
        3.26729         64.4606         4.24661 
        3.28304         63.9515         4.19589 
        3.29877          63.163         4.14607 
        3.31446         62.2991         4.09717 
        3.33014         61.7596          4.0491 
        3.34585         61.0602         4.00173 
        3.36158         60.6175         3.95504 
        3.37727         60.1202         3.90924 
        3.39294         59.1857         3.86422 
        3.40867         58.8059         3.81974 
        3.42439         58.2931         3.77598 
        3.44008         57.5735         3.73299 
        3.45578         57.0054         3.69064 
        3.47153         56.4361         3.64886 
        3.48724         56.0628         3.60779 
        3.50292         55.5746         3.56745 
        3.51859         54.8595         3.52775 
        3.53431         54.4892         3.48853 
        3.55007         53.9855         3.44981 
        3.56577         53.5659         3.41183 
        3.58146         52.9643         3.37444 
        3.59719         52.3459         3.33752 
        3.61292         51.8605         3.30116 
        3.62859          51.264         3.26549 
        3.64429          50.897         3.23027 
        3.66003          50.494         3.19547 
        3.67578         49.9384         3.16119 
        3.69146         49.4098         3.12754 
        3.70712         48.9369         3.09444 
        3.72284          48.565          3.0617 
        3.73853         48.0424         3.02949 
        3.75422         47.5178         2.99773 
        3.76993         47.0323          2.9664 
        3.78564         46.7101         2.93553 
        3.80137         46.2729         2.90504 
        3.81707         45.7274         2.87506 
        3.83279         45.3907         2.84547 
        3.84853          45.078         2.81625 
        3.86424         44.6357          2.7875 
        3.87992         44.1105         2.75919 
        3.89561         43.8352         2.73128 
        3.91134          43.436         2.70369 
        3.92704         42.8939         2.67652 
        3.94273         42.5096         2.64974 
        3.95845         42.2175         2.62329 
        3.97418         41.8494         2.59719 
        3.98988         41.4107         2.57147 
        4.00554         41.1334         2.54618 
        4.02125         40.6676         2.52116 
        4.03698         40.2864         2.49643 
        4.05268         39.9366         2.47209 
        4.06839         39.5162         2.44805 
         4.0841          39.249         2.42435 
        4.09983         38.9985         2.40092 
        4.11555         38.5267         2.37781 
        4.13124         38.2048         2.35507 
        4.14693         37.9646         2.33261 
        4.16266         37.6207         2.31039 
        4.17839         37.2546         2.28847 
        4.19408         36.8091         2.26689 
        4.20977         36.5981         2.24557 
        4.22551         36.2866         2.22448 
        4.24123         35.9871         2.20368 
        4.25691           35.64          2.1832 
        4.27259         35.2929         2.16298 
        4.28831         35.0822         2.14297 
        4.30404         34.7635         2.12319 
        4.31974         34.4557         2.10371 
        4.33543         34.1045         2.08448 
        4.35116         33.9379         2.06545 
        4.36688         33.5456         2.04666 
        4.38255         33.2357         2.02818 
        4.39825         32.9963         2.00988 
        4.41398         32.7415         1.99177 
         4.4297         32.4354         1.97391 
        4.44541         32.2067         1.95626 
        4.46111         31.8946         1.93885 
        4.47683         31.6075         1.92163 
        4.49251         31.3772         1.90466 
        4.50819         31.1304          1.8879 
         4.5239          30.921         1.87132 
        4.53962         30.6269         1.85491 
        4.55535         30.3434          1.8387 
        4.57106         30.0807          1.8227 
        4.58678         29.8591         1.80688 
         4.6025          29.559         1.79125 
        4.61821         29.3803         1.77581 
        4.63391         29.1164         1.76057 
         4.6496         28.9056         1.74552 
        4.66532         28.6787         1.73062 
        4.68103         28.4554         1.71589 
        4.69673         28.1865         1.70136 
        4.71241         28.0114           1.687 
        4.72811         27.8031         1.67279 
        4.74384         27.5872         1.65872 
        4.75955         27.2645         1.64484 
        4.77525         27.1435         1.63112 
        4.79096         26.8929         1.61755 
        4.80669         26.6712         1.60412 
         4.8224         26.4287         1.59085 
        4.83809          26.279         1.57776 
        4.85379           26.11          1.5648 
         4.8695         25.8228         1.55197 
        4.88521         25.6322          1.5393 
        4.90093         25.4247         1.52676 
        4.91663         25.1952         1.51438 
        4.93234          24.962         1.50212 
        4.94807         24.8735         1.48999 
        4.96377         24.6848         1.47801 
        4.97943         24.4536         1.46619 
        4.99514         24.2435         1.45447 
        5.01086         24.0978         1.44287 
        5.02654         23.8663         1.43142 
        5.04227         23.6874         1.42007 
          5.058         23.5799         1.40883 
        5.07371          23.318         1.39774 
        5.08942         23.1076         1.38676 
        5.10513         22.9732          1.3759 
        5.12084         22.8522         1.36515 
        5.13656          22.677         1.35452 
        5.15225         22.4591         1.34402 
        5.16796          22.267         1.33362 
        5.18369         22.1228         1.32331 
         5.1994          21.929         1.31313 
        5.21509         21.7975         1.30307 
        5.23079         21.5954          1.2931 
        5.24649         21.5005         1.28325 
        5.26217         21.3036          1.2735 
        5.27788         21.1572         1.26384 
        5.29359         21.0021         1.25428 
        5.30933         20.7921          1.2448 
        5.32504         20.6431         1.23544 
        5.34073         20.5598         1.22619 
        5.35646         20.3908         1.21701 
        5.37218         20.2235         1.20792 
        5.38789         20.0844         1.19894 
        5.40357         19.9553         1.19006 
        5.41929         19.7306         1.18125 
        5.43502         19.6856         1.17253 
         5.4507         19.4972         1.16392 
        5.46639          19.365         1.15539 
        5.48212         19.2369         1.14693 
        5.49786          19.073         1.13855 
        5.51353          18.914         1.13029 
        5.52921         18.7718          1.1221 
        5.54495         18.6605         1.11397 
        5.56066         18.5236         1.10593 
        5.57637         18.3798         1.09797 
        5.59207         18.2474         1.09009 
        5.60778         18.0918         1.08229 
        5.62346         17.9875         1.07458 
        5.63916          17.857         1.06693 
        5.65487         17.7647         1.05936 
         5.6706         17.6123         1.05185 
        5.68633         17.4807          1.0444 
        5.70203         17.3367         1.03705 
        5.71773         17.2571         1.02977 
        5.73344         17.1505         1.02255 
        5.74916         16.9717          1.0154 
        5.76486         16.8805         1.00832 
        5.78054         16.7919         1.00133 
        5.79626         16.6436        0.994378 
          5.812          16.541        0.987487 
         5.8277         16.3985        0.980681 
        5.84339         16.3217        0.973939 
        5.85911         16.2127        0.967248 
        5.87484         16.0539        0.960621 
        5.89053         15.9374        0.954069 
        5.90623         15.8296        0.947574 
        5.92195         15.7309         0.94113 
        5.93767         15.6279        0.934748 
        5.95336          15.532        0.928436 
        5.96905         15.3995        0.922185 
        5.98476         15.3024        0.915983 
        6.00048         15.1983        0.909835 
        6.01617          15.086        0.903752 
        6.03185         15.0018        0.897732 
        6.04756         14.8538        0.891752 
        6.06331         14.7773        0.885815 
        6.07903         14.6956        0.879943 
        6.09473         14.5848         0.87413 
        6.11044         14.4578        0.868365 
        6.12616         14.3618        0.862652 
        6.14186         14.2709        0.856996 
        6.15755         14.1874        0.851392 
        6.17326         14.0952        0.845833 
        6.18898         13.9988        0.840321 
        6.20467         13.9046        0.834868 
        6.22036         13.8021        0.829464 
         6.2361         13.6963        0.824093 
         6.2518         13.6312        0.818778 
        6.26748         13.5305        0.813522 
        6.28319         13.4184        0.808297 
        6.29893         13.3496        0.803114 
        6.31463         13.2383        0.797985 
        6.33033         13.1922        0.792902 
        6.34604         13.0857         0.78786 
        6.36177         12.9961        0.782857 
        6.37747         12.9089        0.777907 
