# k  (h/Mpc)    Pcb(k)  (Mpc/h)^3    Pcb_linear(k) (Mpc/h)^3   ShotnoiseSubtracted = true
      0.0200456         22505.7         23048.2 
      0.0350414         15965.5         16755.3 
      0.0492313         11903.1         12174.1 
      0.0637834         10315.4         10120.2 
      0.0800726         8136.92         8032.15 
       0.096163         5637.87         5828.03 
       0.111083         4537.88         4648.58 
       0.126058         4176.64         4119.59 
       0.142273         3617.59          3490.2 
       0.158546         3177.63         2756.53 
        0.17375         2543.74         2322.37 
       0.188953         2489.11         2102.85 
       0.204907         2338.55          1860.6 
       0.220756         2029.46         1574.18 
        0.23588         1816.73          1369.4 
         0.2514         1582.78         1244.08 
       0.267535         1584.48         1125.68 
       0.283568          1436.8         992.701 
       0.299022          1360.6         884.445 
       0.314451         1296.86         808.323 
       0.330372         1189.15         741.546 
       0.346141         1143.09         673.066 
       0.361624         1098.52         611.725 
       0.377134         1023.69         562.883 
       0.392932         981.717         520.825 
       0.408854         964.822           480.1 
       0.424564         891.206         442.515 
       0.440253          875.19         410.262 
       0.455999          846.55         382.218 
       0.471626         815.852         356.445 
        0.48727         782.168         332.336 
       0.502856         759.652         310.678 
       0.518488         752.788         291.353 
       0.534347         706.077         273.388 
       0.550082         689.498         256.823 
       0.565732         685.341         241.668 
       0.581496         648.151         227.789 
       0.597222         635.076         215.059 
       0.612804         624.066         203.355 
       0.628434         606.594         192.445 
       0.644267         590.813         182.245 
       0.660051         573.933         172.844 
       0.675724          567.91         164.164 
       0.691403         549.197         156.072 
       0.707174         531.325          148.48 
       0.722871         524.675         141.424 
        0.73838         514.793         134.901 
       0.754018         504.035         128.741 
       0.769845         495.065         122.898 
        0.78569         485.755         117.413 
       0.801365         473.518         112.317 
       0.817031         461.032         107.529 
       0.832809         457.035          102.99 
       0.848511         447.031         98.7355 
       0.864097         433.385         94.7515 
       0.879701         427.692         90.9845 
       0.895507         425.356         87.3788 
       0.911279          413.19         83.9769 
        0.92691         407.381         80.7852 
       0.942635         397.128         77.7424 
       0.958396         387.198         74.8507 
       0.974128         381.706         72.1119 
       0.989692         379.339         69.5378 
        1.00528         368.425         67.0861 
        1.02113         366.736         64.7146 
        1.03692         356.022          62.467 
        1.05264         353.747          60.337 
        1.06832         343.914           58.31 
        1.08405         339.643         56.3711 
        1.09979         333.994         54.5195 
        1.11537          327.63         52.7698 
        1.13105         322.379         51.0868 
        1.14679         314.166         49.4709 
        1.16256         308.265          47.922 
        1.17828          307.69         46.4448 
        1.19395         299.906         45.0351 
         1.2097         295.306         43.6769 
        1.22537         289.256         42.3815 
          1.241         286.607         41.1428 
        1.25666         281.771         39.9506 
        1.27241         277.579         38.8002 
        1.28819         273.111         37.6934 
        1.30392         266.967         36.6331 
        1.31957         266.247         35.6184 
        1.33529         261.085         34.6386 
        1.35108         255.446         33.6918 
        1.36674         251.554         32.7873 
         1.3824         250.131          31.917 
        1.39811         245.708         31.0754 
        1.41389         242.854         30.2611 
        1.42964         240.029         29.4774 
        1.44531         236.227         28.7254 
        1.46101         232.034          27.998 
        1.47667         229.287         27.2981 
        1.49229         226.794         26.6241 
        1.50793         221.067         25.9721 
        1.52367         219.854         25.3378 
        1.53953         216.371         24.7205 
        1.55526          211.97         24.1287 
        1.57092         210.429         23.5588 
        1.58662         207.946          23.006 
        1.60235         204.154         22.4699 
        1.61809         202.092         21.9506 
        1.63369         199.152         21.4524 
        1.64941         195.183         20.9662 
        1.66519         193.792         20.4933 
        1.68085         190.951         20.0383 
        1.69652         188.098         19.5971 
        1.71228         183.871         19.1667 
        1.72806         182.253         18.7489 
        1.74368         179.533         18.3478 
        1.75933         176.564         17.9576 
        1.77505         175.456          17.577 
        1.79081         173.495         17.2067 
         1.8065          170.19         16.8488 
        1.82218         168.482         16.5013 
        1.83797         166.876         16.1613 
        1.85367         164.052         15.8327 
        1.86928         161.285         15.5153 
        1.88497         159.384         15.2049 
        1.90073         157.726         14.9018 
        1.91647         156.127         14.6072 
        1.93218         154.082         14.3213 
        1.94787         150.675         14.0435 
        1.96363         148.734         13.7719 
        1.97935         148.038         13.5081 
        1.99499         145.414         13.2527 
        2.01064         143.786         13.0035 
         2.0264         142.261         12.7592 
        2.04216         140.283         12.5213 
        2.05781         138.682          12.291 
        2.07353         137.184         12.0656 
        2.08928         134.749         11.8454 
        2.10499         133.551         11.6313 
        2.12065         131.168         11.4232 
        2.13633         130.039           11.22 
        2.15211         127.707         11.0204 
        2.16785         126.487         10.8262 
        2.18349         125.354         10.6379 
        2.19916         123.548         10.4537 
        2.21489         122.372         10.2733 
        2.23063         120.101          10.097 
         2.2463         118.897         9.92565 
        2.26194          117.01          9.7587 
        2.27765          116.01         9.59474 
        2.29341         114.548         9.43412 
        2.30914         113.523         9.27751 
        2.32486         111.702         9.12455 
        2.34061         110.508         8.97479 
        2.35635         109.177         8.82852 
        2.37203         107.946         8.68603 
        2.38768         106.403         8.54697 
        2.40339         105.344         8.41046 
        2.41914         103.865         8.27662 
        2.43483         102.815         8.14616 
         2.4505         101.746         8.01873 
        2.46622         100.587          7.8936 
        2.48195         99.1313         7.77113 
        2.49759         97.8367         7.65191 
        2.51328         97.3393         7.53488 
        2.52906         95.7914         7.41957 
        2.54479         94.8641          7.3071 
        2.56049         93.6862         7.19718 
        2.57618         92.6369         7.08961 
        2.59189         91.6551         6.98409 
        2.60758         90.5465         6.88088 
        2.62325         89.3521         6.77988 
        2.63898         88.2306         6.68055 
        2.65468         87.2813         6.58343 
        2.67044         86.6136         6.48782 
        2.68618         85.4997         6.39433 
        2.70184         84.9997         6.30306 
        2.71755         83.5132         6.21335 
        2.73329         82.8789         6.12524 
        2.74897         81.9641         6.03913 
        2.76462         80.7604         5.95487 
        2.78034          80.202         5.87186 
        2.79607          78.778         5.79035 
        2.81179         78.0567         5.71049 
        2.82749         77.2581         5.63221 
        2.84321          76.573         5.55532 
        2.85893         75.7262         5.47989 
        2.87462         74.7941         5.40599 
        2.89033         73.8329         5.33338 
        2.90605         73.0671         5.26205 
        2.92176         72.2012         5.19205 
        2.93747         71.7854         5.12337 
        2.95318         70.6875         5.05591 
        2.96891         70.2599         4.98964 
        2.98456         69.5102         4.92485 
        3.00023         68.5905         4.86111 
        3.01596         67.8062         4.79831 
        3.03164         67.0922         4.73679 
        3.04738         66.3247         4.67617 
         3.0631         65.6217         4.61664 
        3.07883         65.1901         4.55813 
        3.09456         64.5385         4.50065 
        3.11026         63.6582         4.44426 
        3.12596         62.9364         4.38883 
        3.14163         62.4916         4.33447 
        3.15734         61.5998         4.28091 
        3.17308         60.9395         4.22813 
        3.18879         60.5322         4.17638 
        3.20447         59.7237         4.12557 
         3.2202         59.3249         4.07545 
         3.2359         58.5111         4.02625 
        3.25157          57.938         3.97799 
        3.26729          57.516         3.93036 
        3.28304         57.0885         3.88342 
        3.29877         56.3809         3.83731 
        3.31446         55.4572         3.79205 
        3.33014         55.2771         3.74756 
        3.34585         54.4541         3.70372 
        3.36158         54.0845         3.66051 
        3.37727         53.6002         3.61812 
        3.39294         52.8938         3.57645 
        3.40867         52.4414         3.53528 
        3.42439         52.0084         3.49478 
        3.44008         51.4253         3.45499 
        3.45578         50.8415          3.4158 
        3.47153         50.3714         3.37712 
        3.48724            49.9         3.33912 
        3.50292         49.5855         3.30178 
        3.51859         48.9412         3.26504 
        3.53431         48.6399         3.22874 
        3.55007         48.0206          3.1929 
        3.56577         47.7127         3.15775 
        3.58146         47.1325         3.12314 
        3.59719         46.6621         3.08897 
        3.61292         46.2131         3.05532 
        3.62859          45.764          3.0223 
        3.64429         45.3151         2.98971 
        3.66003         45.0054          2.9575 
        3.67578         44.4511         2.92577 
        3.69146         44.1121         2.89463 
        3.70712         43.5698         2.86399 
        3.72284         43.1978         2.83369 
        3.73853         42.8084         2.80388 
        3.75422         42.2845         2.77449 
        3.76993         41.9298         2.74549 
        3.78564         41.5506         2.71691 
        3.80137         41.1837          2.6887 
        3.81707          40.788         2.66095 
        3.83279         40.4156         2.63357 
        3.84853         40.1424         2.60652 
        3.86424         39.6633         2.57991 
        3.87992          39.393         2.55371 
        3.89561         39.0478         2.52788 
        3.91134         38.5702         2.50235 
        3.92704         38.2673         2.47719 
        3.94273         37.9301         2.45241 
        3.95845         37.7555         2.42793 
        3.97418         37.3425         2.40377 
        3.98988         37.0175         2.37997 
        4.00554         36.6336         2.35657 
        4.02125         36.4167          2.3334 
        4.03698         35.9997         2.31052 
        4.05268          35.754         2.28799 
        4.06839         35.3977         2.26575 
         4.0841         35.0345          2.2438 
        4.09983         34.7585         2.22212 
        4.11555           34.47         2.20074 
        4.13124         34.2159         2.17969 
        4.14693         33.8756          2.1589 
        4.16266         33.5973         2.13833 
        4.17839         33.2192         2.11805 
        4.19408         32.9457         2.09807 
        4.20977         32.6514         2.07834 
        4.22551         32.3505         2.05882 
        4.24123         32.1431         2.03957 
        4.25691          31.861         2.02062 
        4.27259         31.5602          2.0019 
        4.28831         31.2737         1.98338 
        4.30404         31.0657         1.96508 
        4.31974         30.7436         1.94704 
        4.33543         30.4267         1.92925 
        4.35116         30.2778         1.91163 
        4.36688         30.0096         1.89424 
        4.38255         29.7283         1.87714 
        4.39825         29.4934          1.8602 
        4.41398         29.3132         1.84344 
         4.4297          28.928         1.82691 
        4.44541         28.7614         1.81058 
        4.46111         28.4715         1.79446 
        4.47683         28.2637         1.77853 
        4.49251         27.9647         1.76282 
        4.50819         27.8311         1.74731 
         4.5239         27.6002         1.73196 
        4.53962         27.3558         1.71678 
        4.55535         27.1858         1.70177 
        4.57106         26.8774         1.68696 
        4.58678         26.7308         1.67232 
         4.6025          26.383         1.65786 
        4.61821         26.2607         1.64357 
        4.63391         26.0219         1.62946 
         4.6496         25.8033         1.61553 
        4.66532         25.5999         1.60173 
        4.68103         25.3922         1.58811 
        4.69673         25.1869         1.57466 
        4.71241         25.0689         1.56137 
        4.72811         24.7493         1.54822 
        4.74384         24.6283          1.5352 
        4.75955         24.4095         1.52235 
        4.77525         24.1704         1.50965 
        4.79096         24.0486         1.49709 
        4.80669         23.8035         1.48466 
         4.8224         23.6684         1.47238 
        4.83809         23.4855         1.46026 
        4.85379         23.2335         1.44827 
         4.8695         23.0753          1.4364 
        4.88521         22.8687         1.42467 
        4.90093         22.6711         1.41307 
        4.91663         22.5096          1.4016 
        4.93234          22.371         1.39026 
        4.94807         22.1732         1.37903 
        4.96377         21.9945         1.36794 
        4.97943         21.8096           1.357 
        4.99514         21.6874         1.34616 
        5.01086         21.5311         1.33542 
        5.02654         21.3192         1.32483 
        5.04227         21.2037         1.31432 
          5.058         21.0393         1.30392 
        5.07371         20.8624         1.29365 
        5.08942         20.6285         1.28349 
        5.10513         20.5544         1.27344 
        5.12084          20.392         1.26349 
        5.13656         20.2192         1.25365 
        5.15225         20.0461         1.24393 
        5.16796         19.9193          1.2343 
        5.18369          19.728         1.22476 
         5.1994         19.6238         1.21534 
        5.21509         19.4411         1.20603 
        5.23079         19.3371         1.19681 
        5.24649         19.1787         1.18768 
        5.26217         19.0681         1.17866 
        5.27788         18.9075         1.16972 
        5.29359         18.7478         1.16087 
        5.30933         18.5519          1.1521 
        5.32504         18.4635         1.14344 
        5.34073          18.328         1.13487 
        5.35646         18.1805         1.12638 
        5.37218         18.0412         1.11796 
        5.38789           17.93         1.10965 
        5.40357         17.7892         1.10144 
        5.41929         17.6449         1.09328 
        5.43502         17.5396         1.08521 
         5.4507         17.4004         1.07724 
        5.46639         17.2589         1.06935 
        5.48212         17.1728         1.06152 
        5.49786         16.9863         1.05376 
        5.51353         16.8822         1.04611 
        5.52921         16.7786         1.03854 
        5.54495         16.6545         1.03101 
        5.56066          16.532         1.02357 
        5.57637         16.3898          1.0162 
        5.59207         16.2745         1.00891 
        5.60778         16.1326         1.00169 
        5.62346         16.0653        0.994553 
        5.63916         15.9588        0.987477 
        5.65487         15.8225        0.980465 
         5.6706         15.7234        0.973514 
        5.68633         15.6052        0.966627 
        5.70203         15.4818        0.959821 
        5.71773         15.3896        0.953081 
        5.73344         15.2512        0.946403 
        5.74916         15.1701        0.939782 
        5.76486         15.0809        0.933234 
        5.78054         14.9598        0.926758 
        5.79626         14.8418        0.920326 
          5.812         14.7653        0.913948 
         5.8277         14.6422        0.907649 
        5.84339         14.5287        0.901409 
        5.85911         14.4355        0.895216 
        5.87484         14.3156        0.889082 
        5.89053         14.2293        0.883018 
        5.90623         14.1444        0.877008 
        5.92195         14.0372        0.871043 
        5.93767         13.9281        0.865137 
        5.95336         13.8269        0.859295 
        5.96905         13.7509        0.853509 
        5.98476         13.6502        0.847769 
        6.00048         13.5371        0.842079 
        6.01617         13.4658        0.836449 
        6.03185         13.3614        0.830877 
        6.04756         13.2518        0.825343 
        6.06331          13.186        0.819847 
        6.07903         13.0954        0.814413 
        6.09473         12.9882        0.809033 
        6.11044         12.9121        0.803697 
        6.12616         12.8186         0.79841 
        6.14186         12.7163        0.793175 
        6.15755         12.6239        0.787988 
        6.17326         12.5668        0.782843 
        6.18898         12.4906        0.777742 
        6.20467         12.3992        0.772695 
        6.22036         12.3082        0.767693 
         6.2361         12.2221        0.762722 
         6.2518         12.1367        0.757803 
        6.26748         12.0679        0.752938 
        6.28319         11.9851        0.748103 
        6.29893         11.8941        0.743306 
        6.31463         11.8177        0.738558 
        6.33033         11.7369        0.733854 
        6.34604         11.6831        0.729188 
        6.36177         11.5801        0.724557 
        6.37747         11.5165        0.719976 
