# k  (h/Mpc)    Pcb(k)  (Mpc/h)^3    Pcb_linear(k) (Mpc/h)^3   ShotnoiseSubtracted = true
      0.0200456         1289.93         1306.49 
      0.0350414         961.955         949.774 
      0.0492313         692.176         690.088 
      0.0637834         567.424         573.664 
      0.0800726         449.145         455.303 
       0.096163         335.843         330.362 
       0.111083         269.593         263.505 
       0.126058         232.294         233.519 
       0.142273         196.417         197.842 
       0.158546         157.787         156.254 
        0.17375         134.647         131.644 
       0.188953         120.992           119.2 
       0.204907         104.134         105.468 
       0.220756         90.7207         89.2323 
        0.23588         79.1338         77.6244 
         0.2514         71.7518         70.5209 
       0.267535         65.7373         63.8094 
       0.283568         57.8353         56.2713 
       0.299022         52.2208         50.1348 
       0.314451         48.8063         45.8198 
       0.330372         43.9558         42.0345 
       0.346141         40.0484         38.1527 
       0.361624         36.5172         34.6756 
       0.377134         33.4365          31.907 
       0.392932         32.0931          29.523 
       0.408854         29.0571         27.2145 
       0.424564         27.6087          25.084 
       0.440253         25.2032         23.2557 
       0.455999          23.066          21.666 
       0.471626         21.6839         20.2051 
        0.48727         20.8954         18.8385 
       0.502856         19.5576         17.6108 
       0.518488         18.0721         16.5154 
       0.534347         16.9279          15.497 
       0.550082         16.2325          14.558 
       0.565732         15.5284          13.699 
       0.581496         14.6038         12.9122 
       0.597222          13.747         12.1906 
       0.612804         12.9828         11.5272 
       0.628434         12.5932         10.9087 
       0.644267         11.9416         10.3305 
       0.660051         11.3027         9.79767 
       0.675724         10.6953         9.30562 
       0.691403         10.3568         8.84694 
       0.707174         9.86244          8.4166 
       0.722871          9.5933          8.0166 
        0.73838          8.9874         7.64686 
       0.754018         8.56931         7.29766 
       0.769845         8.19564         6.96647 
        0.78569         7.98004         6.65555 
       0.801365         7.62433         6.36671 
       0.817031          7.3656         6.09527 
       0.832809         7.01358         5.83801 
       0.848511         6.81498         5.59683 
       0.864097         6.56361         5.37099 
       0.879701         6.39998         5.15746 
       0.895507         6.13542         4.95307 
       0.911279          5.8994         4.76023 
        0.92691         5.73197         4.57931 
       0.942635         5.50918         4.40683 
       0.958396         5.32724         4.24291 
       0.974128         5.19092         4.08766 
       0.989692         4.94927         3.94175 
        1.00528         4.86312         3.80278 
        1.02113         4.70885         3.66835 
        1.03692         4.58589         3.54095 
        1.05264         4.40965          3.4202 
        1.06832         4.29788          3.3053 
        1.08405         4.17635         3.19539 
        1.09979         4.07158         3.09044 
        1.11537         3.95257         2.99126 
        1.13105         3.82765         2.89585 
        1.14679         3.73184         2.80426 
        1.16256         3.61389         2.71646 
        1.17828         3.56389         2.63273 
        1.19395         3.43272         2.55282 
         1.2097         3.33618         2.47583 
        1.22537         3.23398          2.4024 
          1.241         3.16776         2.33218 
        1.25666         3.12603          2.2646 
        1.27241         3.05207         2.19939 
        1.28819         2.92983         2.13665 
        1.30392         2.86303         2.07655 
        1.31957         2.82068         2.01903 
        1.33529         2.71791         1.96349 
        1.35108         2.66752         1.90982 
        1.36674         2.59845         1.85855 
         1.3824         2.56681         1.80922 
        1.39811         2.49537         1.76151 
        1.41389         2.43354         1.71535 
        1.42964         2.38519         1.67093 
        1.44531         2.34334          1.6283 
        1.46101         2.28997         1.58707 
        1.47667         2.24466         1.54739 
        1.49229         2.16981         1.50919 
        1.50793         2.11842         1.47223 
        1.52367         2.08264         1.43627 
        1.53953         2.03221         1.40128 
        1.55526         2.03057         1.36773 
        1.57092         1.97629         1.33543 
        1.58662         1.95428         1.30409 
        1.60235         1.88869          1.2737 
        1.61809         1.85914         1.24427 
        1.63369         1.81815         1.21603 
        1.64941         1.78799         1.18847 
        1.66519         1.76241         1.16166 
        1.68085         1.71837         1.13587 
        1.69652         1.68886         1.11086 
        1.71228         1.65451         1.08646 
        1.72806          1.6308         1.06278 
        1.74368         1.60081         1.04004 
        1.75933         1.57681         1.01793 
        1.77505         1.54765        0.996351 
        1.79081         1.51093        0.975364 
         1.8065         1.49389        0.955072 
        1.82218         1.45911        0.935376 
        1.83797         1.43468        0.916102 
        1.85367         1.41264        0.897478 
        1.86928         1.38968        0.879485 
        1.88497          1.3618        0.861887 
        1.90073         1.35113        0.844708 
        1.91647         1.31692        0.828012 
        1.93218         1.30041        0.811804 
        1.94787          1.2798        0.796054 
        1.96363         1.26215         0.78066 
        1.97935         1.23838        0.765706 
        1.99499         1.21967        0.751228 
        2.01064         1.20199        0.737105 
         2.0264          1.1784        0.723256 
        2.04216         1.16622         0.70977 
        2.05781         1.14295        0.696714 
        2.07353         1.13322         0.68394 
        2.08928         1.11216        0.671459 
        2.10499         1.09463        0.659323 
        2.12065         1.07808        0.647524 
        2.13633         1.06432        0.636003 
        2.15211          1.0428         0.62469 
        2.16785         1.03328        0.613683 
        2.18349         1.01518         0.60301 
        2.19916         1.00551         0.59257 
        2.21489        0.990888        0.582342 
        2.23063        0.970634        0.572349 
         2.2463        0.957985        0.562635 
        2.26194        0.948435        0.553172 
        2.27765        0.931897        0.543878 
        2.29341        0.921099        0.534773 
        2.30914        0.903939        0.525896 
        2.32486        0.896922        0.517225 
        2.34061        0.883756        0.508736 
        2.35635         0.87142        0.500445 
        2.37203        0.859532        0.492368 
        2.38768        0.849243        0.484485 
        2.40339        0.840904        0.476747 
        2.41914        0.830007         0.46916 
        2.43483        0.818692        0.461765 
         2.4505        0.806579        0.454542 
        2.46622        0.796472        0.447449 
        2.48195        0.786913        0.440506 
        2.49759        0.776499        0.433749 
        2.51328        0.765166        0.427115 
        2.52906        0.758783        0.420578 
        2.54479        0.746876        0.414203 
        2.56049        0.739621        0.407972 
        2.57618        0.730236        0.401875 
        2.59189        0.721829        0.395893 
        2.60758        0.713284        0.390043 
        2.62325         0.70377        0.384317 
        2.63898        0.697743        0.378687 
        2.65468        0.685382        0.373182 
        2.67044        0.681034        0.367762 
        2.68618        0.675134        0.362463 
        2.70184        0.664124        0.357289 
        2.71755        0.658041        0.352204 
        2.73329        0.650468        0.347209 
        2.74897        0.642036        0.342328 
        2.76462         0.63421        0.337552 
        2.78034        0.628991        0.332847 
        2.79607        0.622331        0.328226 
        2.81179        0.613836        0.323699 
        2.82749        0.607723        0.319262 
        2.84321        0.600364        0.314904 
        2.85893        0.592982        0.310628 
        2.87462        0.587193        0.306439 
        2.89033        0.584337        0.302323 
        2.90605         0.57802        0.298279 
        2.92176        0.571086        0.294312 
        2.93747        0.565324        0.290418 
        2.95318        0.558856        0.286594 
        2.96891        0.555868        0.282838 
        2.98456         0.54547        0.279165 
        3.00023        0.542162        0.275552 
        3.01596        0.537069        0.271992 
        3.03164        0.532017        0.268505 
        3.04738        0.526221        0.265069 
         3.0631        0.519491        0.261694 
        3.07883        0.515914        0.258378 
        3.09456        0.512035         0.25512 
        3.11026        0.506284        0.251923 
        3.12596        0.500874        0.248781 
        3.14163        0.498942          0.2457 
        3.15734        0.492978        0.242664 
        3.17308        0.487669        0.239672 
        3.18879        0.484879        0.236738 
        3.20447        0.479465        0.233858 
         3.2202        0.473026        0.231017 
         3.2359        0.469778        0.228228 
        3.25157        0.463643        0.225492 
        3.26729        0.462608        0.222793 
        3.28304        0.458423        0.220132 
        3.29877        0.453901        0.217518 
        3.31446        0.451893        0.214953 
        3.33014        0.445078        0.212431 
        3.34585        0.442169        0.209945 
        3.36158        0.438508        0.207496 
        3.37727         0.43563        0.205093 
        3.39294        0.432832        0.202731 
        3.40867        0.427405        0.200397 
        3.42439        0.424492        0.198102 
        3.44008        0.420691        0.195846 
        3.45578        0.417233        0.193625 
        3.47153        0.415164        0.191432 
        3.48724        0.411168        0.189278 
        3.50292        0.407489        0.187162 
        3.51859        0.405378        0.185079 
        3.53431        0.401268        0.183021 
        3.55007        0.398725         0.18099 
        3.56577        0.395367        0.178997 
        3.58146        0.392456        0.177035 
        3.59719        0.389395        0.175098 
        3.61292        0.386054        0.173191 
        3.62859        0.383637        0.171319 
        3.64429        0.380242        0.169472 
        3.66003         0.37715        0.167646 
        3.67578        0.375178        0.165847 
        3.69146        0.371827        0.164082 
        3.70712        0.370369        0.162346 
        3.72284        0.367713        0.160628 
        3.73853        0.364714        0.158938 
        3.75422        0.361602        0.157272 
        3.76993        0.358796        0.155628 
        3.78564        0.355745        0.154008 
        3.80137        0.353797        0.152409 
        3.81707        0.351306        0.150836 
        3.83279         0.34893        0.149284 
        3.84853        0.345608        0.147751 
        3.86424         0.34429        0.146242 
        3.87992        0.341866        0.144757 
        3.89561        0.339222        0.143293 
        3.91134        0.336201        0.141845 
        3.92704        0.333666         0.14042 
        3.94273        0.332242        0.139015 
        3.95845         0.32992        0.137627 
        3.97418         0.32823        0.136258 
        3.98988        0.324971        0.134909 
        4.00554        0.321577        0.133582 
        4.02125        0.319685        0.132269 
        4.03698        0.316375        0.130972 
        4.05268        0.312404        0.129695 
        4.06839         0.31076        0.128434 
         4.0841        0.306964         0.12719 
        4.09983        0.305269        0.125961 
        4.11555        0.301661        0.124749 
        4.13124        0.299556        0.123556 
        4.14693        0.296939        0.122377 
        4.16266        0.293065        0.121211 
        4.17839        0.290927        0.120062 
        4.19408        0.288946        0.118929 
        4.20977        0.286656        0.117811 
        4.22551         0.28432        0.116704 
        4.24123        0.281786        0.115613 
        4.25691        0.280057        0.114539 
        4.27259        0.277412        0.113478 
        4.28831        0.275826        0.112428 
        4.30404        0.273569         0.11139 
        4.31974        0.271815        0.110368 
        4.33543        0.269503        0.109359 
        4.35116        0.268395        0.108361 
        4.36688        0.266433        0.107375 
        4.38255        0.263933        0.106405 
        4.39825        0.262809        0.105446 
        4.41398        0.261231        0.104496 
         4.4297        0.259585        0.103558 
        4.44541        0.257895        0.102633 
        4.46111        0.256896        0.101719 
        4.47683        0.255816        0.100816 
        4.49251        0.254009       0.0999256 
        4.50819        0.253455       0.0990462 
         4.5239        0.251992       0.0981762 
        4.53962        0.250298       0.0973155 
        4.55535        0.249364       0.0964647 
        4.57106        0.248618       0.0956253 
        4.58678        0.246775       0.0947957 
         4.6025        0.246581       0.0939757 
        4.61821        0.245827       0.0931656 
        4.63391        0.245259        0.092366 
         4.6496        0.243849       0.0915762 
        4.66532        0.243306       0.0907944 
        4.68103        0.241944        0.090022 
        4.69673        0.241523       0.0892593 
        4.71241        0.241029       0.0885063 
        4.72811        0.241269       0.0877607 
        4.74384        0.239963       0.0870227 
        4.75955        0.239467       0.0862943 
        4.77525          0.2391       0.0855747 
        4.79096        0.238814       0.0848623 
        4.80669        0.238383       0.0841578 
         4.8224        0.238085        0.083462 
        4.83809        0.237562       0.0827749 
        4.85379          0.2374        0.082095 
         4.8695        0.238147       0.0814222 
        4.88521        0.237453       0.0807573 
        4.90093        0.237492       0.0800996 
        4.91663        0.237245       0.0794499 
        4.93234        0.236799       0.0788067 
        4.94807        0.237336       0.0781702 
        4.96377        0.237511       0.0775418 
        4.97943        0.237703       0.0769218 
        4.99514        0.237044       0.0763069 
        5.01086        0.238597       0.0756982 
        5.02654        0.238375       0.0750977 
        5.04227        0.238532        0.074502 
          5.058        0.239471       0.0739124 
        5.07371        0.239258       0.0733304 
        5.08942        0.240545       0.0727546 
        5.10513        0.240935       0.0721849 
        5.12084        0.241115        0.071621 
        5.13656        0.241561       0.0710632 
        5.15225        0.242449       0.0705123 
        5.16796        0.243222       0.0699664 
        5.18369        0.243456       0.0694257 
         5.1994        0.245127       0.0688918 
        5.21509         0.24504       0.0683639 
        5.23079        0.245772       0.0678409 
        5.24649        0.247061       0.0673238 
        5.26217        0.247906       0.0668125 
        5.27788        0.248922       0.0663057 
        5.29359        0.250229       0.0658041 
        5.30933        0.251139        0.065307 
        5.32504        0.252033       0.0648158 
        5.34073        0.254126       0.0643302 
        5.35646        0.254822       0.0638486 
        5.37218         0.25585       0.0633719 
        5.38789        0.255962       0.0629007 
        5.40357        0.258276       0.0624349 
        5.41929        0.259411       0.0619728 
        5.43502        0.261141       0.0615153 
         5.4507        0.262509       0.0610635 
        5.46639        0.263745       0.0606162 
        5.48212        0.264762       0.0601723 
        5.49786        0.266243       0.0597324 
        5.51353        0.269061        0.059299 
        5.52921        0.269107       0.0588694 
        5.54495        0.271868       0.0584429 
        5.56066         0.27278        0.058021 
        5.57637         0.27443       0.0576034 
        5.59207        0.276779       0.0571902 
        5.60778        0.277617        0.056781 
        5.62346        0.280465       0.0563763 
        5.63916        0.281573       0.0559751 
        5.65487         0.28329       0.0555777 
         5.6706        0.284375       0.0551836 
        5.68633        0.287503       0.0547933 
        5.70203        0.290608       0.0544074 
        5.71773        0.290525       0.0540254 
        5.73344        0.293318       0.0536469 
        5.74916         0.29654       0.0532716 
        5.76486        0.297837       0.0529004 
        5.78054        0.299161       0.0525333 
        5.79626        0.301023       0.0521687 
          5.812        0.304107       0.0518071 
         5.8277        0.306144       0.0514501 
        5.84339         0.30748       0.0510964 
        5.85911        0.311062       0.0507453 
        5.87484        0.312346       0.0503977 
        5.89053        0.315247       0.0500539 
        5.90623        0.316553       0.0497132 
        5.92195        0.318692       0.0493751 
        5.93767         0.32077       0.0490403 
        5.95336        0.322938       0.0487091 
        5.96905        0.325456       0.0483812 
        5.98476        0.328076       0.0480558 
        6.00048         0.32943       0.0477332 
        6.01617        0.333508       0.0474141 
        6.03185        0.334333       0.0470983 
        6.04756        0.336362       0.0467846 
        6.06331        0.339093       0.0464731 
        6.07903        0.341991        0.046165 
        6.09473        0.343685       0.0458601 
        6.11044        0.345572       0.0455576 
        6.12616        0.348843       0.0452579 
        6.14186        0.350147       0.0449612 
        6.15755        0.355022       0.0446671 
        6.17326        0.355872       0.0443755 
        6.18898        0.357337       0.0440863 
        6.20467        0.359336       0.0438002 
        6.22036        0.362735       0.0435167 
         6.2361        0.363741       0.0432349 
         6.2518        0.367708       0.0429561 
        6.26748        0.368954       0.0426803 
        6.28319        0.372769       0.0424062 
        6.29893         0.37447       0.0421343 
        6.31463        0.376457       0.0418652 
        6.33033        0.379057       0.0415985 
        6.34604        0.381722        0.041334 
        6.36177        0.383115       0.0410715 
        6.37747        0.385238       0.0408118 
