# k  (h/Mpc)    Pcb(k)  (Mpc/h)^3    Pcb_linear(k) (Mpc/h)^3   ShotnoiseSubtracted = true
      0.0200456         6977.87         7098.19 
      0.0350414         5047.83         5160.15 
      0.0492313         3735.81         3749.26 
      0.0637834         3171.93         3116.73 
      0.0800726         2512.79         2473.67 
       0.096163         1767.94         1794.86 
       0.111083         1403.07         1431.63 
       0.126058         1286.33         1268.72 
       0.142273         1108.08         1074.88 
       0.158546         907.253          848.93 
        0.17375         733.678         715.223 
       0.188953         698.313         647.618 
       0.204907         652.916          573.01 
       0.220756         548.891         484.801 
        0.23588         480.592         421.735 
         0.2514         423.245         383.142 
       0.267535         403.371         346.678 
       0.283568         364.977         305.723 
       0.299022         336.683         272.384 
       0.314451         309.626          248.94 
       0.330372         286.767         228.375 
       0.346141         258.194         207.285 
       0.361624         246.011         188.393 
       0.377134         230.679         173.352 
       0.392932         212.146         160.399 
       0.408854         203.458         147.857 
       0.424564         194.935         136.282 
       0.440253         183.871         126.349 
       0.455999         173.036         117.712 
       0.471626         159.994         109.775 
        0.48727         155.367          102.35 
       0.502856         148.847         95.6798 
       0.518488         145.011         89.7283 
       0.534347          138.28         84.1955 
       0.550082         128.146          79.094 
       0.565732         123.695         74.4269 
       0.581496         118.614         70.1523 
       0.597222         114.838         66.2321 
       0.612804         109.418         62.6273 
       0.628434         106.994         59.2674 
       0.644267         103.343         56.1261 
       0.660051         100.924          53.231 
       0.675724         97.4956         50.5577 
       0.691403          94.545         48.0657 
       0.707174         91.0371         45.7276 
       0.722871         89.2868         43.5544 
        0.73838         87.4078         41.5456 
       0.754018          83.194         39.6484 
       0.769845         81.5967          37.849 
        0.78569         79.5691         36.1598 
       0.801365         77.0234         34.5905 
       0.817031         74.5509         33.1158 
       0.832809         73.6986         31.7181 
       0.848511         70.6649         30.4077 
       0.864097         68.9102         29.1807 
       0.879701         68.0216         28.0206 
       0.895507         66.7751         26.9101 
       0.911279         65.4526         25.8625 
        0.92691         63.7726         24.8795 
       0.942635         61.7422         23.9424 
       0.958396         61.5073         23.0518 
       0.974128         59.9026         22.2084 
       0.989692         58.6683         21.4156 
        1.00528         57.4934         20.6606 
        1.02113         56.1186         19.9302 
        1.03692         54.7592          19.238 
        1.05264         54.4101          18.582 
        1.06832         52.9686         17.9578 
        1.08405         52.3417         17.3607 
        1.09979         51.6592         16.7904 
        1.11537         49.7083         16.2516 
        1.13105         50.0771         15.7332 
        1.14679         49.0132         15.2356 
        1.16256         48.0761         14.7586 
        1.17828         46.9177         14.3037 
        1.19395         46.4274         13.8695 
         1.2097          45.626         13.4512 
        1.22537          45.386         13.0523 
          1.241         44.2071         12.6708 
        1.25666         43.3139         12.3036 
        1.27241         43.0017         11.9494 
        1.28819          41.893         11.6085 
        1.30392         41.3586         11.2819 
        1.31957         41.0842         10.9694 
        1.33529         40.5968         10.6677 
        1.35108         40.0567         10.3761 
        1.36674         39.3527         10.0976 
         1.3824         38.4172         9.82951 
        1.39811          38.335         9.57034 
        1.41389         37.7372         9.31954 
        1.42964          37.086         9.07819 
        1.44531         36.7258         8.84658 
        1.46101         35.8821         8.62258 
        1.47667         35.8063         8.40703 
        1.49229          35.447         8.19944 
        1.50793         34.7934         7.99865 
        1.52367          34.438          7.8033 
        1.53953         34.1924         7.61318 
        1.55526         33.5042         7.43094 
        1.57092         33.1695         7.25542 
        1.58662         32.7329         7.08517 
        1.60235         32.4105         6.92007 
        1.61809         31.9147         6.76016 
        1.63369          31.534         6.60673 
        1.64941         31.0418         6.45697 
        1.66519         30.7996         6.31133 
        1.68085         30.4612         6.17123 
        1.69652         30.1079         6.03535 
        1.71228         29.8794         5.90279 
        1.72806         29.3758         5.77412 
        1.74368         28.9906         5.65059 
        1.75933         28.6787         5.53042 
        1.77505         28.5464          5.4132 
        1.79081         28.0541         5.29918 
         1.8065         27.8002         5.18893 
        1.82218         27.5602         5.08192 
        1.83797         27.1681          4.9772 
        1.85367         26.8353         4.87602 
        1.86928          26.609         4.77826 
        1.88497         26.1893         4.68266 
        1.90073         26.1873         4.58932 
        1.91647         25.7404         4.49861 
        1.93218         25.5389         4.41055 
        1.94787         25.2737         4.32498 
        1.96363         25.0966         4.24135 
        1.97935         24.7936          4.1601 
        1.99499         24.4982         4.08144 
        2.01064         24.3438         4.00471 
         2.0264         23.8965         3.92947 
        2.04216         23.7029          3.8562 
        2.05781         23.4759         3.78526 
        2.07353         23.2548         3.71586 
        2.08928         23.2066         3.64805 
        2.10499         22.9095         3.58212 
        2.12065         22.5054         3.51801 
        2.13633         22.4492         3.45542 
        2.15211         22.0194         3.39395 
        2.16785         21.9402         3.33415 
        2.18349         21.7403         3.27617 
        2.19916         21.5307         3.21945 
        2.21489         21.2734         3.16388 
        2.23063         21.1209         3.10959 
         2.2463         20.9533         3.05681 
        2.26194         20.8069          3.0054 
        2.27765         20.4831          2.9549 
        2.29341         20.2453         2.90544 
        2.30914         20.1654         2.85721 
        2.32486         19.9858          2.8101 
        2.34061         19.7757         2.76398 
        2.35635         19.4924         2.71893 
        2.37203         19.3915         2.67505 
        2.38768         19.2199         2.63222 
        2.40339         19.0394         2.59018 
        2.41914         18.8471         2.54896 
        2.43483          18.662         2.50878 
         2.4505         18.4594         2.46954 
        2.46622         18.2997           2.431 
        2.48195         18.1236         2.39328 
        2.49759         17.9403         2.35657 
        2.51328          17.796         2.32053 
        2.52906         17.6863         2.28501 
        2.54479          17.488         2.25037 
        2.56049         17.3225         2.21652 
        2.57618         17.1969          2.1834 
        2.59189         17.0715          2.1509 
        2.60758         16.9155         2.11911 
        2.62325         16.7778         2.08801 
        2.63898         16.6205         2.05742 
        2.65468         16.4984         2.02751 
        2.67044         16.3046         1.99806 
        2.68618          16.196         1.96927 
        2.70184         16.0613         1.94116 
        2.71755         15.8688         1.91353 
        2.73329         15.7652          1.8864 
        2.74897         15.5777         1.85988 
        2.76462         15.6152         1.83393 
        2.78034         15.3549         1.80836 
        2.79607          15.214         1.78326 
        2.81179         15.1035         1.75866 
        2.82749         14.9786         1.73456 
        2.84321         14.8358         1.71088 
        2.85893         14.7214         1.68765 
        2.87462         14.5864         1.66489 
        2.89033         14.4215         1.64253 
        2.90605         14.3586         1.62056 
        2.92176         14.1858           1.599 
        2.93747         14.1204         1.57785 
        2.95318         13.9465         1.55707 
        2.96891         13.8213         1.53666 
        2.98456         13.7475         1.51671 
        3.00023         13.6281         1.49708 
        3.01596          13.524         1.47774 
        3.03164         13.4048         1.45879 
        3.04738          13.257         1.44013 
         3.0631         13.1751         1.42179 
        3.07883         13.0251         1.40377 
        3.09456         12.9554         1.38607 
        3.11026         12.7953          1.3687 
        3.12596         12.7338         1.35163 
        3.14163         12.6354         1.33489 
        3.15734          12.505          1.3184 
        3.17308         12.4069         1.30214 
        3.18879         12.3539          1.2862 
        3.20447         12.2048         1.27056 
         3.2202         12.1009         1.25512 
         3.2359         12.0527         1.23997 
        3.25157         11.9442          1.2251 
        3.26729         11.8044         1.21044 
        3.28304         11.7189         1.19598 
        3.29877         11.6129         1.18178 
        3.31446         11.5405         1.16784 
        3.33014         11.4282         1.15414 
        3.34585         11.3688         1.14064 
        3.36158         11.3027         1.12733 
        3.37727         11.1667         1.11428 
        3.39294         11.0868         1.10144 
        3.40867         10.9742         1.08876 
        3.42439         10.8936         1.07629 
        3.44008         10.8276         1.06404 
        3.45578         10.7407         1.05197 
        3.47153         10.6839         1.04006 
        3.48724         10.5843         1.02835 
        3.50292          10.475         1.01685 
        3.51859         10.4325         1.00554 
        3.53431         10.3322        0.994358 
        3.55007         10.2558        0.983321 
        3.56577         10.1849        0.972495 
        3.58146         10.1147        0.961837 
        3.59719         10.0048        0.951313 
        3.61292         9.92638        0.940951 
        3.62859         9.83243        0.930782 
        3.64429          9.8041        0.920744 
        3.66003         9.68535        0.910823 
        3.67578         9.60075        0.901052 
        3.69146         9.56147        0.891462 
        3.70712         9.48561        0.882028 
        3.72284         9.41568        0.872695 
        3.73853          9.3295        0.863514 
        3.75422         9.28972        0.854461 
        3.76993         9.19794        0.845531 
        3.78564         9.11152        0.836731 
        3.80137         9.06366        0.828043 
        3.81707         8.96696        0.819496 
        3.83279         8.92354        0.811062 
        3.84853          8.8378        0.802734 
        3.86424         8.76736        0.794539 
        3.87992         8.68217         0.78647 
        3.89561         8.65035        0.778513 
        3.91134         8.58786         0.77065 
        3.92704         8.50938        0.762904 
        3.94273         8.46025        0.755273 
        3.95845          8.4021        0.747732 
        3.97418         8.29876        0.740292 
        3.98988         8.25573        0.732964 
        4.00554         8.19379        0.725754 
        4.02125         8.13735        0.718621 
        4.03698         8.08302        0.711573 
        4.05268         8.02521        0.704635 
        4.06839         7.93866        0.697784 
         4.0841         7.89711        0.691027 
        4.09983          7.8494         0.68435 
        4.11555         7.78641        0.677763 
        4.13124         7.72663        0.671281 
        4.14693         7.65271        0.664879 
        4.16266         7.59937        0.658545 
        4.17839         7.55437        0.652297 
        4.19408         7.48762        0.646145 
        4.20977         7.43567        0.640069 
        4.22551         7.37202        0.634057 
        4.24123         7.31591        0.628128 
        4.25691         7.25135        0.622291 
        4.27259         7.21223        0.616526 
        4.28831         7.15272        0.610823 
        4.30404         7.11026        0.605187 
        4.31974         7.04799        0.599633 
        4.33543         6.99951        0.594153 
        4.35116         6.94474        0.588728 
        4.36688          6.8898        0.583372 
        4.38255         6.83926        0.578104 
        4.39825         6.77297        0.572888 
        4.41398         6.75093        0.567727 
         4.4297         6.70693        0.562635 
        4.44541         6.63529        0.557606 
        4.46111         6.61762        0.552642 
        4.47683         6.54115        0.547736 
        4.49251         6.52303        0.542898 
        4.50819         6.45432        0.538121 
         4.5239         6.40623        0.533394 
        4.53962         6.38138        0.528717 
        4.55535         6.31393        0.524095 
        4.57106         6.27058        0.519535 
        4.58678         6.22692        0.515027 
         4.6025         6.18089        0.510572 
        4.61821         6.12934        0.506171 
        4.63391         6.10028        0.501827 
         4.6496         6.04351        0.497536 
        4.66532         6.02917        0.493288 
        4.68103         5.94734        0.489092 
        4.69673         5.93711        0.484948 
        4.71241         5.88354        0.480857 
        4.72811         5.83228        0.476806 
        4.74384         5.79441        0.472796 
        4.75955         5.75027        0.468839 
        4.77525         5.72636        0.464929 
        4.79096         5.67763        0.461059 
        4.80669         5.65025        0.457231 
         4.8224         5.61319        0.453451 
        4.83809         5.56009        0.449718 
        4.85379         5.50566        0.446024 
         4.8695         5.49142        0.442369 
        4.88521          5.4518        0.438756 
        4.90093         5.39308        0.435183 
        4.91663         5.37691        0.431653 
        4.93234         5.34444        0.428159 
        4.94807         5.29349          0.4247 
        4.96377         5.25406        0.421287 
        4.97943         5.21435        0.417918 
        4.99514         5.17574        0.414577 
        5.01086         5.14935         0.41127 
        5.02654          5.1259        0.408008 
        5.04227          5.0801        0.404771 
          5.058          5.0463        0.401568 
        5.07371         5.01514        0.398406 
        5.08942         4.97951        0.395278 
        5.10513         4.95388        0.392182 
        5.12084         4.92556        0.389119 
        5.13656         4.88873        0.386088 
        5.15225         4.85786        0.383095 
        5.16796         4.82547        0.380129 
        5.18369         4.78061        0.377192 
         5.1994         4.75687        0.374291 
        5.21509         4.71858        0.371423 
        5.23079         4.69711        0.368581 
        5.24649         4.66298        0.365772 
        5.26217         4.62905        0.362994 
        5.27788         4.59644        0.360241 
        5.29359         4.56142        0.357515 
        5.30933         4.54227        0.354814 
        5.32504         4.50906        0.352146 
        5.34073         4.47395        0.349508 
        5.35646         4.44558        0.346891 
        5.37218         4.41395        0.344301 
        5.38789         4.38873        0.341741 
        5.40357         4.35883        0.339211 
        5.41929         4.32957          0.3367 
        5.43502          4.3152        0.334214 
         5.4507         4.27675         0.33176 
        5.46639         4.24871        0.329329 
        5.48212          4.2256        0.326918 
        5.49786          4.1969        0.324527 
        5.51353         4.16842        0.322173 
        5.52921         4.14262        0.319839 
        5.54495         4.11614        0.317522 
        5.56066         4.09409         0.31523 
        5.57637         4.06562        0.312961 
        5.59207         4.03757        0.310716 
        5.60778         4.01503        0.308492 
        5.62346         3.98426        0.306294 
        5.63916         3.96656        0.304114 
        5.65487         3.93449        0.301955 
         5.6706         3.91333        0.299814 
        5.68633         3.89015        0.297693 
        5.70203         3.86326        0.295597 
        5.71773         3.84366        0.293522 
        5.73344         3.82055        0.291465 
        5.74916         3.79541        0.289426 
        5.76486         3.77563        0.287409 
        5.78054         3.75129        0.285415 
        5.79626         3.72464        0.283434 
          5.812         3.70667         0.28147 
         5.8277         3.68481         0.27953 
        5.84339         3.65628        0.277608 
        5.85911         3.64138        0.275701 
        5.87484         3.61618        0.273812 
        5.89053         3.59819        0.271944 
        5.90623         3.57034        0.270093 
        5.92195         3.54982        0.268256 
        5.93767         3.53498        0.266437 
        5.95336         3.51575        0.264638 
        5.96905         3.48659        0.262856 
        5.98476         3.46684        0.261088 
        6.00048         3.44191        0.259336 
        6.01617         3.42571        0.257602 
        6.03185         3.40001        0.255886 
        6.04756          3.3936        0.254182 
        6.06331         3.36008        0.252489 
        6.07903         3.34578        0.250816 
        6.09473         3.32789        0.249159 
        6.11044         3.30558        0.247515 
        6.12616         3.29159        0.245887 
        6.14186         3.27273        0.244275 
        6.15755         3.24775        0.242678 
        6.17326         3.23335        0.241093 
        6.18898         3.21024        0.239522 
        6.20467         3.19434        0.237968 
        6.22036         3.17044        0.236427 
         6.2361         3.15409        0.234896 
         6.2518         3.14091        0.233381 
        6.26748         3.12065        0.231883 
        6.28319         3.09934        0.230394 
        6.29893         3.08528        0.228917 
        6.31463         3.06793        0.227455 
        6.33033          3.0585        0.226006 
        6.34604         3.03194        0.224569 
        6.36177         3.01336        0.223143 
        6.37747         2.99572        0.221732 
