# k  (h/Mpc)    Pcb(k)  (Mpc/h)^3    Pcb_linear(k) (Mpc/h)^3   ShotnoiseSubtracted = true
      0.0200456         11792.9         12022.5 
      0.0350414         8469.55         8739.96 
      0.0492313          6289.6         6350.29 
      0.0637834         5382.32         5278.94 
      0.0800726         4258.19         4189.76 
       0.096163         2973.92         3040.04 
       0.111083         2367.05         2424.81 
       0.126058         2181.07         2148.88 
       0.142273         1884.44         1820.57 
       0.158546         1581.18         1437.87 
        0.17375         1268.02          1211.4 
       0.188953         1224.75          1096.9 
       0.204907          1150.3         970.532 
       0.220756         979.147         821.129 
        0.23588         862.767         714.311 
         0.2514          752.96         648.944 
       0.267535         735.119         587.183 
       0.283568         666.473         517.817 
       0.299022         621.969         461.348 
       0.314451          585.19         421.641 
       0.330372         539.589         386.808 
       0.346141         491.132         351.087 
       0.361624         472.259          319.09 
       0.377134         439.011         293.613 
       0.392932         417.246         271.675 
       0.408854         400.658         250.431 
       0.424564         380.164         230.826 
       0.440253         368.142         214.003 
       0.455999         346.494         199.374 
       0.471626         323.953          185.93 
        0.48727         314.231         173.354 
       0.502856         304.007         162.057 
       0.518488         300.625         151.977 
       0.534347         282.504         142.606 
       0.550082         266.249         133.965 
       0.565732         262.686          126.06 
       0.581496         248.893          118.82 
       0.597222         243.341          112.18 
       0.612804         234.972         106.075 
       0.628434         226.466         100.384 
       0.644267         219.286         95.0632 
       0.660051         216.388         90.1596 
       0.675724         211.871         85.6316 
       0.691403         205.824         81.4108 
       0.707174         197.348         77.4508 
       0.722871         195.541         73.7699 
        0.73838         191.372         70.3676 
       0.754018         186.055         67.1541 
       0.769845         180.263         64.1065 
        0.78569         178.537         61.2454 
       0.801365         172.991         58.5874 
       0.817031         167.489         56.0896 
       0.832809         165.251         53.7222 
       0.848511         161.089         51.5028 
       0.864097         158.682         49.4246 
       0.879701           155.1         47.4597 
       0.895507         151.168         45.5789 
       0.911279          147.82         43.8044 
        0.92691         146.911         42.1395 
       0.942635         143.261         40.5523 
       0.958396         142.952         39.0439 
       0.974128          138.96         37.6153 
       0.989692         135.607         36.2726 
        1.00528          133.22         34.9937 
        1.02113         132.456         33.7567 
        1.03692         127.512         32.5843 
        1.05264         126.286         31.4732 
        1.06832         123.689         30.4159 
        1.08405         122.045         29.4045 
        1.09979         121.482         28.4387 
        1.11537         117.476          27.526 
        1.13105         116.994         26.6481 
        1.14679         115.962         25.8052 
        1.16256         114.207         24.9973 
        1.17828         111.498         24.2267 
        1.19395          110.02         23.4914 
         1.2097         107.981         22.7829 
        1.22537         107.613         22.1072 
          1.241         105.203          21.461 
        1.25666         103.261         20.8392 
        1.27241         101.869         20.2391 
        1.28819         100.427         19.6618 
        1.30392         99.1499         19.1087 
        1.31957         97.8084         18.5794 
        1.33529         95.8595         18.0683 
        1.35108           94.78         17.5745 
        1.36674         93.8421         17.1027 
         1.3824         92.0344         16.6487 
        1.39811         91.1187         16.2097 
        1.41389         89.7874         15.7849 
        1.42964         88.4838         15.3761 
        1.44531         86.5742         14.9838 
        1.46101         85.7378         14.6044 
        1.47667         85.3028         14.2393 
        1.49229         83.6339         13.8877 
        1.50793         83.0225         13.5476 
        1.52367         81.7678         13.2168 
        1.53953         80.4834         12.8948 
        1.55526         79.7613         12.5861 
        1.57092         79.2932         12.2888 
        1.58662          77.542         12.0005 
        1.60235         77.1033         11.7208 
        1.61809         75.9162           11.45 
        1.63369          74.994         11.1901 
        1.64941         74.2835         10.9364 
        1.66519         72.6172         10.6898 
        1.68085         72.1923         10.4525 
        1.69652         70.7945         10.2223 
        1.71228         70.5824         9.99781 
        1.72806         69.5796         9.77988 
        1.74368         68.7648         9.57064 
        1.75933         67.7754         9.36712 
        1.77505          67.269         9.16857 
        1.79081         66.1884         8.97544 
         1.8065          65.557         8.78871 
        1.82218         64.6138         8.60747 
        1.83797         64.0047          8.4301 
        1.85367         63.2795         8.25872 
        1.86928         62.8965         8.09315 
        1.88497         61.7841         7.93121 
        1.90073         60.8747         7.77312 
        1.91647         60.6238         7.61949 
        1.93218         59.7502         7.47034 
        1.94787         59.0177          7.3254 
        1.96363         58.2556         7.18375 
        1.97935         57.9332         7.04614 
        1.99499         56.9492         6.91291 
        2.01064         56.7442         6.78294 
         2.0264         55.3919          6.6555 
        2.04216         55.0811         6.53141 
        2.05781          54.429         6.41126 
        2.07353         53.7587         6.29371 
        2.08928         53.1288         6.17886 
        2.10499         52.7589         6.06718 
        2.12065          52.105         5.95861 
        2.13633         51.7414          5.8526 
        2.15211          51.407         5.74848 
        2.16785         50.5422          5.6472 
        2.18349         50.1777         5.54899 
        2.19916         49.5517         5.45291 
        2.21489         49.1264          5.3588 
        2.23063         48.4895         5.26684 
         2.2463         48.0436         5.17745 
        2.26194         47.2042         5.09037 
        2.27765         46.8066         5.00484 
        2.29341         46.2632         4.92106 
        2.30914         45.6471         4.83937 
        2.32486         44.9874         4.75958 
        2.34061         44.7345         4.68146 
        2.35635         44.2064         4.60517 
        2.37203         43.6468         4.53084 
        2.38768         43.2755          4.4583 
        2.40339         42.8823          4.3871 
        2.41914         42.5332         4.31728 
        2.43483         41.9397         4.24923 
         2.4505         41.5854         4.18276 
        2.46622         41.1526         4.11749 
        2.48195         40.6744          4.0536 
        2.49759         40.1855         3.99142 
        2.51328         39.6724         3.93038 
        2.52906         39.4095         3.87022 
        2.54479         38.8431         3.81155 
        2.56049         38.3728         3.75422 
        2.57618         38.0947         3.69811 
        2.59189         37.6036         3.64307 
        2.60758         37.3851         3.58923 
        2.62325         36.8966         3.53654 
        2.63898         36.5064         3.48474 
        2.65468          36.065         3.43407 
        2.67044         35.6325          3.3842 
        2.68618         35.4108         3.33544 
        2.70184         35.0157         3.28783 
        2.71755         34.7799         3.24103 
        2.73329         34.3176         3.19507 
        2.74897         33.9678         3.15015 
        2.76462         33.4851          3.1062 
        2.78034         33.3761          3.0629 
        2.79607         32.9626         3.02039 
        2.81179         32.6654         2.97872 
        2.82749         32.2859          2.9379 
        2.84321         31.9501         2.89779 
        2.85893         31.6163         2.85844 
        2.87462         31.2568         2.81989 
        2.89033         30.9587         2.78202 
        2.90605         30.7727         2.74481 
        2.92176         30.5117          2.7083 
        2.93747         30.1812         2.67247 
        2.95318         29.7629         2.63728 
        2.96891         29.4997         2.60271 
        2.98456         29.2044         2.56892 
        3.00023         28.8692         2.53567 
        3.01596         28.5888         2.50291 
        3.03164         28.4728         2.47082 
        3.04738         28.1581          2.4392 
         3.0631         27.8788         2.40815 
        3.07883         27.5681         2.37763 
        3.09456         27.2916         2.34765 
        3.11026         27.0462         2.31823 
        3.12596         26.8356         2.28932 
        3.14163         26.5146         2.26097 
        3.15734         26.2831         2.23303 
        3.17308          25.954         2.20549 
        3.18879         25.8099          2.1785 
        3.20447          25.486           2.152 
         3.2202          25.257         2.12585 
         3.2359          24.975         2.10019 
        3.25157         24.9177         2.07501 
        3.26729         24.6308         2.05017 
        3.28304          24.339         2.02569 
        3.29877         24.0482         2.00163 
        3.31446         23.8514         1.97802 
        3.33014         23.6255         1.95482 
        3.34585         23.4932         1.93195 
        3.36158         23.1612         1.90941 
        3.37727         22.9196          1.8873 
        3.39294         22.8198         1.86556 
        3.40867         22.5588         1.84408 
        3.42439         22.3288         1.82296 
        3.44008         22.1487         1.80221 
        3.45578         22.0025         1.78176 
        3.47153         21.6842         1.76159 
        3.48724         21.5362         1.74176 
        3.50292         21.3974         1.72229 
        3.51859         21.1092         1.70312 
        3.53431         20.9315         1.68419 
        3.55007         20.6976         1.66549 
        3.56577         20.4977         1.64716 
        3.58146         20.4126          1.6291 
        3.59719         20.1214         1.61128 
        3.61292         19.9864         1.59373 
        3.62859         19.7666         1.57651 
        3.64429         19.6078          1.5595 
        3.66003         19.4726          1.5427 
        3.67578         19.2143         1.52615 
        3.69146         19.1482         1.50991 
        3.70712         18.9349         1.49393 
        3.72284         18.8067         1.47812 
        3.73853         18.5718         1.46257 
        3.75422         18.3889         1.44724 
        3.76993         18.2582         1.43211 
        3.78564          18.073         1.41721 
        3.80137         17.9356         1.40249 
        3.81707         17.7561         1.38801 
        3.83279          17.611         1.37373 
        3.84853         17.4394         1.35962 
        3.86424         17.2879         1.34574 
        3.87992         17.1526         1.33208 
        3.89561         16.9622          1.3186 
        3.91134         16.8659         1.30528 
        3.92704         16.7099         1.29216 
        3.94273         16.5541         1.27924 
        3.95845         16.3728         1.26647 
        3.97418         16.3074         1.25386 
        3.98988         16.1117         1.24145 
        4.00554         15.9796         1.22924 
        4.02125         15.8636         1.21716 
        4.03698          15.735         1.20522 
        4.05268         15.5716         1.19347 
        4.06839         15.4328         1.18187 
         4.0841         15.3483         1.17042 
        4.09983         15.1542         1.15911 
        4.11555         15.0643         1.14796 
        4.13124         14.9401         1.13698 
        4.14693         14.8031         1.12613 
        4.16266         14.6746         1.11541 
        4.17839          14.549         1.10482 
        4.19408         14.3951          1.0944 
        4.20977         14.3315         1.08411 
        4.22551         14.1753         1.07393 
        4.24123           14.08         1.06389 
        4.25691         13.9894           1.054 
        4.27259         13.8154         1.04424 
        4.28831         13.6699         1.03458 
        4.30404         13.6161         1.02503 
        4.31974         13.4936         1.01562 
        4.33543         13.3926         1.00634 
        4.35116         13.2765        0.997153 
        4.36688         13.1659        0.988083 
        4.38255         13.0314        0.979159 
        4.39825         12.9428        0.970325 
        4.41398         12.8624        0.961583 
         4.4297         12.7086        0.952959 
        4.44541         12.6287        0.944441 
        4.46111         12.5256        0.936034 
        4.47683           12.43        0.927723 
        4.49251         12.3228         0.91953 
        4.50819         12.2331        0.911438 
         4.5239         12.1423        0.903431 
        4.53962         12.0439        0.895511 
        4.55535         11.9365        0.887682 
        4.57106         11.8196        0.879958 
        4.58678         11.7325        0.872323 
         4.6025         11.6381        0.864778 
        4.61821         11.5582        0.857323 
        4.63391         11.4711        0.849966 
         4.6496         11.3619        0.842697 
        4.66532         11.2561        0.835503 
        4.68103          11.168        0.828396 
        4.69673         11.1106        0.821378 
        4.71241         10.9914        0.814448 
        4.72811         10.9027        0.807586 
        4.74384         10.8465        0.800795 
        4.75955         10.7388        0.794093 
        4.77525         10.6613        0.787471 
        4.79096         10.5827        0.780916 
        4.80669         10.5197        0.774432 
         4.8224         10.4399         0.76803 
        4.83809         10.3465        0.761706 
        4.85379         10.2616         0.75545 
         4.8695         10.2257        0.749259 
        4.88521         10.0948         0.74314 
        4.90093         10.0377        0.737088 
        4.91663         9.94835         0.73111 
        4.93234         9.88104        0.725191 
        4.94807         9.80471        0.719333 
        4.96377         9.72865        0.713551 
        4.97943         9.65444        0.707845 
        4.99514         9.59156        0.702187 
        5.01086         9.52085        0.696586 
        5.02654         9.45254         0.69106 
        5.04227         9.37363        0.685578 
          5.058         9.28464        0.680153 
        5.07371         9.24454        0.674797 
        5.08942         9.17291        0.669498 
        5.10513         9.09853        0.664256 
        5.12084         9.02478        0.659067 
        5.13656         8.96374        0.653934 
        5.15225         8.90203        0.648865 
        5.16796         8.84045        0.643841 
        5.18369         8.77465        0.638866 
         5.1994         8.67776        0.633952 
        5.21509         8.64636        0.629094 
        5.23079         8.57548        0.624282 
        5.24649         8.50377        0.619524 
        5.26217         8.45162        0.614818 
        5.27788         8.37835        0.610155 
        5.29359         8.33006        0.605539 
        5.30933         8.24266        0.600964 
        5.32504         8.19524        0.596444 
        5.34073         8.15246        0.591976 
        5.35646          8.0741        0.587544 
        5.37218         8.02325        0.583157 
        5.38789         7.97469        0.578822 
        5.40357         7.92248        0.574535 
        5.41929         7.86085        0.570283 
        5.43502         7.79102        0.566073 
         5.4507         7.74579        0.561915 
        5.46639          7.6977        0.557799 
        5.48212         7.64085        0.553715 
        5.49786         7.59822        0.549666 
        5.51353         7.52573        0.545678 
        5.52921         7.48702        0.541725 
        5.54495          7.4352          0.5378 
        5.56066         7.37188        0.533918 
        5.57637         7.31234        0.530075 
        5.59207         7.27745        0.526273 
        5.60778         7.21367        0.522507 
        5.62346         7.16451        0.518783 
        5.63916          7.1138        0.515091 
        5.65487         7.07385        0.511434 
         5.6706         7.00741        0.507808 
        5.68633         6.97157        0.504215 
        5.70203         6.92934        0.500665 
        5.71773         6.86773         0.49715 
        5.73344         6.82687        0.493666 
        5.74916         6.79445        0.490213 
        5.76486         6.75256        0.486797 
        5.78054         6.69013        0.483419 
        5.79626         6.63735        0.480064 
          5.812         6.60378        0.476737 
         5.8277         6.56236        0.473451 
        5.84339         6.50639        0.470196 
        5.85911          6.4725        0.466966 
        5.87484         6.42673        0.463767 
        5.89053         6.38697        0.460603 
        5.90623         6.33924        0.457468 
        5.92195         6.28463        0.454357 
        5.93767         6.26212        0.451276 
        5.95336         6.21177        0.448229 
        5.96905         6.16943        0.445211 
        5.98476         6.12892        0.442216 
        6.00048         6.10422        0.439248 
        6.01617         6.05256        0.436312 
        6.03185         6.01171        0.433405 
        6.04756         5.97593        0.430518 
        6.06331         5.94004        0.427652 
        6.07903         5.89763        0.424817 
        6.09473         5.85252        0.422011 
        6.11044          5.8143        0.419227 
        6.12616         5.78276        0.416469 
        6.14186         5.75415        0.413739 
        6.15755         5.71288        0.411033 
        6.17326         5.66161         0.40835 
        6.18898         5.62432        0.405689 
        6.20467         5.59399        0.403056 
        6.22036         5.56681        0.400447 
         6.2361         5.51517        0.397854 
         6.2518         5.48616        0.395288 
        6.26748         5.46047        0.392751 
        6.28319         5.41443        0.390228 
        6.29893         5.38063        0.387726 
        6.31463          5.3596         0.38525 
        6.33033          5.3151        0.382796 
        6.34604         5.28575        0.380362 
        6.36177         5.25087        0.377946 
        6.37747         5.22495        0.375556 
