# k  (h/Mpc)    Pcb(k)  (Mpc/h)^3    Pcb_linear(k) (Mpc/h)^3   ShotnoiseSubtracted = true
      0.0200456         21064.3         21431.5 
      0.0350414         16065.2           15580 
      0.0492313         11085.3         11320.1 
      0.0637834         8937.74         9410.31 
      0.0800726         7015.79         7468.73 
       0.096163         5629.86         5419.21 
       0.111083         4585.08          4322.5 
       0.126058         3790.55         3830.62 
       0.142273         3317.54         3245.38 
       0.158546         2723.14         2563.17 
        0.17375         2429.98         2159.47 
       0.188953          2299.9         1955.35 
       0.204907         1977.55         1730.08 
       0.220756         1786.84         1463.76 
        0.23588         1594.86         1273.34 
         0.2514         1442.51         1156.82 
       0.267535         1393.34         1046.72 
       0.283568         1239.32         923.067 
       0.299022         1182.11         822.405 
       0.314451         1229.65         751.622 
       0.330372         1082.69         689.529 
       0.346141         994.706         625.853 
       0.361624           954.6         568.814 
       0.377134          914.13         523.399 
       0.392932         873.127         484.291 
       0.408854         836.103         446.423 
       0.424564         817.574         411.474 
       0.440253         756.275         381.484 
       0.455999         723.248         355.407 
       0.471626          736.61         331.442 
        0.48727         694.934         309.024 
       0.502856         663.734         288.885 
       0.518488         646.654         270.916 
       0.534347          618.48         254.211 
       0.550082         590.017         238.808 
       0.565732         582.499         224.716 
       0.581496         570.007          211.81 
       0.597222         556.788         199.974 
       0.612804         543.808          189.09 
       0.628434         521.219         178.945 
       0.644267          505.98         169.461 
       0.660051          500.12          160.72 
       0.675724         489.721         152.648 
       0.691403         476.875         145.124 
       0.707174         461.314         138.065 
       0.722871         455.318         131.503 
        0.73838         446.574         125.438 
       0.754018         434.086          119.71 
       0.769845         429.556         114.277 
        0.78569         420.528         109.177 
       0.801365         406.004         104.439 
       0.817031         403.111         99.9861 
       0.832809          396.71          95.766 
       0.848511          389.48         91.8096 
       0.864097         379.888          88.105 
       0.879701         378.195         84.6023 
       0.895507         364.053         81.2495 
       0.911279         358.356         78.0863 
        0.92691         354.926         75.1184 
       0.942635         351.055         72.2891 
       0.958396         339.117         69.6002 
       0.974128         335.523         67.0535 
       0.989692         324.518           64.66 
        1.00528         322.847         62.3803 
        1.02113         317.455         60.1751 
        1.03692         312.063         58.0852 
        1.05264         307.115         56.1046 
        1.06832         302.161         54.2197 
        1.08405         298.858         52.4168 
        1.09979         293.368         50.6952 
        1.11537         285.849         49.0682 
        1.13105          282.37         47.5032 
        1.14679         278.265         46.0007 
        1.16256         276.427         44.5605 
        1.17828          271.74         43.1869 
        1.19395         264.754         41.8761 
         1.2097         264.374         40.6132 
        1.22537         259.609         39.4086 
          1.241         253.465         38.2568 
        1.25666         251.463         37.1482 
        1.27241         247.593         36.0786 
        1.28819         242.646         35.0493 
        1.30392         242.003         34.0634 
        1.31957         234.842         33.1199 
        1.33529         231.939         32.2088 
        1.35108         230.803         31.3285 
        1.36674         224.322         30.4874 
         1.3824         223.007         29.6781 
        1.39811         220.903         28.8956 
        1.41389         214.559         28.1384 
        1.42964          212.27         27.4097 
        1.44531         210.407         26.7104 
        1.46101         206.725         26.0341 
        1.47667         204.205         25.3832 
        1.49229         201.254         24.7565 
        1.50793         198.354         24.1502 
        1.52367         195.576         23.5604 
        1.53953         191.578         22.9864 
        1.55526         190.374         22.4361 
        1.57092         188.744         21.9062 
        1.58662         184.195         21.3922 
        1.60235         182.388         20.8937 
        1.61809         179.951         20.4109 
        1.63369          176.56         19.9476 
        1.64941         174.459         19.4955 
        1.66519         172.269         19.0557 
        1.68085         169.337         18.6327 
        1.69652         167.698         18.2225 
        1.71228         164.843         17.8222 
        1.72806         163.224         17.4337 
        1.74368         161.106         17.0608 
        1.75933         159.919          16.698 
        1.77505         157.434          16.344 
        1.79081         153.957         15.9997 
         1.8065         152.637         15.6669 
        1.82218         149.553         15.3438 
        1.83797         148.655         15.0276 
        1.85367         146.484         14.7221 
        1.86928         144.411          14.427 
        1.88497         143.287         14.1383 
        1.90073         141.633         13.8565 
        1.91647         138.809         13.5826 
        1.93218         137.161         13.3167 
        1.94787         135.234         13.0584 
        1.96363         134.669         12.8059 
        1.97935         132.863         12.5605 
        1.99499         130.877         12.3231 
        2.01064         128.223         12.0914 
         2.0264         127.478         11.8642 
        2.04216         125.611          11.643 
        2.05781         123.546         11.4288 
        2.07353         122.366         11.2193 
        2.08928         120.805         11.0145 
        2.10499         119.632         10.8154 
        2.12065         118.248         10.6219 
        2.13633         116.839         10.4329 
        2.15211         114.851         10.2473 
        2.16785         113.577         10.0668 
        2.18349         112.116         9.89171 
        2.19916         110.953         9.72044 
        2.21489         109.704         9.55266 
        2.23063         107.866         9.38874 
         2.2463         106.647          9.2294 
        2.26194         105.724         9.07416 
        2.27765         104.244          8.9217 
        2.29341         103.219         8.77235 
        2.30914         102.061         8.62673 
        2.32486         100.191          8.4845 
        2.34061         99.3819         8.34524 
        2.35635         98.4091         8.20924 
        2.37203         96.6593         8.07674 
        2.38768         95.9653         7.94744 
        2.40339          94.689          7.8205 
        2.41914         93.3928         7.69604 
        2.43483         92.7741         7.57474 
         2.4505         91.4353         7.45625 
        2.46622         90.2797         7.33989 
        2.48195         89.5422         7.22601 
        2.49759         88.1741         7.11516 
        2.51328         87.4931         7.00634 
        2.52906         86.1199         6.89911 
        2.54479         85.0991         6.79453 
        2.56049         83.9312         6.69232 
        2.57618         83.0066          6.5923 
        2.59189         82.4034         6.49418 
        2.60758         80.8711         6.39821 
        2.62325         80.6168         6.30429 
        2.63898         79.5332         6.21194 
        2.65468         78.5868         6.12163 
        2.67044         77.3643         6.03273 
        2.68618         76.6819          5.9458 
        2.70184         75.7249         5.86093 
        2.71755         75.0655         5.77751 
        2.73329         73.8878         5.69558 
        2.74897         73.3762         5.61551 
        2.76462         72.6313         5.53715 
        2.78034         71.2786         5.45997 
        2.79607         70.6135         5.38418 
        2.81179         70.1205         5.30992 
        2.82749         69.4334         5.23714 
        2.84321         68.5391         5.16564 
        2.85893         67.7178          5.0955 
        2.87462         67.0189         5.02678 
        2.89033         66.3888         4.95927 
        2.90605         65.8036         4.89293 
        2.92176          64.989         4.82785 
        2.93747         64.4482         4.76398 
        2.95318          63.355         4.70126 
        2.96891         62.9562         4.63963 
        2.98456         62.1788         4.57939 
        3.00023         61.5499         4.52012 
        3.01596         61.0958         4.46172 
        3.03164         60.3206         4.40452 
        3.04738         60.0213         4.34816 
         3.0631         58.9329          4.2928 
        3.07883         58.4523          4.2384 
        3.09456         57.7553         4.18495 
        3.11026         57.2225         4.13251 
        3.12596         56.6553         4.08097 
        3.14163         55.9527         4.03043 
        3.15734         55.3169         3.98063 
        3.17308          54.879         3.93154 
        3.18879         54.3054         3.88342 
        3.20447         53.8997         3.83618 
         3.2202         53.1618         3.78958 
         3.2359         52.5166         3.74383 
        3.25157         52.1721         3.69894 
        3.26729         51.5714         3.65466 
        3.28304         51.0236         3.61102 
        3.29877         50.5532         3.56814 
        3.31446         50.1545         3.52605 
        3.33014         49.5513         3.48468 
        3.34585         48.9602         3.44391 
        3.36158         48.6285         3.40374 
        3.37727         48.0088         3.36432 
        3.39294          47.681         3.32557 
        3.40867         47.1776         3.28729 
        3.42439         46.6611         3.24963 
        3.44008         46.0964         3.21264 
        3.45578         45.8038         3.17619 
        3.47153          45.266         3.14023 
        3.48724         44.8438         3.10489 
        3.50292         44.4392         3.07018 
        3.51859         43.9137         3.03601 
        3.53431         43.3827         3.00225 
        3.55007         43.0681         2.96893 
        3.56577         42.7036         2.93624 
        3.58146         42.2075         2.90406 
        3.59719         41.8125         2.87229 
        3.61292         41.3512           2.841 
        3.62859         41.1149          2.8103 
        3.64429         40.7204         2.77999 
        3.66003         40.3532         2.75004 
        3.67578         39.9602         2.72054 
        3.69146         39.5743         2.69158 
        3.70712         39.1658          2.6631 
        3.72284         38.8668         2.63492 
        3.73853         38.4608          2.6072 
        3.75422         38.1063         2.57987 
        3.76993         37.7592          2.5529 
        3.78564         37.4541         2.52633 
        3.80137         37.1179          2.5001 
        3.81707         36.6236         2.47429 
        3.83279         36.3993         2.44883 
        3.84853         36.0544         2.42369 
        3.86424         35.6412         2.39894 
        3.87992         35.4443         2.37458 
        3.89561         35.1205         2.35056 
        3.91134         34.8595         2.32682 
        3.92704         34.4761         2.30343 
        3.94273         34.1549         2.28039 
        3.95845         33.9041         2.25762 
        3.97418         33.5711         2.23516 
        3.98988         33.1803         2.21303 
        4.00554         32.9719         2.19126 
        4.02125         32.7221         2.16972 
        4.03698         32.3588         2.14844 
        4.05268         32.1388          2.1275 
        4.06839         31.7071         2.10681 
         4.0841         31.5595         2.08641 
        4.09983         31.2603         2.06625 
        4.11555         30.9855         2.04636 
        4.13124         30.6931         2.02679 
        4.14693         30.4258         2.00746 
        4.16266         30.1261         1.98834 
        4.17839         29.8953         1.96947 
        4.19408          29.651          1.9509 
        4.20977         29.4117         1.93255 
        4.22551         29.1135          1.9144 
        4.24123         28.8783          1.8965 
        4.25691         28.6311         1.87888 
        4.27259          28.474         1.86147 
        4.28831         28.1194         1.84425 
        4.30404         27.9094         1.82723 
        4.31974         27.6133         1.81047 
        4.33543         27.4478         1.79392 
        4.35116         27.2167         1.77754 
        4.36688         26.9534         1.76137 
        4.38255         26.8241         1.74546 
        4.39825         26.4975         1.72972 
        4.41398          26.292         1.71413 
         4.4297         26.1023         1.69876 
        4.44541         25.9437         1.68357 
        4.46111         25.6517         1.66859 
        4.47683          25.444         1.65377 
        4.49251         25.2588         1.63917 
        4.50819         25.0827         1.62474 
         4.5239         24.8141         1.61047 
        4.53962          24.676         1.59635 
        4.55535         24.4097         1.58239 
        4.57106         24.2299         1.56863 
        4.58678         24.0455         1.55502 
         4.6025         23.8123         1.54157 
        4.61821         23.6279         1.52828 
        4.63391          23.354         1.51516 
         4.6496         23.2398          1.5022 
        4.66532         23.0829         1.48938 
        4.68103         22.8007         1.47671 
        4.69673         22.6822          1.4642 
        4.71241         22.5036         1.45185 
        4.72811         22.2828         1.43962 
        4.74384         22.0981         1.42751 
        4.75955         21.9674         1.41556 
        4.77525         21.7938         1.40376 
        4.79096          21.584         1.39207 
        4.80669         21.4536         1.38051 
         4.8224         21.2631          1.3691 
        4.83809          21.065         1.35783 
        4.85379         20.8989         1.34668 
         4.8695         20.7716         1.33564 
        4.88521         20.5779         1.32473 
        4.90093         20.4318         1.31394 
        4.91663         20.2764         1.30329 
        4.93234         20.1218         1.29273 
        4.94807         19.9634         1.28229 
        4.96377         19.8675         1.27199 
        4.97943         19.5966         1.26181 
        4.99514           19.49         1.25173 
        5.01086         19.3521         1.24174 
        5.02654         19.2117         1.23189 
        5.04227         19.0622         1.22212 
          5.058         18.8801         1.21245 
        5.07371         18.7366          1.2029 
        5.08942         18.5871         1.19346 
        5.10513         18.4708         1.18411 
        5.12084         18.3508         1.17486 
        5.13656         18.1448         1.16571 
        5.15225         18.0198         1.15668 
        5.16796         17.8997         1.14772 
        5.18369         17.7659         1.13885 
         5.1994         17.6663         1.13009 
        5.21509         17.5148         1.12143 
        5.23079         17.3957         1.11285 
        5.24649         17.2575         1.10437 
        5.26217         17.1513         1.09598 
        5.27788         16.9842         1.08767 
        5.29359         16.8646         1.07944 
        5.30933         16.7429         1.07129 
        5.32504         16.5874         1.06323 
        5.34073         16.5058         1.05526 
        5.35646         16.3748         1.04736 
        5.37218         16.2254         1.03954 
        5.38789         16.1022         1.03182 
        5.40357         15.9922         1.02417 
        5.41929         15.8911         1.01659 
        5.43502          15.735         1.00909 
         5.4507         15.6448         1.00168 
        5.46639         15.5397        0.994341 
        5.48212         15.4342        0.987059 
        5.49786         15.3181        0.979842 
        5.51353          15.219        0.972733 
        5.52921         15.0981        0.965687 
        5.54495         14.9838         0.95869 
        5.56066         14.8651         0.95177 
        5.57637         14.7495        0.944919 
        5.59207         14.6592        0.938141 
        5.60778         14.5512        0.931428 
        5.62346         14.4595        0.924789 
        5.63916         14.3349        0.918209 
        5.65487         14.2443        0.911689 
         5.6706         14.1197        0.905225 
        5.68633         14.0488        0.898822 
        5.70203         13.9419        0.892493 
        5.71773         13.8369        0.886226 
        5.73344         13.7246        0.880016 
        5.74916         13.6449         0.87386 
        5.76486         13.5562        0.867771 
        5.78054         13.4688         0.86175 
        5.79626          13.339        0.855768 
          5.812         13.2665        0.849838 
         5.8277         13.1705        0.843981 
        5.84339         13.0766        0.838179 
        5.85911         12.9774         0.83242 
        5.87484         12.8911        0.826717 
        5.89053         12.7962        0.821078 
        5.90623         12.7108        0.815489 
        5.92195         12.5921        0.809943 
        5.93767         12.5138        0.804451 
        5.95336         12.4606        0.799019 
        5.96905         12.3645        0.793639 
        5.98476         12.3031        0.788301 
        6.00048         12.2007         0.78301 
        6.01617          12.136        0.777775 
        6.03185          12.027        0.772594 
        6.04756         11.9399        0.767448 
        6.06331         11.8722        0.762338 
        6.07903         11.7656        0.757285 
        6.09473         11.7067        0.752283 
        6.11044         11.6077        0.747321 
        6.12616         11.5371        0.742404 
        6.14186         11.4479        0.737537 
        6.15755           11.39        0.732714 
        6.17326           11.31         0.72793 
        6.18898         11.2252        0.723186 
        6.20467         11.1506        0.718493 
        6.22036         11.0788        0.713842 
         6.2361         10.9886         0.70922 
         6.2518         10.9387        0.704646 
        6.26748         10.8743        0.700123 
        6.28319         10.7989        0.695626 
        6.29893         10.7227        0.691166 
        6.31463         10.6499        0.686751 
        6.33033         10.5814        0.682377 
        6.34604         10.4869        0.678038 
        6.36177         10.4495        0.673733 
        6.37747         10.3787        0.669472 
