# k  (h/Mpc)    Pcb(k)  (Mpc/h)^3    Pcb_linear(k) (Mpc/h)^3   ShotnoiseSubtracted = true
      0.0200456           21887           22409 
      0.0350414         15536.2         16290.6 
      0.0492313         11581.2         11836.4 
      0.0637834         10030.1         9839.53 
      0.0800726          7913.1         7809.39 
       0.096163         5484.25         5666.39 
       0.111083         4410.82         4519.66 
       0.126058         4060.88         4005.34 
       0.142273         3516.94          3393.4 
       0.158546         3082.21         2680.08 
        0.17375         2466.39         2257.96 
       0.188953         2412.49         2044.53 
       0.204907         2266.76            1809 
       0.220756         1965.65         1530.52 
        0.23588         1757.85         1331.42 
         0.2514          1530.8         1209.58 
       0.267535         1531.46         1094.46 
       0.283568         1388.59         965.169 
       0.299022          1314.1         859.916 
       0.314451         1252.56         785.905 
       0.330372         1149.05          720.98 
       0.346141         1101.06         654.399 
       0.361624          1058.1         594.759 
       0.377134         985.466         547.272 
       0.392932         945.658          506.38 
       0.408854         928.226         466.785 
       0.424564         858.198         430.242 
       0.440253         843.042         398.884 
       0.455999         813.429         371.617 
       0.471626         783.572         346.559 
        0.48727         751.195         323.119 
       0.502856         730.016         302.062 
       0.518488         722.836         283.273 
       0.534347         677.651         265.806 
       0.550082         660.785           249.7 
       0.565732         657.492         234.966 
       0.581496         621.139         221.471 
       0.597222         609.055         209.095 
       0.612804         597.811         197.715 
       0.628434         580.826         187.107 
       0.644267         565.672          177.19 
       0.660051         548.906          168.05 
       0.675724         543.448         159.611 
       0.691403         525.341         151.743 
       0.707174         508.167         144.362 
       0.722871         502.089         137.501 
        0.73838         492.784          131.16 
       0.754018         481.871          125.17 
       0.769845         473.027         119.489 
        0.78569         464.451         114.157 
       0.801365         452.693         109.202 
       0.817031         440.178         104.547 
       0.832809         436.641         100.134 
       0.848511         426.947         95.9972 
       0.864097         414.221         92.1236 
       0.879701         408.794         88.4611 
       0.895507         406.128         84.9554 
       0.911279         394.123         81.6479 
        0.92691         388.708         78.5447 
       0.942635         379.154         75.5863 
       0.958396         369.758         72.7748 
       0.974128         364.247         70.1119 
       0.989692          361.77         67.6092 
        1.00528         351.819         65.2255 
        1.02113         350.158         62.9198 
        1.03692         339.806         60.7346 
        1.05264         337.821         58.6636 
        1.06832         328.454         56.6928 
        1.08405         324.193         54.8077 
        1.09979         318.546         53.0075 
        1.11537         312.691         51.3063 
        1.13105         307.412         49.6699 
        1.14679         300.105         48.0989 
        1.16256         294.576          46.593 
        1.17828         293.651         45.1567 
        1.19395         286.141         43.7861 
         1.2097         282.467         42.4656 
        1.22537         276.435         41.2061 
          1.241         274.323         40.0017 
        1.25666         269.207         38.8426 
        1.27241         265.385         37.7242 
        1.28819          261.26          36.648 
        1.30392         255.149         35.6171 
        1.31957         254.878         34.6306 
        1.33529         249.602         33.6779 
        1.35108         244.114         32.7574 
        1.36674         240.883          31.878 
         1.3824         239.532         31.0318 
        1.39811         235.382         30.2136 
        1.41389         232.414         29.4218 
        1.42964         229.797         28.6599 
        1.44531         226.129         27.9287 
        1.46101         222.337         27.2215 
        1.47667         219.481          26.541 
        1.49229          217.26         25.8857 
        1.50793         211.845         25.2518 
        1.52367         210.559          24.635 
        1.53953         207.353         24.0349 
        1.55526         202.786         23.4595 
        1.57092         201.534         22.9054 
        1.58662         199.106         22.3679 
        1.60235         195.465         21.8467 
        1.61809         193.718         21.3418 
        1.63369         190.556         20.8575 
        1.64941         186.714         20.3847 
        1.66519         185.615         19.9249 
        1.68085         182.838         19.4826 
        1.69652          180.08         19.0536 
        1.71228          176.24         18.6351 
        1.72806         174.682         18.2289 
        1.74368         172.164         17.8389 
        1.75933         169.185         17.4596 
        1.77505          168.12         17.0895 
        1.79081         166.338         16.7295 
         1.8065          163.35         16.3815 
        1.82218         161.524         16.0436 
        1.83797         159.982         15.7131 
        1.85367         157.337         15.3936 
        1.86928         154.661          15.085 
        1.88497         152.866         14.7832 
        1.90073         151.443         14.4885 
        1.91647         149.643         14.2021 
        1.93218         147.848         13.9241 
        1.94787         144.828          13.654 
        1.96363         142.856         13.3899 
        1.97935         142.124         13.1334 
        1.99499         139.482         12.8851 
        2.01064         138.082         12.6429 
         2.0264         136.446         12.4053 
        2.04216         134.611          12.174 
        2.05781         133.256         11.9501 
        2.07353         131.768          11.731 
        2.08928         129.321         11.5169 
        2.10499         128.217         11.3088 
        2.12065          125.93         11.1064 
        2.13633         125.095         10.9088 
        2.15211         122.603         10.7147 
        2.16785          121.32         10.5259 
        2.18349         120.311         10.3429 
        2.19916         118.703         10.1638 
        2.21489         117.421         9.98838 
        2.23063         115.248         9.81697 
         2.2463         114.182         9.65037 
        2.26194         112.327         9.48805 
        2.27765         111.395         9.32864 
        2.29341             110         9.17247 
        2.30914         109.022         9.02021 
        2.32486         107.351         8.87149 
        2.34061         106.178         8.72588 
        2.35635         104.901         8.58367 
        2.37203         103.598         8.44513 
        2.38768         102.276         8.30993 
        2.40339         101.218         8.17721 
        2.41914         99.8107         8.04707 
        2.43483         98.8512         7.92023 
         2.4505          97.765         7.79634 
        2.46622         96.6545         7.67468 
        2.48195         95.3117          7.5556 
        2.49759         93.9597         7.43969 
        2.51328         93.6107         7.32591 
        2.52906         91.9886         7.21379 
        2.54479         91.1168         7.10444 
        2.56049         90.0272         6.99757 
        2.57618         88.9402         6.89299 
        2.59189         87.9935         6.79039 
        2.60758         87.0371         6.69004 
        2.62325         85.9319         6.59184 
        2.63898         84.7411         6.49527 
        2.65468         83.8612         6.40084 
        2.67044         83.1533         6.30789 
        2.68618         82.0932         6.21699 
        2.70184         81.6758         6.12825 
        2.71755         80.2884         6.04103 
        2.73329         79.6274         5.95536 
        2.74897         78.7142         5.87164 
        2.76462         77.5573         5.78971 
        2.78034         77.0389         5.70901 
        2.79607         75.6013         5.62976 
        2.81179         74.9039         5.55211 
        2.82749         74.1086         5.47601 
        2.84321         73.5469         5.40125 
        2.85893         72.6993         5.32791 
        2.87462         71.7361         5.25606 
        2.89033         70.8277         5.18547 
        2.90605         70.1388         5.11611 
        2.92176         69.3106         5.04806 
        2.93747         68.9045         4.98128 
        2.95318         67.8653         4.91569 
        2.96891         67.4498         4.85125 
        2.98456         66.7353         4.78826 
        3.00023          65.765         4.72629 
        3.01596         65.1319         4.66523 
        3.03164         64.3209         4.60542 
        3.04738         63.7401         4.54648 
         3.0631         63.0399          4.4886 
        3.07883         62.5291         4.43172 
        3.09456         61.8578         4.37583 
        3.11026         61.0498           4.321 
        3.12596         60.3849         4.26711 
        3.14163         59.9063         4.21426 
        3.15734         59.1784         4.16219 
        3.17308         58.4481         4.11087 
        3.18879         58.1203         4.06055 
        3.20447         57.2469         4.01115 
         3.2202         56.9213         3.96242 
         3.2359         56.1384         3.91459 
        3.25157         55.5702         3.86766 
        3.26729         55.1771         3.82136 
        3.28304         54.7605         3.77572 
        3.29877         54.0606         3.73089 
        3.31446         53.1753         3.68688 
        3.33014          52.968         3.64363 
        3.34585         52.2825           3.601 
        3.36158          51.854         3.55899 
        3.37727         51.4009         3.51777 
        3.39294         50.8451         3.47726 
        3.40867         50.3061         3.43723 
        3.42439         49.8771         3.39785 
        3.44008         49.3656         3.35917 
        3.45578         48.7697         3.32106 
        3.47153         48.3516         3.28346 
        3.48724           47.83         3.24651 
        3.50292         47.5854         3.21021 
        3.51859         46.9587         3.17448 
        3.53431         46.6469         3.13919 
        3.55007         46.0256         3.10435 
        3.56577         45.7648         3.07017 
        3.58146         45.1717         3.03652 
        3.59719         44.8097          3.0033 
        3.61292         44.2854         2.97059 
        3.62859         43.9161         2.93848 
        3.64429         43.4973         2.90679 
        3.66003         43.1619         2.87547 
        3.67578         42.5994         2.84463 
        3.69146         42.3167         2.81435 
        3.70712         41.8065         2.78456 
        3.72284         41.4012          2.7551 
        3.73853         41.0744         2.72612 
        3.75422         40.5263         2.69754 
        3.76993         40.2667         2.66934 
        3.78564         39.8656         2.64156 
        3.80137         39.5197         2.61413 
        3.81707         39.1694         2.58715 
        3.83279         38.8525         2.56053 
        3.84853         38.4908         2.53423 
        3.86424         38.0876         2.50836 
        3.87992         37.8545         2.48289 
        3.89561         37.4773         2.45777 
        3.91134         37.0184         2.43295 
        3.92704         36.8009         2.40849 
        3.94273         36.4027          2.3844 
        3.95845         36.2524         2.36059 
        3.97418         35.8432          2.3371 
        3.98988         35.5348         2.31397 
        4.00554          35.181         2.29121 
        4.02125         34.9363         2.26869 
        4.03698         34.5538         2.24644 
        4.05268         34.2916         2.22453 
        4.06839         33.9488         2.20291 
         4.0841         33.5943         2.18157 
        4.09983         33.3345         2.16049 
        4.11555         33.0536          2.1397 
        4.13124         32.8149         2.11924 
        4.14693         32.4716         2.09902 
        4.16266         32.2058         2.07903 
        4.17839         31.8419          2.0593 
        4.19408         31.6063         2.03988 
        4.20977         31.2872          2.0207 
        4.22551         31.0013         2.00172 
        4.24123         30.8501           1.983 
        4.25691         30.5847         1.96458 
        4.27259         30.2849         1.94638 
        4.28831         29.9891         1.92837 
        4.30404         29.8298         1.91058 
        4.31974         29.4709         1.89304 
        4.33543         29.1978         1.87574 
        4.35116         29.0557         1.85862 
        4.36688         28.7801         1.84171 
        4.38255         28.5089         1.82508 
        4.39825         28.2527         1.80861 
        4.41398         28.1014         1.79232 
         4.4297         27.7455         1.77624 
        4.44541         27.5507         1.76036 
        4.46111          27.307         1.74469 
        4.47683          27.133          1.7292 
        4.49251         26.8388         1.71393 
        4.50819         26.7119         1.69885 
         4.5239         26.4638         1.68393 
        4.53962         26.2366         1.66916 
        4.55535         26.0686         1.65457 
        4.57106         25.7735         1.64017 
        4.58678         25.5993         1.62594 
         4.6025          25.306         1.61188 
        4.61821         25.1706         1.59798 
        4.63391         24.9545         1.58427 
         4.6496         24.7664         1.57072 
        4.66532         24.5591         1.55731 
        4.68103         24.3472         1.54406 
        4.69673         24.1732         1.53098 
        4.71241         24.0274         1.51807 
        4.72811         23.7477         1.50528 
        4.74384         23.6012         1.49262 
        4.75955         23.4429         1.48013 
        4.77525         23.1843         1.46778 
        4.79096         23.0596         1.45557 
        4.80669         22.8516         1.44348 
         4.8224         22.7104         1.43155 
        4.83809         22.5022         1.41976 
        4.85379         22.2681          1.4081 
         4.8695         22.1611         1.39656 
        4.88521         21.9575         1.38516 
        4.90093         21.7367         1.37388 
        4.91663         21.6078         1.36273 
        4.93234         21.4813          1.3517 
        4.94807         21.2221         1.34078 
        4.96377         21.0991            1.33 
        4.97943         20.9644         1.31937 
        4.99514         20.7819         1.30882 
        5.01086         20.6557         1.29838 
        5.02654          20.433         1.28808 
        5.04227         20.3457         1.27786 
          5.058         20.1482         1.26775 
        5.07371         19.9907         1.25777 
        5.08942          19.776         1.24789 
        5.10513         19.6989         1.23812 
        5.12084          19.544         1.22845 
        5.13656         19.3448         1.21888 
        5.15225         19.2195         1.20943 
        5.16796         19.1071         1.20007 
        5.18369         18.9112          1.1908 
         5.1994          18.827         1.18164 
        5.21509         18.6114         1.17258 
        5.23079         18.5398         1.16361 
        5.24649         18.3676         1.15474 
        5.26217         18.2822         1.14597 
        5.27788         18.1097         1.13728 
        5.29359         17.9523         1.12868 
        5.30933         17.7875         1.12015 
        5.32504          17.697         1.11173 
        5.34073         17.5552          1.1034 
        5.35646          17.424         1.09514 
        5.37218         17.2977         1.08696 
        5.38789         17.1707         1.07888 
        5.40357         17.0367         1.07089 
        5.41929         16.9235         1.06296 
        5.43502           16.79         1.05512 
         5.4507         16.6825         1.04737 
        5.46639         16.5408         1.03969 
        5.48212         16.4405         1.03208 
        5.49786         16.2702         1.02453 
        5.51353         16.1815          1.0171 
        5.52921         16.0762         1.00973 
        5.54495         15.9672         1.00242 
        5.56066         15.8394        0.995181 
        5.57637         15.7133        0.988018 
        5.59207         15.5972        0.980931 
        5.60778         15.4867        0.973912 
        5.62346          15.418         0.96697 
        5.63916         15.2934         0.96009 
        5.65487         15.1597        0.953273 
         5.6706         15.0596        0.946514 
        5.68633         14.9464        0.939818 
        5.70203         14.8554        0.933201 
        5.71773         14.7506        0.926648 
        5.73344         14.6132        0.920155 
        5.74916         14.5411        0.913718 
        5.76486         14.4556        0.907352 
        5.78054         14.3447        0.901055 
        5.79626         14.2384        0.894801 
          5.812         14.1407          0.8886 
         5.8277         14.0439        0.882476 
        5.84339          13.915        0.876409 
        5.85911          13.822        0.870388 
        5.87484         13.7141        0.864425 
        5.89053         13.6458        0.858529 
        5.90623         13.5526        0.852685 
        5.92195         13.4484        0.846885 
        5.93767         13.3502        0.841143 
        5.95336         13.2437        0.835463 
        5.96905         13.1847        0.829838 
        5.98476         13.0614        0.824256 
        6.00048          12.988        0.818725 
        6.01617            12.9        0.813251 
        6.03185         12.8154        0.807834 
        6.04756         12.7113        0.802453 
        6.06331          12.636         0.79711 
        6.07903         12.5548        0.791826 
        6.09473         12.4421        0.786595 
        6.11044         12.3863        0.781407 
        6.12616         12.2902        0.776267 
        6.14186          12.211        0.771177 
        6.15755         12.1068        0.766134 
        6.17326         12.0445        0.761132 
        6.18898         11.9721        0.756172 
        6.20467         11.8996        0.751265 
        6.22036         11.7889        0.746402 
         6.2361         11.7211        0.741569 
         6.2518         11.6524        0.736786 
        6.26748         11.5864        0.732056 
        6.28319         11.5174        0.727355 
        6.29893         11.4093        0.722691 
        6.31463         11.3311        0.718075 
        6.33033         11.2589        0.713502 
        6.34604         11.2203        0.708964 
        6.36177         11.1129        0.704462 
        6.37747         11.0442        0.700008 
