# k  (h/Mpc)    Pcb(k)  (Mpc/h)^3    Pcb_linear(k) (Mpc/h)^3   ShotnoiseSubtracted = true
      0.0200456         7573.73         7706.47 
      0.0350414         5473.45         5602.35 
      0.0492313         4052.96         4070.56 
      0.0637834         3445.01         3383.82 
      0.0800726         2728.72         2685.65 
       0.096163         1917.66         1948.67 
       0.111083         1522.28         1554.31 
       0.126058         1396.98         1377.44 
       0.142273         1204.04         1166.99 
       0.158546         988.929          921.68 
        0.17375         798.599         776.514 
       0.188953           761.9         703.116 
       0.204907          713.02         622.114 
       0.220756         600.348         526.346 
        0.23588         526.013         457.876 
         0.2514         462.603         415.975 
       0.267535         442.433         376.386 
       0.283568         400.525         331.922 
       0.299022         370.122         295.726 
       0.314451         341.574         270.273 
       0.330372         316.115         247.945 
       0.346141         284.708         225.048 
       0.361624         271.862         204.538 
       0.377134         254.607         188.207 
       0.392932         235.318         174.144 
       0.408854         225.612         160.527 
       0.424564         216.073          147.96 
       0.440253         204.557         137.176 
       0.455999          192.49         127.799 
       0.471626         178.074         119.182 
        0.48727         172.979         111.121 
       0.502856         166.019         103.879 
       0.518488         162.204         97.4176 
       0.534347         154.338         91.4107 
       0.550082         143.292          85.872 
       0.565732           138.8         80.8049 
       0.581496         132.834          76.164 
       0.597222         128.709         71.9079 
       0.612804         122.876         67.9942 
       0.628434         120.049         64.3463 
       0.644267         115.921         60.9359 
       0.660051          113.56         57.7926 
       0.675724         109.976         54.8902 
       0.691403         106.627         52.1847 
       0.707174         102.475         49.6462 
       0.722871         100.859         47.2868 
        0.73838         98.7807         45.1059 
       0.754018         94.1832          43.046 
       0.769845         92.3699         41.0925 
        0.78569         90.1372         39.2585 
       0.801365         87.3844         37.5547 
       0.817031         84.4178         35.9536 
       0.832809         83.4622         34.4361 
       0.848511         80.3594         33.0135 
       0.864097         78.2856         31.6814 
       0.879701         77.3011         30.4218 
       0.895507         75.7481         29.2162 
       0.911279         74.4227         28.0788 
        0.92691         72.5705         27.0115 
       0.942635         70.3914         25.9942 
       0.958396         70.1161         25.0273 
       0.974128         68.2911         24.1115 
       0.989692         66.7768         23.2508 
        1.00528         65.4536         22.4311 
        1.02113         64.1256         21.6382 
        1.03692         62.3836         20.8867 
        1.05264         62.1152         20.1744 
        1.06832         60.4479         19.4967 
        1.08405         59.7366         18.8484 
        1.09979         59.1015         18.2293 
        1.11537         56.8557         17.6443 
        1.13105         57.2858         17.0815 
        1.14679         56.0249         16.5412 
        1.16256         55.0829         16.0233 
        1.17828         53.6814         15.5294 
        1.19395         53.2333         15.0581 
         1.2097         52.1191         14.6039 
        1.22537         52.0141         14.1708 
          1.241         50.6401         13.7566 
        1.25666         49.6729          13.358 
        1.27241         49.2849         12.9734 
        1.28819         48.1246         12.6033 
        1.30392         47.4643         12.2487 
        1.31957         47.1117         11.9095 
        1.33529         46.4431         11.5818 
        1.35108         46.0172         11.2653 
        1.36674         45.2614         10.9629 
         1.3824         44.1448         10.6719 
        1.39811         44.0217         10.3905 
        1.41389          43.324         10.1182 
        1.42964         42.6328         9.85614 
        1.44531         42.1255         9.60469 
        1.46101         41.2438          9.3615 
        1.47667         41.1936         9.12747 
        1.49229         40.7396         8.90209 
        1.50793         39.9879         8.68409 
        1.52367         39.5006           8.472 
        1.53953         39.2538          8.2656 
        1.55526         38.5273         8.06773 
        1.57092         38.1676         7.87718 
        1.58662         37.6736         7.69234 
        1.60235         37.2884         7.51308 
        1.61809          36.671         7.33947 
        1.63369         36.2024         7.17289 
        1.64941         35.6872          7.0103 
        1.66519         35.3203         6.85218 
        1.68085         35.0212         6.70007 
        1.69652         34.5752         6.55255 
        1.71228         34.3499         6.40863 
        1.72806          33.797         6.26894 
        1.74368          33.328         6.13481 
        1.75933         32.9714         6.00436 
        1.77505         32.8069         5.87709 
        1.79081         32.2405         5.75329 
         1.8065         31.9028          5.6336 
        1.82218         31.6515         5.51742 
        1.83797         31.2094         5.40373 
        1.85367          30.794         5.29387 
        1.86928         30.5912         5.18774 
        1.88497           30.14         5.08394 
        1.90073         30.0271          4.9826 
        1.91647         29.5845         4.88412 
        1.93218         29.3382         4.78851 
        1.94787         28.9726         4.69561 
        1.96363         28.7879         4.60481 
        1.97935         28.4272          4.5166 
        1.99499         28.0926          4.4312 
        2.01064         27.9214         4.34789 
         2.0264         27.4245          4.2662 
        2.04216         27.1538         4.18666 
        2.05781         26.8937         4.10964 
        2.07353         26.6543         4.03429 
        2.08928         26.6209         3.96067 
        2.10499          26.305         3.88909 
        2.12065         25.8335         3.81949 
        2.13633         25.7476         3.75154 
        2.15211         25.2408          3.6848 
        2.16785         25.1001         3.61987 
        2.18349         24.9101         3.55692 
        2.19916         24.6942         3.49534 
        2.21489         24.3443         3.43501 
        2.23063         24.1822         3.37606 
         2.2463         24.0209         3.31877 
        2.26194         23.8094         3.26295 
        2.27765         23.4852         3.20812 
        2.29341         23.2176         3.15442 
        2.30914         23.1233         3.10205 
        2.32486         22.8431         3.05091 
        2.34061         22.6466         3.00084 
        2.35635         22.3482         2.95193 
        2.37203         22.2018         2.90428 
        2.38768         21.9662         2.85779 
        2.40339         21.8456         2.81214 
        2.41914         21.5877         2.76739 
        2.43483         21.3483         2.72377 
         2.4505         21.1449         2.68117 
        2.46622         20.9354         2.63933 
        2.48195         20.7541         2.59838 
        2.49759         20.5105         2.55851 
        2.51328         20.3376         2.51938 
        2.52906         20.2164         2.48083 
        2.54479         19.9601         2.44322 
        2.56049         19.7422         2.40647 
        2.57618          19.584          2.3705 
        2.59189         19.4843         2.33522 
        2.60758         19.2995         2.30071 
        2.62325         19.1117         2.26694 
        2.63898         19.0026         2.23373 
        2.65468         18.7846         2.20125 
        2.67044         18.5986         2.16929 
        2.68618         18.4273         2.13803 
        2.70184         18.3068         2.10751 
        2.71755         18.1086         2.07751 
        2.73329         17.9487         2.04805 
        2.74897         17.7181         2.01926 
        2.76462         17.7839         1.99108 
        2.78034          17.492         1.96333 
        2.79607         17.3442         1.93608 
        2.81179         17.2214         1.90937 
        2.82749         17.0524          1.8832 
        2.84321         16.9362         1.85749 
        2.85893         16.7593         1.83227 
        2.87462         16.5903         1.80756 
        2.89033         16.4441         1.78328 
        2.90605         16.3797         1.75943 
        2.92176          16.117         1.73603 
        2.93747         16.0658         1.71306 
        2.95318         15.8711         1.69051 
        2.96891         15.7433         1.66835 
        2.98456         15.6303         1.64669 
        3.00023         15.4778         1.62537 
        3.01596         15.3918         1.60437 
        3.03164         15.2508         1.58381 
        3.04738         15.0545         1.56354 
         3.0631         14.9411         1.54363 
        3.07883         14.8071         1.52407 
        3.09456         14.7147         1.50485 
        3.11026         14.5764         1.48599 
        3.12596         14.4277         1.46746 
        3.14163          14.361         1.44929 
        3.15734         14.1894         1.43138 
        3.17308         14.0734         1.41373 
        3.18879         13.9781         1.39643 
        3.20447         13.8467         1.37944 
         3.2202         13.7172         1.36268 
         3.2359         13.6416         1.34623 
        3.25157         13.5289         1.33009 
        3.26729         13.3863         1.31417 
        3.28304         13.2855         1.29847 
        3.29877         13.1531         1.28305 
        3.31446         13.0437         1.26792 
        3.33014          12.928         1.25304 
        3.34585         12.8297         1.23838 
        3.36158          12.765         1.22394 
        3.37727         12.5946         1.20976 
        3.39294         12.5222         1.19583 
        3.40867         12.4158         1.18206 
        3.42439         12.3092         1.16852 
        3.44008         12.2449         1.15522 
        3.45578         12.1323         1.14212 
        3.47153         12.0493         1.12918 
        3.48724         11.9381         1.11648 
        3.50292         11.8073         1.10399 
        3.51859         11.7537         1.09171 
        3.53431         11.6544         1.07957 
        3.55007         11.5707         1.06759 
        3.56577         11.4746         1.05583 
        3.58146         11.4118         1.04426 
        3.59719         11.2655         1.03284 
        3.61292         11.1828         1.02159 
        3.62859         11.0725         1.01055 
        3.64429         11.0179        0.999647 
        3.66003         10.8959        0.988877 
        3.67578         10.8303        0.978268 
        3.69146         10.7442        0.967855 
        3.70712         10.6549        0.957613 
        3.72284         10.5764        0.947481 
        3.73853         10.4737        0.937513 
        3.75422         10.4426        0.927685 
        3.76993         10.3462        0.917989 
        3.78564         10.2328        0.908435 
        3.80137         10.1726        0.899002 
        3.81707           10.07        0.889723 
        3.83279         10.0027        0.880567 
        3.84853         9.91192        0.871524 
        3.86424         9.83573        0.862627 
        3.87992         9.74705        0.853867 
        3.89561         9.69444        0.845228 
        3.91134          9.6308        0.836691 
        3.92704         9.52751        0.828282 
        3.94273         9.48173        0.819996 
        3.95845         9.40768        0.811809 
        3.97418         9.31266        0.803731 
        3.98988         9.23797        0.795775 
        4.00554         9.18904        0.787948 
        4.02125         9.10817        0.780203 
        4.03698         9.04414        0.772551 
        4.05268         8.98157        0.765019 
        4.06839         8.87671        0.757581 
         4.0841         8.84529        0.750245 
        4.09983         8.76362        0.742995 
        4.11555         8.69143        0.735844 
        4.13124         8.63225        0.728807 
        4.14693         8.54794        0.721856 
        4.16266         8.49514        0.714979 
        4.17839         8.42937        0.708196 
        4.19408         8.37524        0.701516 
        4.20977         8.30989         0.69492 
        4.22551         8.23949        0.688392 
        4.24123         8.18117        0.681955 
        4.25691         8.09988        0.675618 
        4.27259         8.04361         0.66936 
        4.28831         7.97773        0.663168 
        4.30404         7.94014        0.657048 
        4.31974         7.86748        0.651019 
        4.33543         7.79946        0.645069 
        4.35116         7.74103        0.639179 
        4.36688         7.68486        0.633365 
        4.38255          7.6262        0.627644 
        4.39825          7.5472        0.621982 
        4.41398         7.52789        0.616379 
         4.4297         7.46147         0.61085 
        4.44541         7.40406         0.60539 
        4.46111         7.34114        0.600001 
        4.47683         7.29293        0.594674 
        4.49251         7.24614        0.589422 
        4.50819          7.1843        0.584235 
         4.5239         7.14037        0.579103 
        4.53962         7.08503        0.574026 
        4.55535         7.02523        0.569007 
        4.57106         6.98078        0.564056 
        4.58678         6.92529        0.559163 
         4.6025         6.86942        0.554326 
        4.61821          6.8139        0.549547 
        4.63391         6.78625        0.544831 
         4.6496         6.71927        0.540172 
        4.66532         6.69777         0.53556 
        4.68103         6.60131        0.531005 
        4.69673         6.57447        0.526506 
        4.71241         6.53651        0.522064 
        4.72811         6.46542        0.517666 
        4.74384         6.42568        0.513313 
        4.75955         6.36755        0.509016 
        4.77525         6.35331        0.504771 
        4.79096         6.28168         0.50057 
        4.80669          6.2632        0.496414 
         4.8224         6.20799         0.49231 
        4.83809         6.15966        0.488256 
        4.85379         6.09841        0.484246 
         4.8695         6.06975        0.480278 
        4.88521         6.02859        0.476356 
        4.90093         5.97087        0.472476 
        4.91663          5.9508        0.468644 
        4.93234         5.90397         0.46485 
        4.94807         5.86632        0.461095 
        4.96377         5.82318        0.457389 
        4.97943         5.76868        0.453731 
        4.99514         5.72842        0.450104 
        5.01086         5.70388        0.446514 
        5.02654         5.65572        0.442972 
        5.04227         5.61278        0.439458 
          5.058         5.58542        0.435981 
        5.07371         5.54328        0.432548 
        5.08942         5.49772        0.429151 
        5.10513         5.46594         0.42579 
        5.12084         5.43263        0.422464 
        5.13656         5.39963        0.419174 
        5.15225         5.37198        0.415925 
        5.16796         5.32366        0.412704 
        5.18369         5.28244        0.409515 
         5.1994         5.25328        0.406366 
        5.21509         5.21729        0.403252 
        5.23079          5.1823        0.400167 
        5.24649         5.14444        0.397117 
        5.26217         5.11694        0.394101 
        5.27788         5.07023        0.391111 
        5.29359         5.04093        0.388153 
        5.30933         5.01564         0.38522 
        5.32504         4.96846        0.382323 
        5.34073         4.94252        0.379459 
        5.35646          4.8981        0.376618 
        5.37218         4.87109        0.373806 
        5.38789          4.8423        0.371027 
        5.40357         4.80054        0.368279 
        5.41929         4.77637        0.365553 
        5.43502         4.74552        0.362855 
         5.4507         4.71404         0.36019 
        5.46639          4.6728        0.357551 
        5.48212           4.645        0.354933 
        5.49786         4.61859        0.352338 
        5.51353         4.58812        0.349781 
        5.52921         4.55627        0.347248 
        5.54495         4.53545        0.344732 
        5.56066          4.5012        0.342243 
        5.57637         4.46763         0.33978 
        5.59207         4.43865        0.337343 
        5.60778         4.42066        0.334929 
        5.62346         4.38828        0.332542 
        5.63916         4.35887        0.330175 
        5.65487         4.31837        0.327831 
         5.6706         4.29599        0.325507 
        5.68633         4.27017        0.323204 
        5.70203         4.24344        0.320928 
        5.71773         4.22119        0.318675 
        5.73344         4.19771        0.316442 
        5.74916         4.16736        0.314228 
        5.76486         4.14205        0.312039 
        5.78054         4.11448        0.309873 
        5.79626         4.08342        0.307723 
          5.812         4.06796         0.30559 
         5.8277         4.03786        0.303484 
        5.84339          4.0104        0.301398 
        5.85911          3.9894        0.299327 
        5.87484          3.9661        0.297276 
        5.89053         3.94445        0.295248 
        5.90623         3.91432        0.293239 
        5.92195          3.8844        0.291244 
        5.93767         3.87605        0.289269 
        5.95336         3.84809        0.287316 
        5.96905         3.80854        0.285382 
        5.98476         3.79475        0.283462 
        6.00048         3.76566         0.28156 
        6.01617         3.75242        0.279677 
        6.03185         3.72836        0.277814 
        6.04756         3.71207        0.275964 
        6.06331         3.67786        0.274126 
        6.07903         3.65358        0.272309 
        6.09473          3.6393        0.270511 
        6.11044         3.61093        0.268726 
        6.12616         3.60247        0.266958 
        6.14186         3.57618        0.265208 
        6.15755         3.55415        0.263474 
        6.17326         3.53104        0.261754 
        6.18898         3.51226        0.260048 
        6.20467          3.4886         0.25836 
        6.22036         3.47149        0.256688 
         6.2361         3.44238        0.255026 
         6.2518         3.43383        0.253381 
        6.26748         3.40618        0.251755 
        6.28319         3.38605        0.250138 
        6.29893         3.36969        0.248534 
        6.31463         3.33863        0.246946 
        6.33033         3.33543        0.245374 
        6.34604         3.30491        0.243813 
        6.36177         3.29027        0.242265 
        6.37747          3.2657        0.240733 
