# k  (h/Mpc)    Pcb(k)  (Mpc/h)^3    Pcb_linear(k) (Mpc/h)^3   ShotnoiseSubtracted = true
      0.0200456         58.6309         59.4117 
      0.0350414         43.2703         43.1903 
      0.0492313         31.5215         31.3813 
      0.0637834         26.1368          26.087 
      0.0800726         20.7146         20.7046 
       0.096163         15.0804          15.023 
       0.111083          12.013         11.9827 
       0.126058         10.6184         10.6191 
       0.142273         8.99697         8.99673 
       0.158546         7.13911         7.10553 
        0.17375         5.99267          5.9864 
       0.188953         5.41749         5.42055 
       0.204907         4.82099         4.79608 
       0.220756          4.0729         4.05778 
        0.23588         3.54337         3.52991 
         0.2514         3.20653         3.20689 
       0.267535         2.89961         2.90169 
       0.283568          2.5631          2.5589 
       0.299022         2.28731         2.27984 
       0.314451         2.07668         2.08362 
       0.330372          1.9092         1.91149 
       0.346141         1.73413         1.73497 
       0.361624         1.57941         1.57685 
       0.377134         1.45529         1.45095 
       0.392932         1.33246         1.34254 
       0.408854         1.23981         1.23756 
       0.424564         1.13816         1.14068 
       0.440253         1.05673         1.05754 
       0.455999        0.987349        0.985247 
       0.471626        0.921856        0.918813 
        0.48727        0.855711        0.856667 
       0.502856         0.79869        0.800838 
       0.518488        0.754068        0.751024 
       0.534347        0.709822        0.704715 
       0.550082        0.661064        0.662015 
       0.565732        0.618043        0.622951 
       0.581496        0.587423        0.587173 
       0.597222        0.555169        0.554361 
       0.612804        0.523728        0.524189 
       0.628434        0.497864        0.496067 
       0.644267        0.469616        0.469774 
       0.660051        0.444521        0.445542 
       0.675724        0.423417        0.423166 
       0.691403        0.403197        0.402308 
       0.707174        0.382751        0.382739 
       0.722871        0.362893        0.364549 
        0.73838        0.348242        0.347736 
       0.754018         0.33324        0.331856 
       0.769845        0.317854        0.316795 
        0.78569        0.303018        0.302657 
       0.801365        0.289243        0.289522 
       0.817031        0.277253        0.277178 
       0.832809         0.26563        0.265479 
       0.848511        0.254249        0.254512 
       0.864097        0.243186        0.244242 
       0.879701        0.233226        0.234532 
       0.895507        0.225513        0.225237 
       0.911279        0.216365        0.216468 
        0.92691        0.207645        0.208241 
       0.942635        0.200193        0.200398 
       0.958396         0.19229        0.192943 
       0.974128        0.185211        0.185884 
       0.989692        0.178835        0.179248 
        1.00528        0.172953        0.172929 
        1.02113        0.165714        0.166816 
        1.03692        0.160391        0.161022 
        1.05264        0.155011        0.155531 
        1.06832        0.149892        0.150306 
        1.08405         0.14444        0.145308 
        1.09979        0.139604        0.140536 
        1.11537        0.135954        0.136025 
        1.13105        0.131357        0.131687 
        1.14679        0.127522        0.127522 
        1.16256         0.12266        0.123529 
        1.17828        0.118873        0.119721 
        1.19395        0.115118        0.116088 
         1.2097        0.111675        0.112587 
        1.22537        0.108899        0.109247 
          1.241        0.105435        0.106054 
        1.25666        0.102609        0.102981 
        1.27241       0.0994315        0.100016 
        1.28819       0.0965464       0.0971627 
        1.30392       0.0936738       0.0944295 
        1.31957       0.0912145        0.091814 
        1.33529       0.0884164       0.0892882 
        1.35108       0.0861588       0.0868478 
        1.36674        0.083347       0.0845163 
         1.3824       0.0818353       0.0822728 
        1.39811       0.0793653       0.0801035 
        1.41389       0.0772575       0.0780044 
        1.42964       0.0755235       0.0759842 
        1.44531       0.0731804       0.0740457 
        1.46101       0.0714652       0.0721708 
        1.47667        0.069438       0.0703666 
        1.49229       0.0678761       0.0686291 
        1.50793       0.0660276       0.0669485 
        1.52367       0.0644887       0.0653134 
        1.53953       0.0631313       0.0637222 
        1.55526       0.0615536       0.0621968 
        1.57092       0.0597166       0.0607277 
        1.58662       0.0585383       0.0593027 
        1.60235       0.0573633       0.0579208 
        1.61809       0.0556122       0.0565823 
        1.63369       0.0545204       0.0552981 
        1.64941       0.0534423       0.0540447 
        1.66519       0.0520448       0.0528257 
        1.68085       0.0507997       0.0516531 
        1.69652       0.0496001       0.0505157 
        1.71228       0.0487405       0.0494062 
        1.72806       0.0473707       0.0483293 
        1.74368       0.0464984       0.0472953 
        1.75933       0.0455287       0.0462895 
        1.77505       0.0444765       0.0453084 
        1.79081       0.0436345        0.044354 
         1.8065       0.0425031       0.0434312 
        1.82218       0.0417458       0.0425356 
        1.83797       0.0408443       0.0416591 
        1.85367       0.0399832       0.0408122 
        1.86928       0.0392795        0.039994 
        1.88497       0.0385157       0.0391937 
        1.90073       0.0376728       0.0384125 
        1.91647       0.0368049       0.0376533 
        1.93218       0.0360772       0.0369162 
        1.94787       0.0353256          0.0362 
        1.96363        0.034748          0.0355 
        1.97935       0.0339736       0.0348199 
        1.99499       0.0333551       0.0341616 
        2.01064       0.0328077       0.0335193 
         2.0264       0.0321983       0.0328895 
        2.04216       0.0314499       0.0322763 
        2.05781       0.0309458       0.0316826 
        2.07353       0.0302226       0.0311017 
        2.08928       0.0297487       0.0305341 
        2.10499       0.0290606       0.0299822 
        2.12065        0.028686       0.0294457 
        2.13633       0.0280743       0.0289218 
        2.15211       0.0276945       0.0284073 
        2.16785         0.02717       0.0279068 
        2.18349       0.0265321       0.0274215 
        2.19916       0.0262671       0.0269467 
        2.21489       0.0258254       0.0264816 
        2.23063       0.0252961       0.0260272 
         2.2463       0.0247431       0.0255855 
        2.26194       0.0243483       0.0251551 
        2.27765        0.023943       0.0247325 
        2.29341        0.023613       0.0243184 
        2.30914       0.0231531       0.0239148 
        2.32486       0.0227596       0.0235205 
        2.34061       0.0223962       0.0231344 
        2.35635       0.0219904       0.0227574 
        2.37203       0.0216197       0.0223901 
        2.38768        0.021232       0.0220316 
        2.40339       0.0208878       0.0216797 
        2.41914       0.0205941       0.0213347 
        2.43483       0.0201713       0.0209984 
         2.4505       0.0198916         0.02067 
        2.46622       0.0195948       0.0203474 
        2.48195       0.0192296       0.0200317 
        2.49759       0.0189551       0.0197244 
        2.51328       0.0187163       0.0194228 
        2.52906       0.0184101       0.0191255 
        2.54479       0.0181255       0.0188356 
        2.56049        0.017839       0.0185522 
        2.57618       0.0175578        0.018275 
        2.59189       0.0172812        0.018003 
        2.60758       0.0170282       0.0177369 
        2.62325       0.0167627       0.0174766 
        2.63898       0.0164891       0.0172205 
        2.65468       0.0162544       0.0169702 
        2.67044       0.0160525       0.0167237 
        2.68618        0.015786       0.0164828 
        2.70184       0.0155386       0.0162475 
        2.71755       0.0152673       0.0160162 
        2.73329       0.0150649       0.0157891 
        2.74897       0.0148996       0.0155671 
        2.76462       0.0146382       0.0153499 
        2.78034       0.0144333        0.015136 
        2.79607        0.014244       0.0149259 
        2.81179       0.0140344         0.01472 
        2.82749       0.0138252       0.0145182 
        2.84321       0.0136322         0.01432 
        2.85893       0.0134133       0.0141256 
        2.87462       0.0132489       0.0139351 
        2.89033       0.0131078       0.0137479 
        2.90605       0.0128779        0.013564 
        2.92176       0.0127429       0.0133836 
        2.93747       0.0125377       0.0132066 
        2.95318       0.0123587       0.0130327 
        2.96891       0.0122135       0.0128618 
        2.98456       0.0120889       0.0126948 
        3.00023        0.011882       0.0125305 
        3.01596       0.0116722       0.0123686 
        3.03164       0.0116074       0.0122101 
        3.04738       0.0114266       0.0120538 
         3.0631       0.0112246       0.0119004 
        3.07883       0.0110919       0.0117496 
        3.09456       0.0109984       0.0116014 
        3.11026       0.0108162        0.011456 
        3.12596       0.0107106       0.0113131 
        3.14163       0.0105474        0.011173 
        3.15734       0.0104222        0.011035 
        3.17308       0.0102694       0.0108989 
        3.18879       0.0101763       0.0107655 
        3.20447       0.0100531       0.0106345 
         3.2202      0.00991567       0.0105053 
         3.2359      0.00979687       0.0103785 
        3.25157       0.0096583       0.0102541 
        3.26729      0.00957681       0.0101313 
        3.28304      0.00943496       0.0100103 
        3.29877      0.00933388      0.00989148 
        3.31446      0.00921817      0.00977482 
        3.33014      0.00907598      0.00966013 
        3.34585      0.00896269      0.00954711 
        3.36158       0.0088696      0.00943573 
        3.37727       0.0087892      0.00932647 
        3.39294      0.00868694      0.00921904 
        3.40867      0.00860119      0.00911292 
        3.42439      0.00848775      0.00900853 
        3.44008      0.00838922      0.00890598 
        3.45578      0.00828883      0.00880494 
        3.47153      0.00819742      0.00870525 
        3.48724      0.00813062      0.00860728 
        3.50292      0.00798083      0.00851104 
        3.51859      0.00791222      0.00841632 
        3.53431      0.00784597      0.00832275 
        3.55007      0.00778431      0.00823037 
        3.56577      0.00770495      0.00813976 
        3.58146      0.00756287      0.00805055 
        3.59719      0.00749962      0.00796247 
        3.61292      0.00740361      0.00787574 
        3.62859      0.00734893      0.00779063 
        3.64429      0.00726928      0.00770661 
        3.66003      0.00720149      0.00762357 
        3.67578      0.00712532      0.00754179 
        3.69146      0.00704535      0.00746151 
        3.70712      0.00698057      0.00738255 
        3.72284      0.00689585      0.00730444 
        3.73853      0.00682449      0.00722759 
        3.75422      0.00677613      0.00715182 
        3.76993      0.00668909      0.00707707 
        3.78564      0.00666343      0.00700342 
        3.80137      0.00658335       0.0069307 
        3.81707      0.00649664      0.00685916 
        3.83279       0.0064425      0.00678857 
        3.84853      0.00638397      0.00671887 
        3.86424      0.00630759      0.00665027 
        3.87992      0.00625618      0.00658274 
        3.89561      0.00620213      0.00651614 
        3.91134      0.00615283      0.00645032 
        3.92704      0.00606648      0.00638549 
        3.94273       0.0060438      0.00632162 
        3.95845      0.00596196       0.0062585 
        3.97418      0.00590497      0.00619623 
        3.98988      0.00587509      0.00613489 
        4.00554      0.00578792      0.00607455 
        4.02125      0.00571708      0.00601484 
        4.03698      0.00566895      0.00595585 
        4.05268      0.00559604      0.00589778 
        4.06839      0.00552952      0.00584044 
         4.0841      0.00546626      0.00578388 
        4.09983      0.00540686      0.00572799 
        4.11555      0.00534724      0.00567286 
        4.13124      0.00528473      0.00561861 
        4.14693      0.00524039      0.00556502 
        4.16266      0.00516403      0.00551201 
        4.17839      0.00511996      0.00545971 
        4.19408      0.00506581      0.00540822 
        4.20977      0.00503131      0.00535736 
        4.22551      0.00498139      0.00530704 
        4.24123       0.0049338      0.00525742 
        4.25691      0.00488451      0.00520856 
        4.27259      0.00484552      0.00516031 
        4.28831       0.0048169      0.00511258 
        4.30404      0.00476761       0.0050654 
        4.31974      0.00472396      0.00501892 
        4.33543      0.00468739      0.00497305 
        4.35116       0.0046522      0.00492764 
        4.36688      0.00462265      0.00488281 
        4.38255      0.00459824      0.00483871 
        4.39825      0.00458047      0.00479506 
        4.41398      0.00455337      0.00475186 
         4.4297      0.00453234      0.00470924 
        4.44541       0.0045114      0.00466715 
        4.46111      0.00448232       0.0046256 
        4.47683      0.00447997      0.00458453 
        4.49251      0.00444089      0.00454405 
        4.50819      0.00444282      0.00450406 
         4.5239      0.00443625      0.00446449 
        4.53962      0.00442075      0.00442535 
        4.55535      0.00441028      0.00438666 
        4.57106       0.0044183      0.00434849 
        4.58678      0.00440275      0.00431077 
         4.6025      0.00441101      0.00427348 
        4.61821      0.00440965      0.00423664 
        4.63391      0.00440306      0.00420028 
         4.6496      0.00441083      0.00416436 
        4.66532      0.00440063      0.00412881 
        4.68103      0.00441927      0.00409369 
        4.69673      0.00441351      0.00405901 
        4.71241      0.00444104      0.00402476 
        4.72811         0.00445      0.00399086 
        4.74384      0.00445995       0.0039573 
        4.75955      0.00448286      0.00392417 
        4.77525      0.00450183      0.00389145 
        4.79096       0.0045227      0.00385906 
        4.80669      0.00453514      0.00382702 
         4.8224      0.00455933      0.00379538 
        4.83809      0.00456705      0.00376413 
        4.85379      0.00462961      0.00373321 
         4.8695      0.00464611      0.00370262 
        4.88521      0.00466042      0.00367238 
        4.90093      0.00471033      0.00364247 
        4.91663      0.00475533      0.00361293 
        4.93234      0.00477442      0.00358368 
        4.94807       0.0048396      0.00355473 
        4.96377      0.00489279      0.00352616 
        4.97943      0.00492184      0.00349796 
        4.99514      0.00496702         0.00347 
        5.01086      0.00499633      0.00344232 
        5.02654      0.00506794      0.00341502 
        5.04227      0.00511155      0.00338793 
          5.058      0.00518661      0.00336112 
        5.07371      0.00525363      0.00333465 
        5.08942      0.00531401      0.00330846 
        5.10513       0.0053505      0.00328256 
        5.12084      0.00543955      0.00325691 
        5.13656      0.00547647      0.00323155 
        5.15225      0.00556743       0.0032065 
        5.16796      0.00564325      0.00318167 
        5.18369      0.00573415      0.00315709 
         5.1994      0.00583628       0.0031328 
        5.21509      0.00590138       0.0031088 
        5.23079      0.00595325      0.00308502 
        5.24649      0.00609705       0.0030615 
        5.26217      0.00616047      0.00303825 
        5.27788      0.00626192      0.00301521 
        5.29359      0.00638043       0.0029924 
        5.30933      0.00647281      0.00296979 
        5.32504      0.00657731      0.00294745 
        5.34073      0.00671406      0.00292537 
        5.35646      0.00680929      0.00290347 
        5.37218      0.00689249      0.00288179 
        5.38789      0.00701772      0.00286037 
        5.40357       0.0071521      0.00283918 
        5.41929      0.00726016      0.00281817 
        5.43502      0.00742149      0.00279737 
         5.4507      0.00757969      0.00277682 
        5.46639      0.00773511      0.00275648 
        5.48212      0.00778914      0.00273629 
        5.49786      0.00801266      0.00271629 
        5.51353        0.008135      0.00269658 
        5.52921      0.00827847      0.00267705 
        5.54495      0.00845993      0.00265765 
        5.56066       0.0086267      0.00263847 
        5.57637      0.00880105      0.00261947 
        5.59207      0.00897814      0.00260069 
        5.60778       0.0091525      0.00258207 
        5.62346      0.00937987      0.00256367 
        5.63916      0.00954662      0.00254543 
        5.65487       0.0097145      0.00252736 
         5.6706      0.00994428      0.00250944 
        5.68633       0.0101897      0.00249168 
        5.70203       0.0103853      0.00247414 
        5.71773        0.010673      0.00245677 
        5.73344       0.0108127      0.00243955 
        5.74916       0.0110876      0.00242249 
        5.76486       0.0113802      0.00240561 
        5.78054       0.0115828      0.00238892 
        5.79626       0.0117922      0.00237233 
          5.812       0.0121217      0.00235589 
         5.8277       0.0123739      0.00233966 
        5.84339       0.0127232      0.00232357 
        5.85911       0.0129867      0.00230761 
        5.87484       0.0133085       0.0022918 
        5.89053       0.0136571      0.00227617 
        5.90623       0.0140474      0.00226067 
        5.92195       0.0143418       0.0022453 
        5.93767        0.014649      0.00223007 
        5.95336       0.0149296      0.00221501 
        5.96905       0.0154563       0.0022001 
        5.98476       0.0156859       0.0021853 
        6.00048         0.01608      0.00217064 
        6.01617       0.0164974      0.00215612 
        6.03185       0.0168135      0.00214176 
        6.04756        0.017346       0.0021275 
        6.06331       0.0177369      0.00211333 
        6.07903       0.0182139      0.00209932 
        6.09473        0.018535      0.00208545 
        6.11044       0.0191583       0.0020717 
        6.12616       0.0196203      0.00205807 
        6.14186       0.0200662      0.00204458 
        6.15755       0.0205917      0.00203121 
        6.17326       0.0211588      0.00201794 
        6.18898       0.0217986      0.00200479 
        6.20467       0.0223631      0.00199178 
        6.22036       0.0229426      0.00197889 
         6.2361       0.0235655      0.00196608 
         6.2518       0.0242423       0.0019534 
        6.26748       0.0247594      0.00194086 
        6.28319       0.0254616      0.00192839 
        6.29893       0.0261182      0.00191603 
        6.31463       0.0270075      0.00190379 
        6.33033        0.027607      0.00189166 
        6.34604       0.0283838      0.00187964 
        6.36177       0.0292394       0.0018677 
        6.37747       0.0300667      0.00185589 
