# k  (h/Mpc)    Pcb(k)  (Mpc/h)^3    Pcb_linear(k) (Mpc/h)^3   ShotnoiseSubtracted = true
      0.0200456         23862.3         24295.3 
      0.0350414         18230.3         17661.9 
      0.0492313         12526.3         12832.8 
      0.0637834         10094.6         10667.8 
      0.0800726         7916.66         8466.76 
       0.096163         6389.23         6143.37 
       0.111083         5204.03         4900.11 
       0.126058         4298.91          4342.5 
       0.142273         3775.43         3679.05 
       0.158546         3097.09         2905.68 
        0.17375         2780.33         2448.03 
       0.188953         2646.67         2216.64 
       0.204907         2278.27         1961.27 
       0.220756         2064.24         1659.35 
        0.23588         1843.65         1443.49 
         0.2514         1674.56          1311.4 
       0.267535         1612.63         1186.59 
       0.283568         1442.88         1046.41 
       0.299022         1374.65         932.301 
       0.314451         1434.23          852.06 
       0.330372         1277.37         781.669 
       0.346141         1173.01         709.484 
       0.361624         1125.34         644.824 
       0.377134         1082.05          593.34 
       0.392932         1028.55         549.006 
       0.408854         988.977         506.077 
       0.424564         968.667         466.459 
       0.440253         902.285         432.461 
       0.455999         862.735         402.899 
       0.471626         876.002         375.732 
        0.48727         827.977         350.318 
       0.502856         800.345         327.488 
       0.518488         772.637         307.118 
       0.534347         745.839          288.18 
       0.550082         711.629         270.719 
       0.565732         699.783         254.745 
       0.581496         684.882         240.114 
       0.597222         672.728         226.696 
       0.612804         655.716         214.358 
       0.628434         629.183         202.857 
       0.644267         612.672         192.106 
       0.660051         606.244         182.196 
       0.675724         594.569         173.046 
       0.691403         575.023         164.517 
       0.707174         559.556         156.514 
       0.722871         555.227         149.076 
        0.73838         541.028           142.2 
       0.754018         529.733         135.707 
       0.769845         522.293         129.548 
        0.78569         510.834         123.766 
       0.801365         494.578         118.395 
       0.817031         489.827         113.347 
       0.832809         481.874         108.563 
       0.848511         474.164         104.078 
       0.864097         464.454         99.8783 
       0.879701          464.66         95.9075 
       0.895507         446.223         92.1067 
       0.911279         440.925         88.5208 
        0.92691         434.865         85.1563 
       0.942635         429.229          81.949 
       0.958396         416.778         78.9007 
       0.974128         410.509         76.0138 
       0.989692          400.03         73.3004 
        1.00528         395.345          70.716 
        1.02113         388.631         68.2162 
        1.03692         383.019          65.847 
        1.05264         377.908         63.6017 
        1.06832         369.095          61.465 
        1.08405         367.988         59.4212 
        1.09979         359.491         57.4695 
        1.11537         350.659         55.6251 
        1.13105         346.679          53.851 
        1.14679         340.538         52.1477 
        1.16256         338.669          50.515 
        1.17828         333.255         48.9579 
        1.19395         324.943         47.4719 
         1.2097         321.976         46.0402 
        1.22537         317.204         44.6747 
          1.241         310.493         43.3689 
        1.25666         307.456         42.1123 
        1.27241         303.723         40.8997 
        1.28819         295.933         39.7329 
        1.30392         295.785         38.6152 
        1.31957         288.142         37.5457 
        1.33529         284.083         36.5128 
        1.35108         282.873         35.5148 
        1.36674         275.381         34.5614 
         1.3824         271.828          33.644 
        1.39811         268.458         32.7569 
        1.41389         263.087         31.8985 
        1.42964         259.443         31.0724 
        1.44531         256.196         30.2796 
        1.46101         251.502         29.5129 
        1.47667          249.11         28.7752 
        1.49229         245.704         28.0646 
        1.50793         241.636         27.3774 
        1.52367         237.816         26.7088 
        1.53953         234.381          26.058 
        1.55526         231.268         25.4342 
        1.57092         229.347         24.8335 
        1.58662         224.315         24.2508 
        1.60235         221.475         23.6857 
        1.61809         219.587         23.1383 
        1.63369         215.388         22.6132 
        1.64941          212.37         22.1006 
        1.66519         209.477         21.6021 
        1.68085         205.747         21.1226 
        1.69652         203.567         20.6575 
        1.71228         200.509         20.2038 
        1.72806         198.245         19.7634 
        1.74368         195.756         19.3405 
        1.75933         194.247         18.9293 
        1.77505         191.192          18.528 
        1.79081         188.043         18.1378 
         1.8065         187.033         17.7604 
        1.82218         182.117         17.3942 
        1.83797         180.752         17.0357 
        1.85367          178.19         16.6894 
        1.86928         175.371         16.3548 
        1.88497         173.607         16.0276 
        1.90073         172.077         15.7081 
        1.91647         168.979         15.3976 
        1.93218         166.177         15.0962 
        1.94787         164.142         14.8033 
        1.96363         163.241         14.5171 
        1.97935         161.242          14.239 
        1.99499         158.732         13.9698 
        2.01064         155.511         13.7071 
         2.0264         154.979         13.4496 
        2.04216         152.057         13.1988 
        2.05781         149.831          12.956 
        2.07353         149.011         12.7185 
        2.08928         147.092         12.4864 
        2.10499         145.154         12.2607 
        2.12065         143.595         12.0413 
        2.13633         141.487         11.8271 
        2.15211         139.421         11.6167 
        2.16785         138.099          11.412 
        2.18349         136.539         11.2135 
        2.19916         134.564         11.0194 
        2.21489         132.691         10.8292 
        2.23063         131.215         10.6433 
         2.2463         129.395         10.4627 
        2.26194         128.345         10.2867 
        2.27765         126.223         10.1139 
        2.29341         125.242         9.94458 
        2.30914         123.626          9.7795 
        2.32486         121.902         9.61827 
        2.34061          120.09          9.4604 
        2.35635         119.253         9.30622 
        2.37203         117.471         9.15601 
        2.38768         116.536         9.00944 
        2.40339         114.389         8.86554 
        2.41914         113.152         8.72445 
        2.43483         112.123         8.58693 
         2.4505         111.087         8.45261 
        2.46622         109.065         8.32071 
        2.48195         108.105         8.19161 
        2.49759         106.363         8.06594 
        2.51328         105.368         7.94259 
        2.52906         104.436         7.82103 
        2.54479         102.993         7.70247 
        2.56049         101.611          7.5866 
        2.57618         100.508         7.47322 
        2.59189         99.9022         7.36198 
        2.60758         98.2269         7.25319 
        2.62325         97.4309         7.14672 
        2.63898         96.1612         7.04203 
        2.65468         95.2979         6.93965 
        2.67044         94.3882         6.83887 
        2.68618         92.8496         6.74032 
        2.70184         91.9394         6.64411 
        2.71755           91.15         6.54954 
        2.73329         89.6359         6.45667 
        2.74897         88.8204          6.3659 
        2.76462         88.4795         6.27707 
        2.78034         87.0895         6.18958 
        2.79607         85.8188         6.10366 
        2.81179          85.087         6.01947 
        2.82749           84.43         5.93696 
        2.84321         83.1019         5.85591 
        2.85893          81.873          5.7764 
        2.87462          81.437          5.6985 
        2.89033         80.4016         5.62196 
        2.90605         79.5175         5.54677 
        2.92176         78.9613         5.47299 
        2.93747         77.9653         5.40058 
        2.95318         76.8057         5.32948 
        2.96891         76.4052         5.25962 
        2.98456         75.1705         5.19132 
        3.00023         74.5382         5.12414 
        3.01596         73.9265         5.05793 
        3.03164         72.9751         4.99309 
        3.04738         72.6038         4.92919 
         3.0631         71.4175         4.86643 
        3.07883         70.8222         4.80477 
        3.09456         69.8718         4.74418 
        3.11026         69.5247         4.68473 
        3.12596         68.5387          4.6263 
        3.14163         67.9387         4.56901 
        3.15734         66.9536         4.51255 
        3.17308         66.5597         4.45691 
        3.18879         65.8179         4.40236 
        3.20447         65.2082          4.3488 
         3.2202           64.19         4.29597 
         3.2359         63.6736         4.24411 
        3.25157         63.1784         4.19323 
        3.26729         62.3312         4.14303 
        3.28304         61.6409         4.09355 
        3.29877         61.2209         4.04494 
        3.31446          60.301         3.99723 
        3.33014         59.8731         3.95034 
        3.34585         59.2164         3.90412 
        3.36158         58.7874         3.85857 
        3.37727         58.2568         3.81389 
        3.39294         57.5096         3.76996 
        3.40867         57.0801         3.72656 
        3.42439          56.386         3.68388 
        3.44008         55.8409         3.64194 
        3.45578         55.2837         3.60062 
        3.47153         54.7634         3.55985 
        3.48724         54.3168         3.51979 
        3.50292         53.8043         3.48044 
        3.51859         53.2595          3.4417 
        3.53431         52.6613         3.40344 
        3.55007         52.0096         3.36566 
        3.56577         51.5195         3.32861 
        3.58146         51.0557         3.29213 
        3.59719         50.6794         3.25611 
        3.61292         50.0179         3.22064 
        3.62859         49.6681         3.18584 
        3.64429         49.1881         3.15148 
        3.66003         48.7786         3.11752 
        3.67578         48.1815         3.08408 
        3.69146         47.8303         3.05125 
        3.70712         47.4034         3.01896 
        3.72284          46.908         2.98702 
        3.73853         46.4996         2.95559 
        3.75422          46.063         2.92461 
        3.76993          45.665         2.89404 
        3.78564         45.2327         2.86392 
        3.80137         44.8031         2.83418 
        3.81707         44.3025         2.80493 
        3.83279          43.938         2.77606 
        3.84853         43.5668         2.74756 
        3.86424         43.1259         2.71951 
        3.87992         42.6667         2.69189 
        3.89561          42.418         2.66466 
        3.91134         41.9252         2.63774 
        3.92704           41.59         2.61123 
        3.94273         41.2383         2.58511 
        3.95845          40.747          2.5593 
        3.97418         40.4492         2.53384 
        3.98988         40.1238         2.50875 
        4.00554         39.6361         2.48408 
        4.02125         39.3745         2.45966 
        4.03698          38.976         2.43554 
        4.05268         38.6859         2.41179 
        4.06839         38.3504         2.38834 
         4.0841         38.0275         2.36521 
        4.09983         37.6602         2.34236 
        4.11555         37.3858         2.31981 
        4.13124         36.8597         2.29763 
        4.14693         36.6705         2.27571 
        4.16266         36.3544         2.25403 
        4.17839         35.9336         2.23265 
        4.19408         35.6854         2.21159 
        4.20977         35.3668          2.1908 
        4.22551         35.0806         2.17022 
        4.24123         34.7797         2.14993 
        4.25691         34.4223         2.12995 
        4.27259         34.1588         2.11022 
        4.28831         33.9453          2.0907 
        4.30404         33.6515          2.0714 
        4.31974         33.3148          2.0524 
        4.33543          32.969         2.03364 
        4.35116         32.7462         2.01507 
        4.36688           32.41         1.99674 
        4.38255         32.2289          1.9787 
        4.39825         31.9916         1.96085 
        4.41398         31.6973         1.94319 
         4.4297         31.3583         1.92576 
        4.44541         31.1883         1.90855 
        4.46111         30.7992         1.89156 
        4.47683         30.7005         1.87476 
        4.49251          30.419         1.85821 
        4.50819         30.1122         1.84185 
         4.5239         29.7977         1.82567 
        4.53962         29.5743         1.80967 
        4.55535         29.3831         1.79385 
        4.57106         29.0291         1.77824 
        4.58678         28.8935         1.76281 
         4.6025         28.6483         1.74756 
        4.61821         28.3799          1.7325 
        4.63391         28.2039         1.71763 
         4.6496         27.9253         1.70294 
        4.66532         27.7074          1.6884 
        4.68103          27.431         1.67404 
        4.69673         27.3032         1.65986 
        4.71241         27.0243         1.64585 
        4.72811         26.8455         1.63199 
        4.74384         26.7071         1.61826 
        4.75955         26.5018         1.60472 
        4.77525         26.2106         1.59134 
        4.79096         25.9891         1.57809 
        4.80669         25.7802         1.56499 
         4.8224         25.6238         1.55205 
        4.83809         25.3493         1.53927 
        4.85379         25.2066         1.52663 
         4.8695         24.9819         1.51412 
        4.88521         24.7842         1.50175 
        4.90093         24.5967         1.48952 
        4.91663         24.4381         1.47744 
        4.93234         24.1895         1.46548 
        4.94807         23.9618         1.45364 
        4.96377          23.811         1.44196 
        4.97943         23.6868         1.43043 
        4.99514         23.5047         1.41899 
        5.01086         23.3028         1.40768 
        5.02654         23.1063         1.39651 
        5.04227          22.888         1.38543 
          5.058         22.6676         1.37447 
        5.07371         22.5741         1.36364 
        5.08942         22.3676         1.35294 
        5.10513          22.235         1.34234 
        5.12084         22.0295         1.33186 
        5.13656         21.8951         1.32148 
        5.15225         21.7663         1.31124 
        5.16796         21.5707         1.30109 
        5.18369         21.3862         1.29103 
         5.1994         21.1964          1.2811 
        5.21509         21.0779         1.27129 
        5.23079         20.9289         1.26156 
        5.24649         20.7856         1.25195 
        5.26217         20.5825         1.24244 
        5.27788         20.4747         1.23301 
        5.29359         20.2878         1.22369 
        5.30933         20.1104         1.21444 
        5.32504         19.9909         1.20531 
        5.34073         19.8359         1.19628 
        5.35646         19.6456         1.18732 
        5.37218         19.5594         1.17846 
        5.38789         19.4179         1.16969 
        5.40357         19.2459         1.16103 
        5.41929         19.1308         1.15244 
        5.43502         18.9902         1.14393 
         5.4507         18.8452         1.13553 
        5.46639         18.7048         1.12721 
        5.48212         18.5743         1.11896 
        5.49786         18.4144         1.11078 
        5.51353         18.2901         1.10272 
        5.52921         18.1477         1.09473 
        5.54495         18.0327          1.0868 
        5.56066         17.8745         1.07895 
        5.57637         17.7419         1.07119 
        5.59207         17.6118          1.0635 
        5.60778         17.5719         1.05589 
        5.62346         17.3555         1.04837 
        5.63916         17.2503         1.04091 
        5.65487         17.1012         1.03352 
         5.6706          17.024         1.02619 
        5.68633         16.9108         1.01893 
        5.70203         16.7874         1.01175 
        5.71773         16.6684         1.00465 
        5.73344          16.555        0.997611 
        5.74916          16.421        0.990632 
        5.76486         16.3069         0.98373 
        5.78054         16.1665        0.976904 
        5.79626          16.128        0.970123 
          5.812         15.9764          0.9634 
         5.8277          15.827         0.95676 
        5.84339         15.7317        0.950183 
        5.85911         15.6301        0.943655 
        5.87484         15.5122        0.937189 
        5.89053         15.4006        0.930797 
        5.90623         15.3062        0.924461 
        5.92195         15.1651        0.918173 
        5.93767         15.0835        0.911948 
        5.95336         14.9827         0.90579 
        5.96905         14.8821        0.899691 
        5.98476         14.7864         0.89364 
        6.00048         14.6662        0.887642 
        6.01617         14.5845        0.881708 
        6.03185         14.4801        0.875835 
        6.04756         14.3837        0.870001 
        6.06331         14.2895        0.864208 
        6.07903         14.1433         0.85848 
        6.09473         14.0601        0.852809 
        6.11044         13.9955        0.847184 
        6.12616         13.9043         0.84161 
        6.14186         13.8076        0.836093 
        6.15755         13.6968        0.830625 
        6.17326          13.611        0.825201 
        6.18898         13.5035        0.819824 
        6.20467         13.4032        0.814504 
        6.22036         13.3241        0.809232 
         6.2361         13.2185        0.803992 
         6.2518          13.138        0.798807 
        6.26748         13.0773        0.793679 
        6.28319         12.9739        0.788581 
        6.29893         12.8933        0.783525 
        6.31463         12.8144        0.778521 
        6.33033         12.7157        0.773562 
        6.34604         12.6255        0.768643 
        6.36177         12.5596        0.763762 
        6.37747         12.4677        0.758932 
