# k  (h/Mpc)    Pcb(k)  (Mpc/h)^3    Pcb_linear(k) (Mpc/h)^3   ShotnoiseSubtracted = true
      0.0200456         4544.14          4617.1 
      0.0350414         3302.03         3356.48 
      0.0492313         2437.22         2438.75 
      0.0637834         2058.74         2027.31 
      0.0800726         1631.75         1609.03 
       0.096163          1154.7         1167.49 
       0.111083         915.849          931.22 
       0.126058         834.964         825.251 
       0.142273         717.099         699.169 
       0.158546         579.607         552.197 
        0.17375         472.135         465.225 
       0.188953         444.132         421.251 
       0.204907         412.823         372.721 
       0.220756         345.084         315.345 
        0.23588         301.321         274.323 
         0.2514         267.115         249.219 
       0.267535          250.53         225.501 
       0.283568          225.75         198.861 
       0.299022         206.612         177.175 
       0.314451         187.148         161.926 
       0.330372         173.863         148.549 
       0.346141          156.86         134.831 
       0.361624         147.639         122.543 
       0.377134         138.934         112.759 
       0.392932         125.078         104.333 
       0.408854         120.247         96.1752 
       0.424564         114.785         88.6461 
       0.440253         106.678         82.1852 
       0.455999         100.422         76.5672 
       0.471626         93.1243         71.4043 
        0.48727         89.9552         66.5747 
       0.502856         85.3194         62.2361 
       0.518488         82.0998         58.3648 
       0.534347         78.8196          54.766 
       0.550082         72.4981         51.4476 
       0.565732         68.8113         48.4118 
       0.581496         66.6298         45.6314 
       0.597222         64.4513         43.0814 
       0.612804         60.7298         40.7367 
       0.628434         59.1135         38.5512 
       0.644267         57.3827         36.5079 
       0.660051         55.1623         34.6247 
       0.675724         52.6252         32.8858 
       0.691403         51.0392         31.2649 
       0.707174          49.499         29.7441 
       0.722871         47.7485         28.3304 
        0.73838         46.4155         27.0238 
       0.754018         44.2474         25.7898 
       0.769845         43.2044         24.6193 
        0.78569         41.9655         23.5206 
       0.801365         40.4612         22.4998 
       0.817031         39.5323         21.5405 
       0.832809         38.8133         20.6314 
       0.848511          36.651          19.779 
       0.864097         35.9826         18.9809 
       0.879701         35.3003         18.2263 
       0.895507          34.691          17.504 
       0.911279         33.5757         16.8225 
        0.92691         32.7768         16.1832 
       0.942635         31.5784         15.5736 
       0.958396         31.2368         14.9943 
       0.974128         30.2906         14.4457 
       0.989692         29.9171           13.93 
        1.00528         29.2327         13.4389 
        1.02113         28.1795         12.9639 
        1.03692         27.6375         12.5136 
        1.05264         27.1946         12.0869 
        1.06832         26.5213         11.6809 
        1.08405         25.9806         11.2924 
        1.09979         25.4571         10.9215 
        1.11537         24.8525          10.571 
        1.13105         24.6253         10.2339 
        1.14679         24.2795         9.91018 
        1.16256         23.4412         9.59991 
        1.17828         23.2764         9.30399 
        1.19395         22.6413         9.02159 
         1.2097         22.4789         8.74952 
        1.22537         21.9764         8.49002 
          1.241         21.5783         8.24186 
        1.25666         21.0202         8.00304 
        1.27241         20.7232          7.7726 
        1.28819         20.2599         7.55087 
        1.30392         20.1033         7.33847 
        1.31957         19.8962          7.1352 
        1.33529         19.6013         6.93892 
        1.35108         19.1399         6.74926 
        1.36674         18.8711         6.56807 
         1.3824         18.4866         6.39372 
        1.39811         18.2489         6.22514 
        1.41389         18.0776         6.06201 
        1.42964         17.7791         5.90501 
        1.44531         17.6537         5.75436 
        1.46101         17.1569         5.60866 
        1.47667         16.9644         5.46845 
        1.49229         16.7801         5.33342 
        1.50793         16.5523         5.20281 
        1.52367         16.3362         5.07575 
        1.53953         16.1354         4.95209 
        1.55526         15.8585         4.83354 
        1.57092         15.6173         4.71937 
        1.58662         15.4747         4.60863 
        1.60235         15.2478         4.50124 
        1.61809         15.0714         4.39722 
        1.63369         14.8741         4.29742 
        1.64941         14.5981         4.20001 
        1.66519         14.5308         4.10528 
        1.68085         14.3038         4.01415 
        1.69652         14.1188         3.92576 
        1.71228         13.9532         3.83954 
        1.72806           13.85         3.75585 
        1.74368         13.6279         3.67549 
        1.75933         13.4809         3.59733 
        1.77505         13.3172         3.52108 
        1.79081         13.1198         3.44691 
         1.8065         13.0501          3.3752 
        1.82218         12.8044          3.3056 
        1.83797         12.6816         3.23748 
        1.85367         12.5314         3.17167 
        1.86928         12.4953         3.10808 
        1.88497         12.2444         3.04589 
        1.90073          12.225         2.98518 
        1.91647         12.0657         2.92617 
        1.93218         11.9594         2.86889 
        1.94787          11.805         2.81323 
        1.96363         11.7194         2.75883 
        1.97935         11.5445         2.70599 
        1.99499         11.3907         2.65482 
        2.01064         11.2912         2.60491 
         2.0264         11.1917         2.55597 
        2.04216         11.0622         2.50831 
        2.05781          10.901         2.46217 
        2.07353         10.8467         2.41703 
        2.08928         10.7282         2.37292 
        2.10499         10.6613         2.33003 
        2.12065         10.4911         2.28833 
        2.13633         10.4782         2.24762 
        2.15211         10.3093         2.20764 
        2.16785         10.2719         2.16874 
        2.18349         10.1928         2.13102 
        2.19916         10.0533         2.09413 
        2.21489         9.96132         2.05798 
        2.23063         9.85738         2.02267 
         2.2463         9.74305         1.98834 
        2.26194         9.65906          1.9549 
        2.27765         9.62492         1.92205 
        2.29341         9.50851         1.88988 
        2.30914         9.36412          1.8585 
        2.32486         9.31954         1.82786 
        2.34061         9.23854         1.79786 
        2.35635         9.17681         1.76856 
        2.37203         9.09781         1.74001 
        2.38768         8.95084         1.71216 
        2.40339         8.90373         1.68481 
        2.41914         8.79435           1.658 
        2.43483         8.77657         1.63187 
         2.4505         8.69961         1.60634 
        2.46622         8.60444         1.58127 
        2.48195         8.53879         1.55674 
        2.49759         8.46851         1.53286 
        2.51328         8.37684         1.50941 
        2.52906         8.33149         1.48631 
        2.54479         8.24547         1.46378 
        2.56049         8.20341         1.44176 
        2.57618         8.14431         1.42022 
        2.59189         8.02633         1.39908 
        2.60758         8.01254          1.3784 
        2.62325         7.93607         1.35817 
        2.63898         7.81769         1.33827 
        2.65468         7.74689         1.31882 
        2.67044         7.71652         1.29966 
        2.68618         7.64772         1.28094 
        2.70184         7.59579         1.26265 
        2.71755         7.51658         1.24468 
        2.73329         7.45767         1.22703 
        2.74897         7.41287         1.20978 
        2.76462          7.3805          1.1929 
        2.78034         7.28062         1.17627 
        2.79607           7.236         1.15994 
        2.81179         7.19455         1.14394 
        2.82749         7.13586         1.12826 
        2.84321         7.11687         1.11286 
        2.85893         7.04217         1.09775 
        2.87462         6.96026         1.08295 
        2.89033         6.90472          1.0684 
        2.90605          6.8574         1.05411 
        2.92176         6.80152         1.04009 
        2.93747         6.75324         1.02633 
        2.95318         6.73523         1.01282 
        2.96891         6.65331        0.999541 
        2.98456         6.59684        0.986562 
        3.00023         6.53976        0.973794 
        3.01596         6.51187        0.961213 
        3.03164         6.47152         0.94889 
        3.04738         6.43926        0.936747 
         3.0631         6.36151         0.92482 
        3.07883         6.31325        0.913101 
        3.09456         6.26781        0.901587 
        3.11026         6.23612        0.890288 
        3.12596         6.19298        0.879185 
        3.14163         6.12683        0.868297 
        3.15734         6.08991        0.857568 
        3.17308          6.0507        0.846994 
        3.18879          5.9918        0.836627 
        3.20447         5.97663        0.826449 
         3.2202         5.89946        0.816409 
         3.2359         5.88768        0.806553 
        3.25157         5.83013        0.796884 
        3.26729         5.81473        0.787343 
        3.28304         5.75062        0.777941 
        3.29877         5.70245        0.768704 
        3.31446         5.66875        0.759637 
        3.33014         5.63818        0.750724 
        3.34585         5.60271        0.741941 
        3.36158         5.55625        0.733285 
        3.37727         5.52596        0.724794 
        3.39294         5.50036        0.716446 
        3.40867         5.43537        0.708199 
        3.42439         5.41774        0.700086 
        3.44008         5.36811        0.692116 
        3.45578         5.32761        0.684264 
        3.47153         5.29775        0.676517 
        3.48724         5.26969        0.668903 
        3.50292         5.23035        0.661424 
        3.51859         5.19198        0.654063 
        3.53431         5.14065        0.646792 
        3.55007         5.12762        0.639613 
        3.56577         5.09724        0.632571 
        3.58146         5.06997        0.625638 
        3.59719         5.02328        0.618793 
        3.61292         5.00255        0.612053 
        3.62859         4.95156        0.605438 
        3.64429         4.92401        0.598909 
        3.66003         4.89221        0.592456 
        3.67578         4.86017          0.5861 
        3.69146         4.80386        0.579862 
        3.70712         4.79849        0.573725 
        3.72284         4.76538        0.567655 
        3.73853         4.73618        0.561683 
        3.75422         4.70027        0.555794 
        3.76993         4.67474        0.549985 
        3.78564         4.63477        0.544262 
        3.80137         4.61636         0.53861 
        3.81707         4.58453        0.533051 
        3.83279         4.54938        0.527565 
        3.84853         4.50742        0.522148 
        3.86424         4.48197        0.516817 
        3.87992         4.46076        0.511569 
        3.89561          4.4453        0.506393 
        3.91134         4.39539        0.501278 
        3.92704         4.36529         0.49624 
        3.94273         4.34835        0.491276 
        3.95845         4.32533        0.486371 
        3.97418         4.29266        0.481532 
        3.98988         4.27322        0.476765 
        4.00554         4.24148        0.472075 
        4.02125         4.21156        0.467435 
        4.03698         4.17503        0.462851 
        4.05268         4.14341        0.458338 
        4.06839         4.13262        0.453882 
         4.0841         4.09092        0.449487 
        4.09983         4.06569        0.445143 
        4.11555         4.03116        0.440859 
        4.13124         4.00992        0.436643 
        4.14693          3.9815        0.432478 
        4.16266          3.9644        0.428358 
        4.17839         3.93627        0.424294 
        4.19408         3.89761        0.420292 
        4.20977         3.88321         0.41634 
        4.22551         3.85019         0.41243 
        4.24123          3.8351        0.408573 
        4.25691         3.81093        0.404777 
        4.27259         3.79804        0.401027 
        4.28831         3.76076        0.397317 
        4.30404         3.73847        0.393651 
        4.31974         3.71387        0.390039 
        4.33543         3.67651        0.386474 
        4.35116         3.65737        0.382945 
        4.36688         3.63946        0.379461 
        4.38255         3.61025        0.376034 
        4.39825         3.60215        0.372642 
        4.41398         3.58453        0.369285 
         4.4297         3.55573        0.365972 
        4.44541          3.5316        0.362701 
        4.46111         3.51702        0.359473 
        4.47683         3.47848        0.356281 
        4.49251         3.46411        0.353135 
        4.50819         3.44597        0.350027 
         4.5239         3.42844        0.346952 
        4.53962         3.40931         0.34391 
        4.55535         3.38852        0.340904 
        4.57106         3.36246        0.337937 
        4.58678         3.34111        0.335006 
         4.6025           3.325        0.332108 
        4.61821         3.30831        0.329245 
        4.63391         3.29032        0.326419 
         4.6496         3.27326        0.323628 
        4.66532          3.2367        0.320865 
        4.68103          3.2181        0.318136 
        4.69673         3.20362         0.31544 
        4.71241         3.17691        0.312779 
        4.72811         3.16569        0.310144 
        4.74384         3.15201        0.307536 
        4.75955         3.13366        0.304962 
        4.77525         3.11443        0.302419 
        4.79096          3.0879        0.299901 
        4.80669         3.07583        0.297412 
         4.8224         3.06536        0.294953 
        4.83809         3.04056        0.292524 
        4.85379         3.02474        0.290122 
         4.8695          3.0091        0.287744 
        4.88521         2.99069        0.285394 
        4.90093         2.97444         0.28307 
        4.91663         2.95817        0.280774 
        4.93234          2.9384        0.278501 
        4.94807         2.92726        0.276251 
        4.96377          2.9036        0.274031 
        4.97943         2.88968         0.27184 
        4.99514         2.86546        0.269667 
        5.01086         2.85262        0.267516 
        5.02654         2.83721        0.265394 
        5.04227         2.82675        0.263288 
          5.058         2.81773        0.261205 
        5.07371          2.7918        0.259148 
        5.08942         2.78057        0.257113 
        5.10513          2.7639          0.2551 
        5.12084         2.74778        0.253107 
        5.13656         2.73545        0.251136 
        5.15225         2.71529        0.249189 
        5.16796         2.69584        0.247259 
        5.18369         2.68577        0.245349 
         5.1994         2.67514        0.243462 
        5.21509         2.65852        0.241596 
        5.23079         2.64321        0.239748 
        5.24649         2.62939        0.237921 
        5.26217         2.61999        0.236114 
        5.27788         2.59521        0.234323 
        5.29359         2.58405         0.23255 
        5.30933          2.5748        0.230793 
        5.32504         2.55393        0.229057 
        5.34073         2.54128        0.227341 
        5.35646         2.53048        0.225639 
        5.37218         2.51018        0.223955 
        5.38789         2.50676         0.22229 
        5.40357         2.49199        0.220643 
        5.41929         2.47576         0.21901 
        5.43502         2.46147        0.217394 
         5.4507         2.44968        0.215797 
        5.46639          2.4371        0.214216 
        5.48212         2.42721        0.212648 
        5.49786         2.41369        0.211093 
        5.51353         2.39491        0.209561 
        5.52921         2.38884        0.208043 
        5.54495         2.37568        0.206536 
        5.56066         2.36305        0.205045 
        5.57637         2.35037        0.203569 
        5.59207         2.33766        0.202109 
        5.60778         2.33141        0.200663 
        5.62346         2.31471        0.199232 
        5.63916          2.3005        0.197815 
        5.65487         2.29144         0.19641 
         5.6706         2.27905        0.195018 
        5.68633         2.26789        0.193638 
        5.70203         2.25451        0.192275 
        5.71773         2.24467        0.190925 
        5.73344         2.23093        0.189587 
        5.74916         2.22246         0.18826 
        5.76486         2.21476        0.186949 
        5.78054          2.2049        0.185651 
        5.79626         2.19499        0.184363 
          5.812         2.17595        0.183085 
         5.8277         2.16561        0.181823 
        5.84339         2.15499        0.180573 
        5.85911         2.14833        0.179333 
        5.87484         2.13561        0.178104 
        5.89053         2.12578        0.176889 
        5.90623         2.11638        0.175685 
        5.92195         2.10569         0.17449 
        5.93767         2.09711        0.173307 
        5.95336         2.08254        0.172137 
        5.96905         2.07506        0.170978 
        5.98476         2.06173        0.169828 
        6.00048         2.05163        0.168688 
        6.01617         2.04772         0.16756 
        6.03185         2.03505        0.166444 
        6.04756         2.02317        0.165336 
        6.06331         2.01412        0.164235 
        6.07903         2.00354        0.163146 
        6.09473         1.99971        0.162068 
        6.11044         1.98735        0.160999 
        6.12616         1.97622         0.15994 
        6.14186         1.97157        0.158892 
        6.15755         1.96072        0.157852 
        6.17326         1.94968        0.156822 
        6.18898         1.94425          0.1558 
        6.20467         1.93261        0.154789 
        6.22036         1.92396        0.153787 
         6.2361          1.9117        0.152791 
         6.2518         1.90389        0.151806 
        6.26748         1.89745        0.150831 
        6.28319         1.88934        0.149863 
        6.29893         1.88367        0.148902 
        6.31463         1.87352        0.147951 
        6.33033         1.85979        0.147008 
        6.34604         1.85446        0.146073 
        6.36177         1.84892        0.145146 
        6.37747         1.84001        0.144228 
