# k  (h/Mpc)    Pcb(k)  (Mpc/h)^3    Pcb_linear(k) (Mpc/h)^3   ShotnoiseSubtracted = true
      0.0200456         5843.16         5940.72 
      0.0350414          4235.4          4318.7 
      0.0492313         3130.99         3137.89 
      0.0637834         2652.42          2608.5 
      0.0800726         2101.77          2070.3 
       0.096163         1482.37         1502.18 
       0.111083            1176         1198.18 
       0.126058         1075.73         1061.83 
       0.142273         925.538         899.604 
       0.158546         753.241         710.499 
        0.17375         611.003         598.595 
       0.188953         578.641         542.014 
       0.204907          539.81         479.572 
       0.220756         452.524         405.747 
        0.23588         395.705         352.964 
         0.2514         349.485         320.665 
       0.267535         330.707         290.146 
       0.283568         298.794          255.87 
       0.299022          274.65         227.967 
       0.314451         250.816         208.347 
       0.330372         232.644         191.135 
       0.346141         209.536         173.484 
       0.361624         198.642         157.673 
       0.377134         186.648         145.084 
       0.392932         169.955         134.243 
       0.408854         163.144         123.746 
       0.424564         156.239         114.059 
       0.440253         146.338         105.746 
       0.455999         137.732         98.5172 
       0.471626          127.37         91.8743 
        0.48727         123.509         85.6602 
       0.502856         117.836         80.0777 
       0.518488         114.131         75.0967 
       0.534347          109.25         70.4661 
       0.550082         100.898         66.1965 
       0.565732         96.6775         62.2904 
       0.581496         93.0959         58.7129 
       0.597222         90.0514         55.4319 
       0.612804         85.4088         52.4149 
       0.628434         83.4878         49.6029 
       0.644267          80.763         46.9739 
       0.660051         78.3377         44.5508 
       0.675724         75.2441         42.3134 
       0.691403         72.9946         40.2278 
       0.707174         70.5631          38.271 
       0.722871         68.6559         36.4521 
        0.73838         67.0618         34.7709 
       0.754018         63.7747         33.1831 
       0.769845         62.4523         31.6771 
        0.78569         60.8186         30.2634 
       0.801365         58.7218           28.95 
       0.817031         57.1279         27.7157 
       0.832809         56.3367         26.5459 
       0.848511         53.6026         25.4492 
       0.864097         52.4202         24.4223 
       0.879701         51.6395         23.4514 
       0.895507          50.826          22.522 
       0.911279         49.5109         21.6452 
        0.92691         48.2581         20.8225 
       0.942635         46.5804         20.0382 
       0.958396         46.3462         19.2929 
       0.974128         45.0629          18.587 
       0.989692         44.3057         17.9235 
        1.00528         43.3589         17.2915 
        1.02113         42.0607         16.6803 
        1.03692         41.2087          16.101 
        1.05264         40.7394         15.5519 
        1.06832         39.6904         15.0295 
        1.08405         39.1375         14.5297 
        1.09979         38.4394         14.0525 
        1.11537         37.1577         13.6015 
        1.13105         37.2449         13.1677 
        1.14679         36.6138         12.7512 
        1.16256         35.6342          12.352 
        1.17828         34.9784         11.9712 
        1.19395         34.3791         11.6079 
         1.2097         34.0363         11.2578 
        1.22537         33.5791         10.9239 
          1.241         32.7993         10.6046 
        1.25666         32.0265         10.2973 
        1.27241         31.7856         10.0008 
        1.28819          30.907         9.71553 
        1.30392         30.6202         9.44223 
        1.31957         30.4075          9.1807 
        1.33529         30.1033         8.92814 
        1.35108         29.4564         8.68412 
        1.36674         28.9326         8.45099 
         1.3824         28.3396         8.22665 
        1.39811          28.205         8.00974 
        1.41389         27.8234         7.79984 
        1.42964         27.3104         7.59784 
        1.44531         27.1438           7.404 
        1.46101         26.4642         7.21653 
        1.47667         26.2675         7.03613 
        1.49229         26.0312         6.86239 
        1.50793         25.6395         6.69434 
        1.52367         25.3769         6.53085 
        1.53953         25.1141         6.37173 
        1.55526         24.6196          6.2192 
        1.57092         24.3246         6.07231 
        1.58662         24.0333         5.92982 
        1.60235         23.7688         5.79164 
        1.61809         23.4809          5.6578 
        1.63369         23.2138         5.52939 
        1.64941         22.7783         5.40406 
        1.66519         22.6874         5.28217 
        1.68085         22.3262         5.16491 
        1.69652          22.081         5.05119 
        1.71228         21.8913         4.94025 
        1.72806         21.5871         4.83256 
        1.74368         21.3009         4.72917 
        1.75933         21.0865          4.6286 
        1.77505         20.9013         4.53049 
        1.79081         20.5967         4.43506 
         1.8065         20.4924         4.34279 
        1.82218         20.1782         4.25323 
        1.83797         19.8884         4.16559 
        1.85367         19.7133         4.08091 
        1.86928          19.542         3.99909 
        1.88497         19.2382         3.91907 
        1.90073         19.2566         3.84096 
        1.91647         18.9217         3.76504 
        1.93218         18.7529         3.69134 
        1.94787         18.6224         3.61972 
        1.96363         18.4516         3.54973 
        1.97935         18.2501         3.48173 
        1.99499         18.0072          3.4159 
        2.01064         17.8673         3.35168 
         2.0264         17.6104          3.2887 
        2.04216         17.4722         3.22738 
        2.05781         17.2416         3.16802 
        2.07353         17.0925         3.10993 
        2.08928          16.985         3.05318 
        2.10499         16.7562           2.998 
        2.12065         16.5085         2.94434 
        2.13633         16.5013         2.89196 
        2.15211         16.2253         2.84052 
        2.16785         16.1961         2.79047 
        2.18349          16.031         2.74194 
        2.19916         15.8293         2.69446 
        2.21489         15.6998         2.64796 
        2.23063         15.5344         2.60252 
         2.2463         15.3793         2.55835 
        2.26194         15.2762         2.51532 
        2.27765         15.1298         2.47306 
        2.29341         14.9564         2.43166 
        2.30914         14.7949         2.39129 
        2.32486         14.7551         2.35187 
        2.34061         14.5754         2.31327 
        2.35635         14.3992         2.27557 
        2.37203         14.3393         2.23884 
        2.38768         14.1886           2.203 
        2.40339         13.9879         2.16781 
        2.41914         13.8936         2.13331 
        2.43483         13.8135         2.09968 
         2.4505         13.6605         2.06684 
        2.46622         13.5582         2.03459 
        2.48195         13.4364         2.00302 
        2.49759         13.3327         1.97229 
        2.51328          13.182         1.94213 
        2.52906         13.0755         1.91241 
        2.54479         12.9718         1.88342 
        2.56049         12.9021         1.85508 
        2.57618         12.8024         1.82736 
        2.59189         12.6211         1.80016 
        2.60758         12.5704         1.77356 
        2.62325         12.4984         1.74752 
        2.63898         12.3018         1.72192 
        2.65468         12.2446         1.69689 
        2.67044         12.1154         1.67225 
        2.68618         12.0114         1.64815 
        2.70184          11.915         1.62462 
        2.71755         11.8032          1.6015 
        2.73329         11.6901         1.57879 
        2.74897         11.6064         1.55659 
        2.76462         11.5868         1.53488 
        2.78034         11.3799         1.51348 
        2.79607         11.3151         1.49247 
        2.81179         11.2072         1.47189 
        2.82749         11.1629         1.45171 
        2.84321         11.0222         1.43189 
        2.85893         10.9589         1.41245 
        2.87462         10.8963          1.3934 
        2.89033         10.7388         1.37469 
        2.90605         10.6675          1.3563 
        2.92176         10.6248         1.33826 
        2.93747         10.5101         1.32056 
        2.95318         10.4383         1.30317 
        2.96891         10.3471         1.28609 
        2.98456         10.2596         1.26939 
        3.00023         10.2034         1.25296 
        3.01596         10.1033         1.23677 
        3.03164         10.0574         1.22091 
        3.04738         9.94832         1.20529 
         3.0631         9.84582         1.18994 
        3.07883         9.78703         1.17487 
        3.09456          9.7336         1.16005 
        3.11026         9.60041         1.14551 
        3.12596          9.5914         1.13123 
        3.14163         9.48244         1.11722 
        3.15734         9.40783         1.10341 
        3.17308         9.36371         1.08981 
        3.18879         9.27903         1.07647 
        3.20447         9.18361         1.06337 
         3.2202         9.11954         1.05045 
         3.2359         9.07672         1.03777 
        3.25157         9.00253         1.02533 
        3.26729         8.93644         1.01306 
        3.28304         8.83551         1.00096 
        3.29877         8.76838        0.989073 
        3.31446         8.73573        0.977407 
        3.33014         8.62967         0.96594 
        3.34585         8.61066        0.954638 
        3.36158          8.5306        0.943501 
        3.37727         8.46678        0.932576 
        3.39294         8.41601        0.921834 
        3.40867         8.29245        0.911223 
        3.42439         8.27794        0.900785 
        3.44008         8.20553         0.89053 
        3.45578         8.14948        0.880427 
        3.47153         8.10986        0.870459 
        3.48724         8.03692        0.860662 
        3.50292         7.98208         0.85104 
        3.51859         7.91352        0.841568 
        3.53431         7.85144        0.832212 
        3.55007         7.81539        0.822975 
        3.56577         7.75946        0.813914 
        3.58146         7.69321        0.804994 
        3.59719         7.62672        0.796187 
        3.61292         7.58089        0.787514 
        3.62859         7.51367        0.779003 
        3.64429         7.45912        0.770602 
        3.66003         7.38831        0.762299 
        3.67578         7.35136        0.754121 
        3.69146         7.29794        0.746094 
        3.70712         7.27476        0.738199 
        3.72284         7.17015        0.730388 
        3.73853         7.15199        0.722704 
        3.75422         7.08563        0.715128 
        3.76993         7.05191        0.707654 
        3.78564         6.98812        0.700289 
        3.80137         6.94749        0.693017 
        3.81707         6.87935        0.685864 
        3.83279         6.88106        0.678806 
        3.84853         6.79634        0.671835 
        3.86424         6.72591        0.664977 
        3.87992         6.69484        0.658224 
        3.89561         6.64938        0.651564 
        3.91134         6.59347        0.644983 
        3.92704         6.55626        0.638501 
        3.94273         6.50586        0.632114 
        3.95845         6.46536        0.625802 
        3.97418         6.42975        0.619576 
        3.98988         6.37769        0.613442 
        4.00554         6.32643        0.607408 
        4.02125          6.2686        0.601438 
        4.03698          6.2419        0.595539 
        4.05268         6.20553        0.589733 
        4.06839         6.15868        0.583999 
         4.0841         6.11617        0.578344 
        4.09983         6.07136        0.572755 
        4.11555         6.03188        0.567243 
        4.13124         5.99086        0.561818 
        4.14693         5.92335         0.55646 
        4.16266         5.88334        0.551159 
        4.17839         5.84338         0.54593 
        4.19408         5.79749        0.540781 
        4.20977          5.7583        0.535696 
        4.22551         5.71347        0.530664 
        4.24123         5.67515        0.525702 
        4.25691         5.64274        0.520817 
        4.27259         5.60157        0.515992 
        4.28831         5.55985        0.511219 
        4.30404         5.51403        0.506501 
        4.31974         5.48918        0.501854 
        4.33543         5.44757        0.497267 
        4.35116         5.40931        0.492726 
        4.36688         5.35887        0.488244 
        4.38255         5.31594        0.483835 
        4.39825         5.29864         0.47947 
        4.41398         5.25644         0.47515 
         4.4297         5.23605        0.470888 
        4.44541         5.18451        0.466679 
        4.46111         5.16825        0.462525 
        4.47683         5.10075        0.458419 
        4.49251         5.08207         0.45437 
        4.50819         5.04338        0.450371 
         4.5239         5.01148        0.446415 
        4.53962         4.98795        0.442502 
        4.55535         4.94521        0.438633 
        4.57106           4.916        0.434816 
        4.58678         4.88463        0.431044 
         4.6025         4.84331        0.427315 
        4.61821         4.81395        0.423632 
        4.63391         4.79057        0.419996 
         4.6496          4.7476        0.416405 
        4.66532         4.72931         0.41285 
        4.68103         4.68152        0.409338 
        4.69673         4.66001         0.40587 
        4.71241         4.62556        0.402446 
        4.72811         4.60234        0.399055 
        4.74384         4.57645        0.395699 
        4.75955         4.53007        0.392388 
        4.77525         4.50183        0.389115 
        4.79096         4.47275        0.385876 
        4.80669         4.43597        0.382673 
         4.8224         4.42241        0.379509 
        4.83809         4.38921        0.376384 
        4.85379         4.35373        0.373293 
         4.8695         4.32765        0.370234 
        4.88521         4.30693         0.36721 
        4.90093         4.28327         0.36422 
        4.91663         4.24322        0.361265 
        4.93234         4.22547        0.358341 
        4.94807         4.20032        0.355446 
        4.96377         4.16176        0.352589 
        4.97943          4.1392         0.34977 
        4.99514          4.1118        0.346974 
        5.01086         4.08568        0.344206 
        5.02654         4.06162        0.341476 
        5.04227         4.03595        0.338767 
          5.058         4.00972        0.336086 
        5.07371         3.98114         0.33344 
        5.08942         3.96035        0.330821 
        5.10513         3.93945        0.328231 
        5.12084         3.91335        0.325667 
        5.13656          3.8968         0.32313 
        5.15225         3.87273        0.320625 
        5.16796          3.8375        0.318143 
        5.18369          3.8129        0.315685 
         5.1994         3.79077        0.313257 
        5.21509         3.77358        0.310856 
        5.23079         3.74395        0.308478 
        5.24649         3.71909        0.306127 
        5.26217         3.70327        0.303802 
        5.27788         3.67183        0.301498 
        5.29359         3.64594        0.299217 
        5.30933         3.63414        0.296956 
        5.32504         3.61039        0.294723 
        5.34073         3.58304        0.292515 
        5.35646         3.56502        0.290325 
        5.37218         3.54084        0.288157 
        5.38789         3.52637        0.286015 
        5.40357         3.50357        0.283897 
        5.41929         3.47383        0.281796 
        5.43502         3.45926        0.279715 
         5.4507          3.4406        0.277661 
        5.46639         3.41356        0.275627 
        5.48212         3.40296        0.273609 
        5.49786         3.38114        0.271608 
        5.51353         3.35274        0.269637 
        5.52921         3.32964        0.267684 
        5.54495         3.31104        0.265745 
        5.56066         3.29701        0.263826 
        5.57637         3.27982        0.261927 
        5.59207         3.26116        0.260049 
        5.60778          3.2424        0.258188 
        5.62346         3.21669        0.256348 
        5.63916         3.20222        0.254524 
        5.65487         3.18366        0.252716 
         5.6706         3.16474        0.250925 
        5.68633         3.14392         0.24915 
        5.70203         3.12928        0.247395 
        5.71773          3.1131        0.245658 
        5.73344          3.0943        0.243937 
        5.74916         3.07445         0.24223 
        5.76486         3.05801        0.240542 
        5.78054         3.03431        0.238873 
        5.79626         3.02161        0.237215 
          5.812         3.00984        0.235571 
         5.8277         2.99282        0.233948 
        5.84339         2.96959         0.23234 
        5.85911         2.95355        0.230743 
        5.87484          2.9462        0.229162 
        5.89053         2.91502        0.227599 
        5.90623         2.90146         0.22605 
        5.92195         2.88954        0.224513 
        5.93767         2.87303         0.22299 
        5.95336         2.85663        0.221485 
        5.96905         2.84028        0.219993 
        5.98476         2.82903        0.218514 
        6.00048         2.81094        0.217047 
        6.01617         2.79152        0.215596 
        6.03185         2.77748         0.21416 
        6.04756         2.76219        0.212733 
        6.06331          2.7433        0.211317 
        6.07903         2.73082        0.209916 
        6.09473         2.71949         0.20853 
        6.11044         2.69993        0.207154 
        6.12616         2.68835        0.205791 
        6.14186         2.67006        0.204442 
        6.15755         2.65862        0.203105 
        6.17326         2.64493        0.201779 
        6.18898         2.62777        0.200464 
        6.20467         2.61723        0.199163 
        6.22036         2.60073        0.197874 
         6.2361         2.58555        0.196593 
         6.2518         2.57445        0.195325 
        6.26748         2.56165        0.194071 
        6.28319         2.54291        0.192825 
        6.29893           2.536        0.191588 
        6.31463         2.51868        0.190365 
        6.33033         2.50753        0.189152 
        6.34604         2.49161        0.187949 
        6.36177         2.48214        0.186756 
        6.37747         2.46928        0.185575 
