# k  (h/Mpc)    Pcb(k)  (Mpc/h)^3    Pcb_linear(k) (Mpc/h)^3   ShotnoiseSubtracted = true
      0.0200456         20620.1         21100.9 
      0.0350414         14655.8         15339.6 
      0.0492313         10921.2         11145.5 
      0.0637834         9445.99         9265.14 
      0.0800726         7454.72         7353.51 
       0.096163         5169.71         5335.61 
       0.111083         4151.44         4255.82 
       0.126058         3824.14         3771.52 
       0.142273         3311.15         3195.31 
       0.158546         2887.96         2523.63 
        0.17375         2309.51         2126.15 
       0.188953         2257.07         1925.18 
       0.204907          2121.1         1703.39 
       0.220756         1836.22         1441.17 
        0.23588         1638.86          1253.7 
         0.2514         1426.14         1138.97 
       0.267535         1424.48         1030.57 
       0.283568         1291.41         908.827 
       0.299022         1220.56         809.718 
       0.314451         1163.22         740.027 
       0.330372         1068.04         678.892 
       0.346141         1016.63         616.198 
       0.361624         976.975          560.04 
       0.377134         908.953         515.325 
       0.392932          873.28          476.82 
       0.408854         854.733         439.536 
       0.424564         791.959         405.126 
       0.440253         778.433         375.599 
       0.455999         747.326         349.924 
       0.471626         718.825         326.329 
        0.48727         689.334         304.257 
       0.502856         670.504         284.428 
       0.518488         663.149         266.736 
       0.534347         621.005         250.289 
       0.550082         603.677         235.124 
       0.565732         601.762          221.25 
       0.581496         567.378         208.543 
       0.597222         557.166         196.889 
       0.612804         545.628         186.173 
       0.628434         529.468         176.185 
       0.644267         515.608         166.847 
       0.660051          499.53          158.24 
       0.675724         494.964         150.293 
       0.691403         478.323         142.885 
       0.707174         462.518         135.935 
       0.722871         457.304         129.475 
        0.73838         449.284         123.503 
       0.754018         438.189         117.863 
       0.769845          429.46         112.514 
        0.78569          422.79         107.493 
       0.801365         411.666         102.828 
       0.817031         399.386         98.4436 
       0.832809         396.628         94.2887 
       0.848511         387.393         90.3933 
       0.864097          376.76         86.7458 
       0.879701         371.792         83.2971 
       0.895507         368.336         79.9961 
       0.911279         356.876         76.8817 
        0.92691         352.423         73.9596 
       0.942635         344.121         71.1739 
       0.958396         335.973         68.5265 
       0.974128         330.621         66.0191 
       0.989692         327.741         63.6625 
        1.00528         319.742         61.4179 
        1.02113         317.894         59.2468 
        1.03692         308.729         57.1892 
        1.05264         306.762         55.2391 
        1.06832         298.597         53.3833 
        1.08405         294.238         51.6082 
        1.09979         288.733         49.9131 
        1.11537         284.024         48.3113 
        1.13105         278.499         46.7704 
        1.14679         273.272         45.2911 
        1.16256         268.316         43.8731 
        1.17828         266.505         42.5207 
        1.19395          259.88         41.2301 
         1.2097         257.812         39.9867 
        1.22537         251.928         38.8007 
          1.241         250.527         37.6666 
        1.25666         245.172         36.5751 
        1.27241         241.921          35.522 
        1.28819         238.427         34.5086 
        1.30392         232.613         33.5379 
        1.31957         232.899          32.609 
        1.33529         227.782         31.7119 
        1.35108         222.538         30.8452 
        1.36674         220.648         30.0171 
         1.3824         219.082         29.2203 
        1.39811         215.627         28.4499 
        1.41389         212.234         27.7043 
        1.42964         209.937         26.9868 
        1.44531         206.712         26.2983 
        1.46101         203.619         25.6324 
        1.47667         200.367         24.9917 
        1.49229         198.634         24.3746 
        1.50793         194.023         23.7777 
        1.52367         192.634          23.197 
        1.53953         189.798         22.6318 
        1.55526         185.322           22.09 
        1.57092         184.401         21.5683 
        1.58662         182.137         21.0622 
        1.60235         178.754         20.5714 
        1.61809         177.597          20.096 
        1.63369         174.092         19.6399 
        1.64941         170.531         19.1947 
        1.66519         169.898         18.7618 
        1.68085         167.524         18.3453 
        1.69652         164.945         17.9413 
        1.71228         161.736         17.5473 
        1.72806         160.143         17.1648 
        1.74368         158.239         16.7976 
        1.75933         155.323         16.4404 
        1.77505         154.189         16.0919 
        1.79081         152.741         15.7529 
         1.8065         150.465         15.4252 
        1.82218         148.188         15.1071 
        1.83797         147.053         14.7958 
        1.85367         144.778          14.495 
        1.86928         142.259         14.2044 
        1.88497         140.527         13.9202 
        1.90073         139.305         13.6427 
        1.91647         137.465         13.3731 
        1.93218         135.855         13.1113 
        1.94787         133.688         12.8569 
        1.96363         131.686         12.6083 
        1.97935         130.499         12.3668 
        1.99499         128.243         12.1329 
        2.01064         127.094         11.9048 
         2.0264         125.302         11.6812 
        2.04216         123.737         11.4634 
        2.05781         122.673         11.2525 
        2.07353         121.384         11.0462 
        2.08928         118.873         10.8446 
        2.10499          117.76         10.6486 
        2.12065         115.877          10.458 
        2.13633         115.273          10.272 
        2.15211         112.802         10.0892 
        2.16785         111.298         9.91148 
        2.18349         110.506         9.73911 
        2.19916         109.227         9.57048 
        2.21489         107.807          9.4053 
        2.23063         105.993          9.2439 
         2.2463         104.935         9.08702 
        2.26194         103.446         8.93418 
        2.27765         102.506         8.78407 
        2.29341         101.431         8.63702 
        2.30914          100.23         8.49365 
        2.32486         99.0567         8.35361 
        2.34061         97.8013          8.2165 
        2.35635         96.4944          8.0826 
        2.37203         95.2058         7.95214 
        2.38768         94.2132         7.82483 
        2.40339         93.2432         7.69986 
        2.41914         92.0055         7.57732 
        2.43483         91.0909         7.45788 
         2.4505         89.8986         7.34123 
        2.46622         88.7662         7.22666 
        2.48195         87.6276         7.11454 
        2.49759         86.3977         7.00539 
        2.51328         86.1204         6.89826 
        2.52906         84.4652         6.79268 
        2.54479         83.6273         6.68971 
        2.56049         82.7212         6.58908 
        2.57618         81.7859         6.49061 
        2.59189         80.8401           6.394 
        2.60758         80.1364         6.29951 
        2.62325         78.9946         6.20704 
        2.63898         77.8185         6.11611 
        2.65468         77.1208         6.02719 
        2.67044         76.2725         5.93966 
        2.68618         75.4331         5.85407 
        2.70184          74.987         5.77051 
        2.71755         73.8743         5.68838 
        2.73329          73.118         5.60771 
        2.74897         72.2027         5.52888 
        2.76462         71.2973         5.45173 
        2.78034         70.7333         5.37574 
        2.79607         69.4749         5.30112 
        2.81179         68.8859           5.228 
        2.82749         68.0677         5.15634 
        2.84321         67.5998         5.08595 
        2.85893         66.8146         5.01689 
        2.87462         65.8432         4.94923 
        2.89033          65.134         4.88276 
        2.90605         64.4841         4.81745 
        2.92176         63.7957         4.75337 
        2.93747         63.3971         4.69049 
        2.95318         62.4908         4.62873 
        2.96891         62.0713         4.56806 
        2.98456         61.3875         4.50874 
        3.00023         60.4496         4.45039 
        3.01596         60.0003         4.39289 
        3.03164         59.1574         4.33657 
        3.04738         58.7448         4.28108 
         3.0631          58.055         4.22657 
        3.07883         57.4655         4.17301 
        3.09456         56.8291         4.12039 
        3.11026         56.1262         4.06876 
        3.12596         55.5664         4.01801 
        3.14163         55.0432         3.96825 
        3.15734         54.5945         3.91922 
        3.17308         53.7698         3.87089 
        3.18879         53.5235         3.82352 
        3.20447         52.6147           3.777 
         3.2202         52.3398         3.73112 
         3.2359         51.6834         3.68607 
        3.25157         51.1293         3.64188 
        3.26729         50.7127         3.59828 
        3.28304         50.2103         3.55531 
        3.29877         49.7046          3.5131 
        3.31446         48.9728         3.47166 
        3.33014         48.6744         3.43093 
        3.34585         48.3406         3.39079 
        3.36158         47.7816         3.35123 
        3.37727         47.3855         3.31242 
        3.39294         46.8886         3.27427 
        3.40867         46.3674         3.23658 
        3.42439         45.7819          3.1995 
        3.44008         45.4745         3.16308 
        3.45578         44.9356         3.12719 
        3.47153         44.5214         3.09179 
        3.48724         44.0744         3.05699 
        3.50292         43.7599         3.02281 
        3.51859         43.2564         2.98917 
        3.53431         42.8814         2.95594 
        3.55007          42.301         2.92313 
        3.56577         42.0531         2.89095 
        3.58146         41.5504         2.85926 
        3.59719         41.2352         2.82798 
        3.61292         40.6835         2.79718 
        3.62859         40.4346         2.76695 
        3.64429          40.113         2.73711 
        3.66003         39.6892         2.70762 
        3.67578         39.1764         2.67857 
        3.69146         38.8943         2.65006 
        3.70712         38.5511         2.62201 
        3.72284         38.0632         2.59427 
        3.73853         37.7849         2.56698 
        3.75422         37.3101         2.54007 
        3.76993         37.1628         2.51352 
        3.78564         36.8086         2.48736 
        3.80137         36.4264         2.46153 
        3.81707         36.0837         2.43612 
        3.83279         35.9157         2.41105 
        3.84853         35.4495          2.3863 
        3.86424         35.0612         2.36194 
        3.87992         34.8935         2.33795 
        3.89561         34.5114          2.3143 
        3.91134         34.0521         2.29092 
        3.92704          33.937         2.26789 
        3.94273         33.4825         2.24521 
        3.95845         33.3338         2.22279 
        3.97418         32.9787         2.20067 
        3.98988         32.7056         2.17889 
        4.00554         32.3635         2.15746 
        4.02125         32.0251         2.13625 
        4.03698         31.7933          2.1153 
        4.05268         31.5262         2.09468 
        4.06839         31.2023         2.07431 
         4.0841         30.9879         2.05422 
        4.09983         30.6931         2.03437 
        4.11555          30.408         2.01479 
        4.13124         30.2033         1.99553 
        4.14693         29.8434         1.97649 
        4.16266         29.6134         1.95766 
        4.17839          29.316         1.93909 
        4.19408         29.0838          1.9208 
        4.20977         28.8334         1.90274 
        4.22551         28.5565         1.88487 
        4.24123          28.435         1.86724 
        4.25691          28.123         1.84989 
        4.27259         27.8939         1.83275 
        4.28831         27.6175          1.8158 
        4.30404         27.4376         1.79904 
        4.31974         27.1111         1.78254 
        4.33543         26.8994         1.76625 
        4.35116         26.7945         1.75012 
        4.36688         26.4759          1.7342 
        4.38255         26.2188         1.71854 
        4.39825         25.9993         1.70303 
        4.41398         25.7936         1.68769 
         4.4297         25.6008         1.67255 
        4.44541         25.3335          1.6576 
        4.46111         25.1639         1.64285 
        4.47683          24.982         1.62826 
        4.49251         24.7148         1.61388 
        4.50819         24.5312         1.59968 
         4.5239         24.3292         1.58563 
        4.53962         24.1387         1.57172 
        4.55535         23.9337         1.55798 
        4.57106         23.7338         1.54443 
        4.58678         23.5523         1.53103 
         4.6025         23.3633         1.51778 
        4.61821         23.2011          1.5047 
        4.63391         22.9805         1.49179 
         4.6496         22.7762         1.47903 
        4.66532         22.6232          1.4664 
        4.68103         22.4063         1.45393 
        4.69673         22.2447         1.44161 
        4.71241         22.1001         1.42945 
        4.72811         21.8822         1.41741 
        4.74384         21.7294         1.40549 
        4.75955          21.576         1.39372 
        4.77525         21.3521          1.3821 
        4.79096         21.2208          1.3706 
        4.80669         21.0331         1.35922 
         4.8224          20.875         1.34798 
        4.83809         20.7092         1.33688 
        4.85379         20.4561          1.3259 
         4.8695         20.3894         1.31504 
        4.88521         20.2177          1.3043 
        4.90093         20.0004         1.29367 
        4.91663          19.842         1.28318 
        4.93234         19.7525         1.27279 
        4.94807         19.5382         1.26251 
        4.96377         19.4509         1.25236 
        4.97943         19.3187         1.24235 
        4.99514         19.1219         1.23242 
        5.01086         18.9925         1.22259 
        5.02654         18.8071         1.21289 
        5.04227         18.7078         1.20327 
          5.058         18.5134         1.19375 
        5.07371         18.3985         1.18435 
        5.08942         18.2605         1.17505 
        5.10513         18.1275         1.16584 
        5.12084         17.9761         1.15674 
        5.13656         17.7833         1.14773 
        5.15225         17.7308         1.13883 
        5.16796          17.612         1.13001 
        5.18369         17.4192         1.12128 
         5.1994         17.3543         1.11266 
        5.21509         17.1409         1.10413 
        5.23079         17.0498         1.09569 
        5.24649         16.9335         1.08733 
        5.26217         16.7872         1.07908 
        5.27788         16.6514         1.07089 
        5.29359         16.5599         1.06279 
        5.30933         16.3906         1.05476 
        5.32504         16.2874         1.04683 
        5.34073         16.1724         1.03899 
        5.35646         16.0728         1.03121 
        5.37218         15.9215         1.02351 
        5.38789         15.8115          1.0159 
        5.40357         15.6942         1.00838 
        5.41929         15.6205         1.00091 
        5.43502         15.4759        0.993523 
         5.4507          15.377        0.986226 
        5.46639         15.2546        0.979001 
        5.48212         15.1238        0.971832 
        5.49786         14.9955        0.964726 
        5.51353         14.9112        0.957727 
        5.52921         14.8285        0.950789 
        5.54495         14.7361          0.9439 
        5.56066         14.6153        0.937087 
        5.57637         14.4955        0.930342 
        5.59207         14.3695        0.923669 
        5.60778         14.3117        0.917059 
        5.62346         14.2004        0.910523 
        5.63916         14.0741        0.904044 
        5.65487         13.9826        0.897625 
         5.6706         13.8671        0.891261 
        5.68633         13.7876        0.884956 
        5.70203         13.6917        0.878725 
        5.71773         13.6076        0.872555 
        5.73344         13.5066        0.866441 
        5.74916         13.4075         0.86038 
        5.76486         13.3024        0.854384 
        5.78054         13.2174        0.848456 
        5.79626         13.1257        0.842567 
          5.812         13.0148        0.836728 
         5.8277         12.9232        0.830961 
        5.84339         12.8494        0.825249 
        5.85911         12.7542        0.819579 
        5.87484         12.6598        0.813963 
        5.89053         12.5683        0.808411 
        5.90623         12.4927        0.802909 
        5.92195         12.3985        0.797448 
        5.93767         12.3096        0.792041 
        5.95336         12.2214        0.786692 
        5.96905         12.1517        0.781396 
        5.98476         12.0638         0.77614 
        6.00048         11.9635        0.770931 
        6.01617         11.9006        0.765777 
        6.03185          11.818        0.760676 
        6.04756         11.7545        0.755609 
        6.06331          11.653        0.750578 
        6.07903         11.5729        0.745603 
        6.09473         11.4928        0.740677 
        6.11044         11.4225        0.735792 
        6.12616         11.3501        0.730952 
        6.14186         11.2792        0.726159 
        6.15755         11.1936         0.72141 
        6.17326         11.0924          0.7167 
        6.18898         11.0571         0.71203 
        6.20467         10.9699        0.707409 
        6.22036         10.8808         0.70283 
         6.2361         10.8255        0.698279 
         6.2518         10.7665        0.693776 
        6.26748         10.6861        0.689322 
        6.28319         10.6031        0.684895 
        6.29893         10.5294        0.680503 
        6.31463         10.4623        0.676157 
        6.33033         10.3836         0.67185 
        6.34604         10.3454        0.667578 
        6.36177         10.2526        0.663339 
        6.37747         10.2008        0.659145 
