# k  (h/Mpc)    Pcb(k)  (Mpc/h)^3    Pcb_linear(k) (Mpc/h)^3   ShotnoiseSubtracted = true
      0.0200456         2981.67         3020.48 
      0.0350414         2233.04         2195.79 
      0.0492313         1597.19         1595.42 
      0.0637834         1304.03         1326.26 
      0.0800726         1031.34         1052.62 
       0.096163         780.825         763.764 
       0.111083         629.146         609.198 
       0.126058         536.664         539.874 
       0.142273         455.068         457.392 
       0.158546         368.375         361.244 
        0.17375         316.168         304.347 
       0.188953         285.429          275.58 
       0.204907         243.746         243.832 
       0.220756         214.833         206.296 
        0.23588         188.116          179.46 
         0.2514         169.941         163.038 
       0.267535         158.263         147.521 
       0.283568         138.702         130.094 
       0.299022         127.366         115.907 
       0.314451         120.675         105.931 
       0.330372         107.214         97.1798 
       0.346141         98.2433         88.2055 
       0.361624         90.6789         80.1667 
       0.377134         82.8526          73.766 
       0.392932         80.2842         68.2542 
       0.408854         73.8032         62.9172 
       0.424564         70.3586         57.9917 
       0.440253         64.1178          53.765 
       0.455999         58.7628         50.0898 
       0.471626         55.8395         46.7122 
        0.48727         54.2468         43.5528 
       0.502856         50.4227         40.7144 
       0.518488         47.5445         38.1819 
       0.534347         44.8135         35.8275 
       0.550082         43.1198         33.6567 
       0.565732         41.5362         31.6707 
       0.581496         38.8626         29.8518 
       0.597222         36.9156         28.1836 
       0.612804         35.3098         26.6497 
       0.628434         34.6287         25.2199 
       0.644267         32.7374         23.8832 
       0.660051         31.1759         22.6513 
       0.675724         29.8022         21.5137 
       0.691403         29.2461         20.4533 
       0.707174         28.0968         19.4584 
       0.722871         27.1487         18.5336 
        0.73838         25.7793         17.6788 
       0.754018         24.4653         16.8715 
       0.769845          23.929         16.1058 
        0.78569         23.1303          15.387 
       0.801365         22.3267         14.7192 
       0.817031         21.4908         14.0917 
       0.832809         20.9331         13.4969 
       0.848511         20.2495         12.9393 
       0.864097         19.6215         12.4172 
       0.879701         19.3043         11.9235 
       0.895507         18.5677          11.451 
       0.911279         17.8343         11.0052 
        0.92691         17.5127         10.5869 
       0.942635         17.0975         10.1882 
       0.958396         16.5356          9.8092 
       0.974128         16.1172         9.45029 
       0.989692         15.4175         9.11295 
        1.00528         15.3184         8.79165 
        1.02113         14.8089         8.48087 
        1.03692         14.4828         8.18632 
        1.05264         14.1702         7.90718 
        1.06832          13.874         7.64154 
        1.08405         13.4855         7.38744 
        1.09979         13.1714          7.1448 
        1.11537         12.8288          6.9155 
        1.13105         12.6193         6.69493 
        1.14679         12.3275         6.48318 
        1.16256         12.0719          6.2802 
        1.17828         11.8211         6.08661 
        1.19395         11.6193         5.90186 
         1.2097         11.2608         5.72388 
        1.22537         11.0747         5.55411 
          1.241         10.7998         5.39177 
        1.25666         10.7338         5.23554 
        1.27241         10.5089         5.08478 
        1.28819         10.0874         4.93973 
        1.30392         10.0899         4.80078 
        1.31957         9.82306          4.6678 
        1.33529          9.6999         4.53939 
        1.35108          9.5061         4.41532 
        1.36674         9.28179         4.29679 
         1.3824          9.1666         4.18273 
        1.39811         9.01012         4.07245 
        1.41389         8.81824         3.96573 
        1.42964         8.69935         3.86302 
        1.44531         8.54245         3.76447 
        1.46101          8.4418         3.66915 
        1.47667         8.27469         3.57742 
        1.49229         8.07166         3.48909 
        1.50793         7.99567         3.40365 
        1.52367         7.85965         3.32052 
        1.53953         7.72032         3.23962 
        1.55526         7.63033         3.16207 
        1.57092         7.51866         3.08738 
        1.58662         7.38841         3.01494 
        1.60235         7.30417         2.94468 
        1.61809         7.19871         2.87663 
        1.63369         7.05186         2.81135 
        1.64941         6.95128         2.74762 
        1.66519         6.86794         2.68565 
        1.68085         6.74962         2.62603 
        1.69652          6.6936         2.56821 
        1.71228         6.62035          2.5118 
        1.72806         6.48655         2.45705 
        1.74368         6.42612         2.40448 
        1.75933         6.33719         2.35335 
        1.77505         6.21501         2.30347 
        1.79081         6.17158         2.25495 
         1.8065         6.11719         2.20803 
        1.82218          6.0196          2.1625 
        1.83797         5.91197         2.11794 
        1.85367         5.84101         2.07488 
        1.86928          5.7929         2.03328 
        1.88497         5.70297          1.9926 
        1.90073         5.63454         1.95288 
        1.91647         5.53134         1.91428 
        1.93218         5.49467         1.87681 
        1.94787         5.41994          1.8404 
        1.96363         5.36694         1.80481 
        1.97935         5.32702         1.77024 
        1.99499         5.25275         1.73677 
        2.01064         5.18881         1.70411 
         2.0264         5.13524          1.6721 
        2.04216         5.08055         1.64092 
        2.05781         5.01993         1.61074 
        2.07353         4.96921          1.5812 
        2.08928         4.87829         1.55235 
        2.10499         4.84134         1.52429 
        2.12065         4.84606         1.49701 
        2.13633         4.77248         1.47038 
        2.15211          4.6958         1.44422 
        2.16785         4.63747         1.41878 
        2.18349         4.62592          1.3941 
        2.19916         4.56479         1.36996 
        2.21489         4.51668         1.34632 
        2.23063         4.46668         1.32322 
         2.2463          4.4123         1.30076 
        2.26194         4.36274         1.27888 
        2.27765         4.30703         1.25739 
        2.29341         4.26134         1.23634 
        2.30914         4.23496         1.21582 
        2.32486         4.19675         1.19578 
        2.34061         4.16005         1.17615 
        2.35635          4.1159         1.15698 
        2.37203         4.09412         1.13831 
        2.38768         4.06094         1.12008 
        2.40339         3.99918         1.10219 
        2.41914          3.9662         1.08465 
        2.43483         3.92101         1.06756 
         2.4505         3.88838         1.05086 
        2.46622         3.85583         1.03446 
        2.48195         3.83889         1.01841 
        2.49759         3.77961         1.00279 
        2.51328          3.7553        0.987449 
        2.52906         3.71476        0.972337 
        2.54479         3.68704        0.957597 
        2.56049         3.65314        0.943192 
        2.57618         3.62163        0.929096 
        2.59189         3.62207        0.915267 
        2.60758         3.57658        0.901741 
        2.62325         3.51301        0.888505 
        2.63898         3.50287        0.875489 
        2.65468         3.46728         0.86276 
        2.67044         3.45663        0.850231 
        2.68618         3.42801        0.837979 
        2.70184         3.39635        0.826018 
        2.71755         3.35285        0.814261 
        2.73329          3.3348        0.802715 
        2.74897         3.30439         0.79143 
        2.76462         3.27489        0.780387 
        2.78034         3.25895        0.769509 
        2.79607         3.22647        0.758827 
        2.81179         3.20076        0.748361 
        2.82749         3.16647        0.738103 
        2.84321         3.15298        0.728027 
        2.85893         3.12041        0.718141 
        2.87462         3.10264        0.708456 
        2.89033         3.09012        0.698941 
        2.90605         3.05911        0.689593 
        2.92176         3.02423         0.68042 
        2.93747           3.009        0.671419 
        2.95318         2.98231        0.662579 
        2.96891         2.96961        0.653894 
        2.98456         2.94553        0.645403 
        3.00023         2.92987         0.63705 
        3.01596         2.89616        0.628819 
        3.03164         2.87548        0.620758 
        3.04738         2.86331        0.612814 
         3.0631          2.8417        0.605011 
        3.07883         2.82042        0.597345 
        3.09456         2.78991        0.589812 
        3.11026         2.77723        0.582421 
        3.12596         2.75979        0.575157 
        3.14163         2.74417        0.568034 
        3.15734         2.71785        0.561015 
        3.17308         2.70353        0.554098 
        3.18879         2.68832        0.547316 
        3.20447         2.66233        0.540658 
         3.2202         2.65365        0.534089 
         3.2359         2.63587        0.527642 
        3.25157         2.61267        0.521316 
        3.26729         2.59277        0.515075 
        3.28304         2.57656        0.508924 
        3.29877         2.55389        0.502881 
        3.31446         2.54306         0.49695 
        3.33014         2.52723        0.491119 
        3.34585         2.51199        0.485373 
        3.36158         2.48761         0.47971 
        3.37727         2.48403        0.474156 
        3.39294         2.46205        0.468694 
        3.40867         2.45093        0.463299 
        3.42439         2.42788        0.457992 
        3.44008         2.41178        0.452778 
        3.45578         2.39851        0.447641 
        3.47153         2.38762        0.442573 
        3.48724         2.37293        0.437592 
        3.50292         2.35182          0.4327 
        3.51859         2.34191        0.427884 
        3.53431         2.32079        0.423127 
        3.55007         2.31969         0.41843 
        3.56577         2.29627        0.413824 
        3.58146         2.28435        0.409288 
        3.59719         2.27463         0.40481 
        3.61292         2.25689        0.400401 
        3.62859          2.2458        0.396074 
        3.64429          2.2298        0.391802 
        3.66003         2.21662        0.387581 
        3.67578         2.20393        0.383423 
        3.69146           2.185        0.379342 
        3.70712         2.17493        0.375327 
        3.72284         2.16057        0.371356 
        3.73853         2.15017        0.367449 
        3.75422         2.13642        0.363597 
        3.76993         2.12059        0.359797 
        3.78564         2.10589        0.356053 
        3.80137         2.09404        0.352355 
        3.81707         2.08317        0.348718 
        3.83279         2.07644         0.34513 
        3.84853         2.05906        0.341586 
        3.86424         2.04461        0.338099 
        3.87992         2.03405        0.334665 
        3.89561         2.02333        0.331279 
        3.91134         2.01364        0.327933 
        3.92704         1.99694        0.324637 
        3.94273          1.9876         0.32139 
        3.95845         1.97287        0.318181 
        3.97418         1.96389        0.315015 
        3.98988         1.95546        0.311896 
        4.00554         1.94562        0.308829 
        4.02125         1.92825        0.305793 
        4.03698         1.92213        0.302794 
        4.05268         1.90553        0.299842 
        4.06839         1.89599        0.296927 
         4.0841         1.88161        0.294051 
        4.09983         1.86734         0.29121 
        4.11555         1.85866        0.288407 
        4.13124         1.84719        0.285649 
        4.14693         1.83398        0.282924 
        4.16266         1.82832        0.280229 
        4.17839         1.81522        0.277571 
        4.19408         1.80166        0.274953 
        4.20977         1.79081        0.272367 
        4.22551         1.78638        0.269809 
        4.24123         1.77155        0.267286 
        4.25691         1.76027        0.264802 
        4.27259         1.74746        0.262349 
        4.28831         1.74396        0.259922 
        4.30404         1.73009        0.257524 
        4.31974         1.72004        0.255161 
        4.33543         1.70685        0.252829 
        4.35116          1.7026         0.25052 
        4.36688         1.69179        0.248241 
        4.38255          1.6853        0.245999 
        4.39825         1.67265         0.24378 
        4.41398         1.66311        0.241584 
         4.4297         1.65487        0.239417 
        4.44541         1.64029        0.237277 
        4.46111         1.63668        0.235165 
        4.47683         1.62955        0.233077 
        4.49251          1.6162        0.231018 
        4.50819         1.61065        0.228985 
         4.5239         1.60029        0.226974 
        4.53962         1.59198        0.224984 
        4.55535         1.58565        0.223017 
        4.57106         1.57616        0.221076 
        4.58678         1.56827        0.219158 
         4.6025         1.56062        0.217263 
        4.61821         1.55629         0.21539 
        4.63391         1.54713        0.213541 
         4.6496         1.53642        0.211715 
        4.66532         1.53355        0.209908 
        4.68103         1.52024        0.208122 
        4.69673         1.51702        0.206359 
        4.71241          1.5093        0.204618 
        4.72811         1.50544        0.202894 
        4.74384         1.49592        0.201188 
        4.75955         1.49228        0.199504 
        4.77525         1.48128         0.19784 
        4.79096         1.47204        0.196194 
        4.80669          1.4678        0.194565 
         4.8224         1.46369        0.192956 
        4.83809         1.45738        0.191367 
        4.85379         1.45241        0.189796 
         4.8695         1.43895         0.18824 
        4.88521         1.43826        0.186703 
        4.90093         1.43362        0.185183 
        4.91663         1.42471        0.183681 
        4.93234         1.42141        0.182193 
        4.94807         1.41141        0.180722 
        4.96377         1.40619        0.179269 
        4.97943         1.40135        0.177836 
        4.99514         1.39571        0.176414 
        5.01086         1.38811        0.175007 
        5.02654         1.38206        0.173619 
        5.04227         1.37841        0.172241 
          5.058         1.37299        0.170878 
        5.07371         1.37022        0.169533 
        5.08942         1.36376        0.168202 
        5.10513         1.35757        0.166885 
        5.12084         1.35071        0.165581 
        5.13656           1.347        0.164291 
        5.15225          1.3406        0.163018 
        5.16796         1.33513        0.161756 
        5.18369         1.33258        0.160506 
         5.1994         1.32777        0.159271 
        5.21509         1.31945        0.158051 
        5.23079          1.3166        0.156842 
        5.24649         1.31164        0.155646 
        5.26217         1.30731        0.154464 
        5.27788         1.29953        0.153292 
        5.29359         1.29537        0.152133 
        5.30933         1.29279        0.150983 
        5.32504         1.28615        0.149848 
        5.34073         1.28264        0.148725 
        5.35646         1.27743        0.147612 
        5.37218         1.27347         0.14651 
        5.38789         1.26926         0.14542 
        5.40357         1.26558        0.144344 
        5.41929         1.26422        0.143275 
        5.43502         1.25479        0.142217 
         5.4507         1.25114        0.141173 
        5.46639          1.2494        0.140139 
        5.48212         1.24301        0.139113 
        5.49786         1.23803        0.138095 
        5.51353         1.23602        0.137093 
        5.52921         1.22961          0.1361 
        5.54495         1.22829        0.135114 
        5.56066         1.22433        0.134139 
        5.57637         1.22032        0.133174 
        5.59207         1.21422        0.132218 
        5.60778         1.21294        0.131272 
        5.62346         1.20668        0.130337 
        5.63916         1.20555        0.129409 
        5.65487         1.19886         0.12849 
         5.6706         1.19482        0.127579 
        5.68633          1.1912        0.126677 
        5.70203         1.19001        0.125785 
        5.71773         1.18423        0.124902 
        5.73344         1.18239        0.124026 
        5.74916         1.17821        0.123159 
        5.76486          1.1727        0.122301 
        5.78054         1.17154        0.121452 
        5.79626         1.16769        0.120609 
          5.812         1.16383        0.119773 
         5.8277         1.15898        0.118948 
        5.84339         1.15914         0.11813 
        5.85911         1.15382        0.117318 
        5.87484         1.14896        0.116515 
        5.89053         1.14539         0.11572 
        5.90623         1.14373        0.114932 
        5.92195         1.14136         0.11415 
        5.93767         1.13639        0.113376 
        5.95336          1.1315        0.112611 
        5.96905         1.12797        0.111853 
        5.98476          1.1264          0.1111 
        6.00048         1.12427        0.110355 
        6.01617         1.11786        0.109617 
        6.03185         1.11675        0.108887 
        6.04756         1.11609        0.108161 
        6.06331         1.11034        0.107441 
        6.07903         1.10958        0.106729 
        6.09473         1.10519        0.106024 
        6.11044         1.10208        0.105325 
        6.12616         1.09792        0.104632 
        6.14186          1.0953        0.103946 
        6.15755          1.0929        0.103266 
        6.17326         1.09069        0.102592 
        6.18898         1.08728        0.101923 
        6.20467         1.08212        0.101262 
        6.22036         1.08131        0.100606 
         6.2361         1.07792       0.0999549 
         6.2518         1.07714       0.0993103 
        6.26748          1.0724       0.0986728 
        6.28319         1.07032       0.0980391 
        6.29893         1.06558       0.0974104 
        6.31463         1.06466       0.0967883 
        6.33033         1.05966       0.0961718 
        6.34604         1.05741       0.0955603 
        6.36177         1.05597       0.0949535 
        6.37747         1.05331        0.094353 
