# k  (h/Mpc)    Pcb(k)  (Mpc/h)^3    Pcb_linear(k) (Mpc/h)^3   ShotnoiseSubtracted = true
      0.0200456         19645.6         20095.6 
      0.0350414         13977.5         14608.8 
      0.0492313         10412.8         10614.5 
      0.0637834          8996.9         8823.73 
      0.0800726         7102.13         7003.17 
       0.096163         4927.78         5081.41 
       0.111083         3952.64         4053.06 
       0.126058          3642.3         3591.84 
       0.142273         3153.15         3043.08 
       0.158546         2739.65         2403.39 
        0.17375         2190.21         2024.86 
       0.188953         2138.84         1833.46 
       0.204907         2010.24         1622.24 
       0.220756         1737.79         1372.51 
        0.23588         1548.73         1193.97 
         0.2514         1347.18         1084.71 
       0.267535         1343.62         981.474 
       0.283568         1218.02         865.529 
       0.299022         1150.04         771.141 
       0.314451         1095.69         704.771 
       0.330372         1006.66         646.548 
       0.346141         953.174         586.841 
       0.361624         916.044         533.358 
       0.377134         851.676         490.774 
       0.392932         818.834         454.103 
       0.408854         799.539         418.595 
       0.424564         742.243         385.825 
       0.440253         729.747         357.705 
       0.455999         698.028         333.253 
       0.471626         670.246         310.782 
        0.48727         643.151         289.761 
       0.502856         625.814         270.878 
       0.518488         618.662         254.029 
       0.534347         578.854         238.365 
       0.550082         561.251         223.922 
       0.565732         560.057         210.709 
       0.581496         527.396         198.607 
       0.597222         518.475         187.509 
       0.612804         506.891         177.303 
       0.628434         491.219         167.791 
       0.644267         478.325         158.898 
       0.660051         463.242         150.701 
       0.675724         459.062         143.133 
       0.691403         443.739         136.078 
       0.707174         428.911         129.459 
       0.722871          424.13         123.306 
        0.73838         417.117         117.619 
       0.754018           406.1         112.248 
       0.769845          397.32         107.154 
        0.78569         392.281         102.371 
       0.801365         381.404         97.9286 
       0.817031         369.588         93.7536 
       0.832809          367.29         89.7965 
       0.848511         358.299         86.0868 
       0.864097         349.372         82.6131 
       0.879701         344.744         79.3287 
       0.895507         340.599         76.1849 
       0.911279         329.727         73.2188 
        0.92691         326.162          70.436 
       0.942635         318.604          67.783 
       0.958396         311.499         65.2617 
       0.974128         306.388         62.8738 
       0.989692         303.125         60.6295 
        1.00528         296.529         58.4919 
        1.02113         294.418         56.4242 
        1.03692         286.333         54.4645 
        1.05264         283.969         52.6074 
        1.06832         276.861           50.84 
        1.08405         272.445         49.1495 
        1.09979         267.294         47.5352 
        1.11537         263.275         46.0096 
        1.13105         257.562         44.5422 
        1.14679         254.093         43.1333 
        1.16256          249.39         41.7829 
        1.17828         246.881         40.4949 
        1.19395         241.181         39.2658 
         1.2097          240.06         38.0816 
        1.22537         234.381         36.9521 
          1.241         233.146         35.8721 
        1.25666         227.944         34.8326 
        1.27241         224.995         33.8296 
        1.28819         221.918         32.8646 
        1.30392         216.524         31.9401 
        1.31957         216.958         31.0554 
        1.33529         212.096         30.2011 
        1.35108         207.184         29.3756 
        1.36674         206.021          28.587 
         1.3824         204.138         27.8282 
        1.39811         201.377         27.0944 
        1.41389         197.665         26.3844 
        1.42964         195.453         25.7011 
        1.44531         192.565         25.0454 
        1.46101          190.03         24.4113 
        1.47667         186.544          23.801 
        1.49229         184.912         23.2133 
        1.50793         181.079         22.6449 
        1.52367         179.734         22.0918 
        1.53953          176.91         21.5536 
        1.55526         172.994         21.0376 
        1.57092         172.067         20.5407 
        1.58662          169.85         20.0587 
        1.60235         166.826         19.5913 
        1.61809         165.896         19.1386 
        1.63369         162.381         18.7042 
        1.64941         159.175         18.2802 
        1.66519         158.515         17.8679 
        1.68085         156.637         17.4713 
        1.69652         154.189         17.0866 
        1.71228         151.302         16.7113 
        1.72806         149.651          16.347 
        1.74368         148.273         15.9973 
        1.75933          145.45         15.6571 
        1.77505         144.203         15.3252 
        1.79081         143.012         15.0024 
         1.8065         141.084         14.6903 
        1.82218         138.506         14.3874 
        1.83797          137.59         14.0909 
        1.85367          135.63         13.8044 
        1.86928         133.253         13.5277 
        1.88497         131.417          13.257 
        1.90073          130.18         12.9927 
        1.91647         128.545         12.7359 
        1.93218         126.946         12.4866 
        1.94787          125.16         12.2444 
        1.96363         123.331         12.0076 
        1.97935         121.738         11.7776 
        1.99499         119.953         11.5549 
        2.01064         118.749         11.3377 
         2.0264         117.035         11.1247 
        2.04216         115.722         10.9172 
        2.05781         114.669         10.7164 
        2.07353         113.608         10.5199 
        2.08928         111.097         10.3279 
        2.10499         109.841         10.1413 
        2.12065         108.396         9.95979 
        2.13633          107.81          9.7826 
        2.15211         105.583         9.60857 
        2.16785          104.03         9.43927 
        2.18349         103.276         9.27512 
        2.19916          102.15         9.11453 
        2.21489         100.807         8.95721 
        2.23063          99.262          8.8035 
         2.2463         98.1191          8.6541 
        2.26194         97.1219         8.50854 
        2.27765         95.9514         8.36558 
        2.29341         95.0178         8.22554 
        2.30914         93.7373         8.08899 
        2.32486         92.8929         7.95563 
        2.34061         91.5935         7.82505 
        2.35635         90.1634         7.69752 
        2.37203         89.0479         7.57328 
        2.38768         88.2296         7.45204 
        2.40339         87.2909         7.33302 
        2.41914         86.0417         7.21632 
        2.43483         85.1201         7.10257 
         2.4505         84.0356         6.99147 
        2.46622         82.8122         6.88237 
        2.48195         81.9186         6.77559 
        2.49759         80.9086         6.67164 
        2.51328         80.4554         6.56961 
        2.52906         78.9878         6.46907 
        2.54479         78.2307           6.371 
        2.56049         77.4349         6.27516 
        2.57618         76.6442         6.18138 
        2.59189         75.6341         6.08937 
        2.60758         74.9906         5.99938 
        2.62325         73.8918         5.91132 
        2.63898         72.9663         5.82472 
        2.65468         72.2009         5.74004 
        2.67044         71.3863         5.65668 
        2.68618         70.6588         5.57517 
        2.70184         70.2106         5.49559 
        2.71755         69.2551         5.41737 
        2.73329         68.4911         5.34055 
        2.74897         67.6574         5.26547 
        2.76462         66.8954           5.192 
        2.78034           66.24         5.11963 
        2.79607         65.1827         5.04857 
        2.81179         64.6762         4.97893 
        2.82749         63.8393         4.91069 
        2.84321         63.3794         4.84364 
        2.85893         62.6007         4.77788 
        2.87462           61.77         4.71344 
        2.89033         61.1832         4.65014 
        2.90605         60.4194         4.58794 
        2.92176         59.9902         4.52691 
        2.93747         59.5371         4.46703 
        2.95318         58.7273         4.40821 
        2.96891         58.1796         4.35043 
        2.98456         57.5253         4.29394 
        3.00023         56.7052         4.23837 
        3.01596         56.2412         4.18361 
        3.03164         55.5177         4.12997 
        3.04738         55.0242         4.07712 
         3.0631          54.426         4.02521 
        3.07883         53.8349          3.9742 
        3.09456         53.3263         3.92409 
        3.11026         52.6041         3.87491 
        3.12596          52.116         3.82659 
        3.14163         51.5999          3.7792 
        3.15734         51.2283          3.7325 
        3.17308         50.5319         3.68648 
        3.18879         50.2274         3.64136 
        3.20447         49.2988         3.59706 
         3.2202         49.1297         3.55336 
         3.2359         48.5756         3.51046 
        3.25157         48.0246         3.46838 
        3.26729         47.6401         3.42685 
        3.28304         47.1266         3.38593 
        3.29877         46.6985         3.34572 
        3.31446         46.0266         3.30626 
        3.33014         45.7357         3.26747 
        3.34585          45.529         3.22924 
        3.36158         44.9676         3.19157 
        3.37727         44.4618         3.15461 
        3.39294         44.0239         3.11828 
        3.40867         43.5606         3.08238 
        3.42439         42.9785         3.04707 
        3.44008         42.6725         3.01238 
        3.45578         42.2218         2.97821 
        3.47153         41.7889         2.94449 
        3.48724         41.4791         2.91135 
        3.50292         41.1353          2.8788 
        3.51859          40.636         2.84676 
        3.53431         40.2166         2.81511 
        3.55007         39.7424         2.78387 
        3.56577         39.4646         2.75322 
        3.58146         39.0549         2.72304 
        3.59719         38.6872         2.69325 
        3.61292         38.2722         2.66391 
        3.62859          38.015         2.63512 
        3.64429         37.7076         2.60671 
        3.66003         37.2652         2.57862 
        3.67578         36.7867         2.55096 
        3.69146         36.5362          2.5238 
        3.70712         36.2127          2.4971 
        3.72284         35.8124         2.47067 
        3.73853         35.5018         2.44468 
        3.75422         35.1476         2.41905 
        3.76993         34.9572         2.39377 
        3.78564         34.6036         2.36886 
        3.80137         34.2328         2.34426 
        3.81707         33.8699         2.32006 
        3.83279         33.6912         2.29619 
        3.84853         33.3441         2.27261 
        3.86424         32.8872         2.24941 
        3.87992         32.7369         2.22656 
        3.89561         32.4136         2.20404 
        3.91134         31.9811         2.18178 
        3.92704         31.8389         2.15985 
        3.94273         31.4518         2.13824 
        3.95845          31.235         2.11689 
        3.97418         30.9376         2.09583 
        3.98988         30.6474         2.07508 
        4.00554         30.3095         2.05467 
        4.02125         30.0784         2.03448 
        4.03698         29.8425         2.01452 
        4.05268         29.6182         1.99488 
        4.06839         29.2954         1.97549 
         4.0841         29.1066         1.95636 
        4.09983          28.746         1.93745 
        4.11555         28.5098         1.91881 
        4.13124         28.3004         1.90045 
        4.14693         28.0017         1.88233 
        4.16266          27.753          1.8644 
        4.17839         27.5101         1.84671 
        4.19408         27.2508         1.82929 
        4.20977         27.0357         1.81209 
        4.22551         26.8247         1.79507 
        4.24123         26.6121         1.77828 
        4.25691         26.3435         1.76176 
        4.27259         26.1858         1.74544 
        4.28831         25.8441         1.72929 
        4.30404         25.7082         1.71333 
        4.31974         25.4473         1.69761 
        4.33543         25.2234          1.6821 
        4.35116          25.135         1.66674 
        4.36688         24.8511         1.65158 
        4.38255         24.5645         1.63666 
        4.39825         24.4041          1.6219 
        4.41398         24.1208         1.60728 
         4.4297         23.9589         1.59287 
        4.44541         23.7699         1.57863 
        4.46111         23.6064         1.56458 
        4.47683         23.4023         1.55069 
        4.49251          23.188         1.53699 
        4.50819         22.9742         1.52347 
         4.5239          22.829         1.51008 
        4.53962         22.6242         1.49684 
        4.55535         22.4656         1.48376 
        4.57106         22.2568         1.47085 
        4.58678         22.0889         1.45809 
         4.6025         21.9325         1.44547 
        4.61821         21.7763         1.43301 
        4.63391         21.5149         1.42071 
         4.6496         21.3643         1.40857 
        4.66532         21.2048         1.39654 
        4.68103         21.0049         1.38466 
        4.69673         20.8373         1.37293 
        4.71241         20.7035         1.36135 
        4.72811         20.5114         1.34988 
        4.74384         20.3765         1.33853 
        4.75955         20.2071         1.32732 
        4.77525         20.0162         1.31625 
        4.79096         19.9043          1.3053 
        4.80669         19.7045         1.29446 
         4.8224          19.533         1.28376 
        4.83809         19.3969         1.27319 
        4.85379         19.1664         1.26273 
         4.8695         19.1124         1.25238 
        4.88521         18.9373         1.24216 
        4.90093         18.7782         1.23204 
        4.91663         18.6001         1.22205 
        4.93234         18.5016         1.21215 
        4.94807         18.3223         1.20236 
        4.96377         18.2098          1.1927 
        4.97943         18.0784         1.18316 
        4.99514         17.9297          1.1737 
        5.01086         17.7891         1.16434 
        5.02654         17.6338         1.15511 
        5.04227         17.5141         1.14594 
          5.058         17.3597         1.13687 
        5.07371         17.2371         1.12792 
        5.08942          17.122         1.11906 
        5.10513         16.9882          1.1103 
        5.12084         16.8502         1.10163 
        5.13656         16.6821         1.09305 
        5.15225          16.591         1.08458 
        5.16796         16.4911         1.07618 
        5.18369         16.3467         1.06786 
         5.1994         16.2419         1.05965 
        5.21509         16.1094         1.05153 
        5.23079         15.9849         1.04349 
        5.24649         15.8718         1.03553 
        5.26217         15.7243         1.02767 
        5.27788         15.6199         1.01987 
        5.29359         15.5148         1.01216 
        5.30933         15.3724         1.00451 
        5.32504         15.2736        0.996955 
        5.34073         15.1592        0.989486 
        5.35646          15.064        0.982078 
        5.37218          14.939        0.974745 
        5.38789         14.8263        0.967499 
        5.40357         14.7379        0.960334 
        5.41929         14.6266        0.953226 
        5.43502         14.4921        0.946189 
         5.4507         14.4064         0.93924 
        5.46639         14.2814         0.93236 
        5.48212         14.1628        0.925532 
        5.49786         14.1031        0.918765 
        5.51353         13.9787        0.912099 
        5.52921         13.9152        0.905492 
        5.54495         13.8038        0.898931 
        5.56066         13.7099        0.892442 
        5.57637         13.5891        0.886018 
        5.59207         13.4836        0.879663 
        5.60778         13.4108        0.873368 
        5.62346         13.3159        0.867144 
        5.63916         13.1803        0.860974 
        5.65487         13.1176         0.85486 
         5.6706         12.9945        0.848799 
        5.68633          12.908        0.842795 
        5.70203         12.8494         0.83686 
        5.71773         12.7345        0.830984 
        5.73344         12.6551        0.825162 
        5.74916         12.5801        0.819389 
        5.76486          12.464         0.81368 
        5.78054         12.3892        0.808034 
        5.79626         12.2836        0.802425 
          5.812         12.2203        0.796864 
         5.8277         12.1124        0.791372 
        5.84339         12.0427        0.785932 
        5.85911         11.9461        0.780532 
        5.87484          11.864        0.775184 
        5.89053         11.7818        0.769897 
        5.90623         11.6927        0.764657 
        5.92195         11.6133        0.759456 
        5.93767         11.5338        0.754306 
        5.95336         11.4643        0.749213 
        5.96905         11.3733        0.744168 
        5.98476         11.3245        0.739163 
        6.00048         11.1975        0.734202 
        6.01617         11.1563        0.729294 
        6.03185         11.0792        0.724436 
        6.04756         10.9984         0.71961 
        6.06331         10.9226        0.714819 
        6.07903         10.8409        0.710081 
        6.09473         10.7774         0.70539 
        6.11044          10.707        0.700737 
        6.12616         10.6503        0.696127 
        6.14186         10.5592        0.691564 
        6.15755         10.4903        0.687041 
        6.17326         10.3979        0.682555 
        6.18898         10.3625        0.678107 
        6.20467         10.2773        0.673707 
        6.22036         10.2044        0.669346 
         6.2361         10.1423        0.665012 
         6.2518         10.0755        0.660723 
        6.26748         10.0056        0.656481 
        6.28319         9.95059        0.652265 
        6.29893         9.88172        0.648083 
        6.31463         9.80206        0.643944 
        6.33033         9.73431        0.639842 
        6.34604         9.68198        0.635773 
        6.36177         9.61648        0.631736 
        6.37747         9.56608        0.627741 
