# k  (h/Mpc)    Pcb(k)  (Mpc/h)^3    Pcb_linear(k) (Mpc/h)^3   ShotnoiseSubtracted = true
      0.0200456         11844.7         12022.5 
      0.0350414            8972         8739.96 
      0.0492313          6288.6         6350.29 
      0.0637834         5088.18         5278.94 
      0.0800726         4008.03         4189.76 
       0.096163         3144.78         3040.04 
       0.111083         2555.37         2424.81 
       0.126058         2129.83         2148.88 
       0.142273         1837.21         1820.57 
       0.158546         1508.37         1437.87 
        0.17375         1319.96          1211.4 
       0.188953         1223.14          1096.9 
       0.204907         1044.78         970.532 
       0.220756         936.511         821.129 
        0.23588         832.147         714.311 
         0.2514         745.226         648.944 
       0.267535         722.339         587.183 
       0.283568         631.338         517.817 
       0.299022         601.617         461.348 
       0.314451         607.571         421.641 
       0.330372         522.216         386.808 
       0.346141         483.794         351.087 
       0.361624         461.985          319.09 
       0.377134         432.032         293.613 
       0.392932         419.012         271.675 
       0.408854          398.35         250.431 
       0.424564         384.817         230.826 
       0.440253         348.119         214.003 
       0.455999         333.073         199.374 
       0.471626         333.881          185.93 
        0.48727         316.851         173.354 
       0.502856         290.779         162.057 
       0.518488         291.828         151.977 
       0.534347         271.136         142.606 
       0.550082         263.408         133.965 
       0.565732         261.777          126.06 
       0.581496         247.748          118.82 
       0.597222         241.221          112.18 
       0.612804         234.569         106.075 
       0.628434         226.104         100.384 
       0.644267         216.051         95.0632 
       0.660051         212.177         90.1596 
       0.675724         209.779         85.6316 
       0.691403         204.127         81.4108 
       0.707174         197.057         77.4508 
       0.722871         193.993         73.7699 
        0.73838         192.174         70.3676 
       0.754018         181.682         67.1541 
       0.769845         181.552         64.1065 
        0.78569         176.824         61.2454 
       0.801365         171.818         58.5874 
       0.817031         167.729         56.0896 
       0.832809         164.947         53.7222 
       0.848511         160.943         51.5028 
       0.864097         157.608         49.4246 
       0.879701         156.228         47.4597 
       0.895507         152.219         45.5789 
       0.911279         147.991         43.8044 
        0.92691         145.604         42.1395 
       0.942635         143.359         40.5523 
       0.958396         141.009         39.0439 
       0.974128         138.093         37.6153 
       0.989692         134.478         36.2726 
        1.00528         133.281         34.9937 
        1.02113         129.938         33.7567 
        1.03692         128.791         32.5843 
        1.05264         127.121         31.4732 
        1.06832          124.26         30.4159 
        1.08405         122.396         29.4045 
        1.09979         121.594         28.4387 
        1.11537         118.546          27.526 
        1.13105         117.375         26.6481 
        1.14679         115.296         25.8052 
        1.16256         113.189         24.9973 
        1.17828         112.043         24.2267 
        1.19395         109.266         23.4914 
         1.2097         108.643         22.7829 
        1.22537         106.402         22.1072 
          1.241         105.625          21.461 
        1.25666         102.617         20.8392 
        1.27241         101.105         20.2391 
        1.28819         100.646         19.6618 
        1.30392         98.7578         19.1087 
        1.31957          97.345         18.5794 
        1.33529          96.167         18.0683 
        1.35108         95.5017         17.5745 
        1.36674         93.6099         17.1027 
         1.3824         93.2513         16.6487 
        1.39811         90.8159         16.2097 
        1.41389         89.8891         15.7849 
        1.42964         88.2593         15.3761 
        1.44531         87.6076         14.9838 
        1.46101         86.5225         14.6044 
        1.47667         85.6628         14.2393 
        1.49229         84.7463         13.8877 
        1.50793         83.2472         13.5476 
        1.52367         82.5974         13.2168 
        1.53953          81.461         12.8948 
        1.55526         80.0443         12.5861 
        1.57092         79.8108         12.2888 
        1.58662         78.6774         12.0005 
        1.60235         77.4403         11.7208 
        1.61809         76.5114           11.45 
        1.63369         75.3894         11.1901 
        1.64941         75.3834         10.9364 
        1.66519         73.5727         10.6898 
        1.68085         72.8584         10.4525 
        1.69652         71.5642         10.2223 
        1.71228         70.8631         9.99781 
        1.72806         70.5014         9.77988 
        1.74368         69.3136         9.57064 
        1.75933         68.6857         9.36712 
        1.77505         68.0559         9.16857 
        1.79081         66.8779         8.97544 
         1.8065         66.6771         8.78871 
        1.82218          64.996         8.60747 
        1.83797         64.6984          8.4301 
        1.85367         63.8087         8.25872 
        1.86928         63.2243         8.09315 
        1.88497         62.4674         7.93121 
        1.90073         61.6153         7.77312 
        1.91647         61.0132         7.61949 
        1.93218          60.423         7.47034 
        1.94787         59.5771          7.3254 
        1.96363         58.8206         7.18375 
        1.97935         58.1904         7.04614 
        1.99499         57.6315         6.91291 
        2.01064         57.0057         6.78294 
         2.0264         56.4251          6.6555 
        2.04216         55.6558         6.53141 
        2.05781         54.9787         6.41126 
        2.07353         54.2687         6.29371 
        2.08928         53.7843         6.17886 
        2.10499         53.2526         6.06718 
        2.12065         52.7108         5.95861 
        2.13633         52.2668          5.8526 
        2.15211         51.4903         5.74848 
        2.16785         50.7269          5.6472 
        2.18349         50.2084         5.54899 
        2.19916         49.6607         5.45291 
        2.21489         49.4011          5.3588 
        2.23063         48.5828         5.26684 
         2.2463         48.1729         5.17745 
        2.26194         47.8572         5.09037 
        2.27765         47.1049         5.00484 
        2.29341         46.4322         4.92106 
        2.30914         45.9893         4.83937 
        2.32486         45.4143         4.75958 
        2.34061         45.1115         4.68146 
        2.35635         44.4184         4.60517 
        2.37203          44.027         4.53084 
        2.38768         43.7314          4.4583 
        2.40339         43.2507          4.3871 
        2.41914         42.8258         4.31728 
        2.43483          42.016         4.24923 
         2.4505         41.8807         4.18276 
        2.46622         41.4227         4.11749 
        2.48195         40.9188          4.0536 
        2.49759         40.4526         3.99142 
        2.51328         40.0977         3.93038 
        2.52906         39.6681         3.87022 
        2.54479         39.3046         3.81155 
        2.56049         38.7183         3.75422 
        2.57618          38.461         3.69811 
        2.59189          37.993         3.64307 
        2.60758          37.495         3.58923 
        2.62325         37.4337         3.53654 
        2.63898         36.8658         3.48474 
        2.65468         36.4894         3.43407 
        2.67044         36.2244          3.3842 
        2.68618         35.8783         3.33544 
        2.70184         35.3333         3.28783 
        2.71755         35.1025         3.24103 
        2.73329         34.5431         3.19507 
        2.74897         34.2956         3.15015 
        2.76462         33.8634          3.1062 
        2.78034         33.6491          3.0629 
        2.79607         33.2073         3.02039 
        2.81179         32.9427         2.97872 
        2.82749         32.6083          2.9379 
        2.84321         32.2139         2.89779 
        2.85893         31.9145         2.85844 
        2.87462         31.6458         2.81989 
        2.89033         31.3459         2.78202 
        2.90605         31.0803         2.74481 
        2.92176         30.8658          2.7083 
        2.93747         30.4908         2.67247 
        2.95318         30.1617         2.63728 
        2.96891         29.9191         2.60271 
        2.98456         29.5909         2.56892 
        3.00023         29.2247         2.53567 
        3.01596          29.003         2.50291 
        3.03164         28.6629         2.47082 
        3.04738         28.4754          2.4392 
         3.0631         28.2297         2.40815 
        3.07883         27.8238         2.37763 
        3.09456          27.528         2.34765 
        3.11026         27.2688         2.31823 
        3.12596         26.9836         2.28932 
        3.14163         26.7394         2.26097 
        3.15734         26.5264         2.23303 
        3.17308         26.1931         2.20549 
        3.18879          26.009          2.1785 
        3.20447         25.7577           2.152 
         3.2202         25.4354         2.12585 
         3.2359         25.2216         2.10019 
        3.25157         25.0516         2.07501 
        3.26729         24.8313         2.05017 
        3.28304         24.4663         2.02569 
        3.29877         24.2562         2.00163 
        3.31446         24.0655         1.97802 
        3.33014         23.8395         1.95482 
        3.34585         23.6486         1.93195 
        3.36158         23.3989         1.90941 
        3.37727         23.1523          1.8873 
        3.39294         22.9765         1.86556 
        3.40867         22.7721         1.84408 
        3.42439         22.5413         1.82296 
        3.44008         22.2889         1.80221 
        3.45578         22.1763         1.78176 
        3.47153         21.8889         1.76159 
        3.48724         21.7554         1.74176 
        3.50292         21.5191         1.72229 
        3.51859         21.3489         1.70312 
        3.53431         21.1607         1.68419 
        3.55007         20.9427         1.66549 
        3.56577         20.7851         1.64716 
        3.58146         20.5509          1.6291 
        3.59719         20.3456         1.61128 
        3.61292         20.1908         1.59373 
        3.62859         19.9621         1.57651 
        3.64429         19.7464          1.5595 
        3.66003         19.7099          1.5427 
        3.67578          19.502         1.52615 
        3.69146         19.2469         1.50991 
        3.70712         19.1132         1.49393 
        3.72284         18.9329         1.47812 
        3.73853         18.7797         1.46257 
        3.75422         18.6115         1.44724 
        3.76993         18.4469         1.43211 
        3.78564         18.3002         1.41721 
        3.80137         18.1273         1.40249 
        3.81707         17.9622         1.38801 
        3.83279         17.7644         1.37373 
        3.84853         17.6202         1.35962 
        3.86424         17.4554         1.34574 
        3.87992         17.2981         1.33208 
        3.89561         17.1782          1.3186 
        3.91134         17.0045         1.30528 
        3.92704          16.881         1.29216 
        3.94273         16.7499         1.27924 
        3.95845         16.5669         1.26647 
        3.97418         16.4044         1.25386 
        3.98988         16.2765         1.24145 
        4.00554         16.2004         1.22924 
        4.02125         15.9618         1.21716 
        4.03698         15.8056         1.20522 
        4.05268         15.7459         1.19347 
        4.06839         15.5909         1.18187 
         4.0841         15.4626         1.17042 
        4.09983         15.2687         1.15911 
        4.11555         15.2034         1.14796 
        4.13124         15.0859         1.13698 
        4.14693         14.9635         1.12613 
        4.16266         14.8376         1.11541 
        4.17839         14.6744         1.10482 
        4.19408         14.5394          1.0944 
        4.20977         14.4522         1.08411 
        4.22551         14.3162         1.07393 
        4.24123         14.1799         1.06389 
        4.25691         14.0521           1.054 
        4.27259         13.9458         1.04424 
        4.28831         13.8816         1.03458 
        4.30404         13.7517         1.02503 
        4.31974         13.6262         1.01562 
        4.33543         13.4861         1.00634 
        4.35116         13.3867        0.997153 
        4.36688         13.2616        0.988083 
        4.38255         13.1788        0.979159 
        4.39825         13.0583        0.970325 
        4.41398         12.9618        0.961583 
         4.4297         12.8318        0.952959 
        4.44541          12.738        0.944441 
        4.46111          12.652        0.936034 
        4.47683         12.5273        0.927723 
        4.49251         12.4268         0.91953 
        4.50819         12.3249        0.911438 
         4.5239         12.2436        0.903431 
        4.53962         12.1462        0.895511 
        4.55535         12.0318        0.887682 
        4.57106         11.9508        0.879958 
        4.58678         11.8539        0.872323 
         4.6025          11.754        0.864778 
        4.61821         11.6568        0.857323 
        4.63391         11.5737        0.849966 
         4.6496         11.4781        0.842697 
        4.66532         11.3996        0.835503 
        4.68103         11.2872        0.828396 
        4.69673         11.1836        0.821378 
        4.71241         11.1249        0.814448 
        4.72811         11.0465        0.807586 
        4.74384         10.9181        0.800795 
        4.75955         10.8674        0.794093 
        4.77525         10.7848        0.787471 
        4.79096         10.7158        0.780916 
        4.80669         10.6092        0.774432 
         4.8224         10.5327         0.76803 
        4.83809         10.4391        0.761706 
        4.85379         10.3645         0.75545 
         4.8695          10.272        0.749259 
        4.88521         10.1988         0.74314 
        4.90093         10.1297        0.737088 
        4.91663         10.0215         0.73111 
        4.93234         9.96847        0.725191 
        4.94807         9.88343        0.719333 
        4.96377         9.82424        0.713551 
        4.97943         9.73441        0.707845 
        4.99514         9.63799        0.702187 
        5.01086         9.61822        0.696586 
        5.02654         9.53545         0.69106 
        5.04227         9.43108        0.685578 
          5.058         9.37115        0.680153 
        5.07371         9.29074        0.674797 
        5.08942         9.24241        0.669498 
        5.10513           9.154        0.664256 
        5.12084         9.11788        0.659067 
        5.13656         9.02202        0.653934 
        5.15225          8.9416        0.648865 
        5.16796         8.89117        0.643841 
        5.18369         8.81608        0.638866 
         5.1994         8.76465        0.633952 
        5.21509         8.70164        0.629094 
        5.23079         8.62942        0.624282 
        5.24649         8.54845        0.619524 
        5.26217         8.49562        0.614818 
        5.27788         8.45875        0.610155 
        5.29359          8.3744        0.605539 
        5.30933         8.32188        0.600964 
        5.32504         8.27365        0.596444 
        5.34073         8.21136        0.591976 
        5.35646         8.13586        0.587544 
        5.37218         8.08149        0.583157 
        5.38789         7.99842        0.578822 
        5.40357         7.96223        0.574535 
        5.41929         7.91632        0.570283 
        5.43502         7.85422        0.566073 
         5.4507         7.79982        0.561915 
        5.46639         7.74124        0.557799 
        5.48212         7.68695        0.553715 
        5.49786         7.64303        0.549666 
        5.51353         7.58146        0.545678 
        5.52921         7.53342        0.541725 
        5.54495          7.4707          0.5378 
        5.56066           7.408        0.533918 
        5.57637          7.3738        0.530075 
        5.59207         7.32576        0.526273 
        5.60778         7.25774        0.522507 
        5.62346         7.20792        0.518783 
        5.63916         7.17009        0.515091 
        5.65487         7.13015        0.511434 
         5.6706         7.06517        0.507808 
        5.68633          7.0291        0.504215 
        5.70203         6.96659        0.500665 
        5.71773         6.93484         0.49715 
        5.73344         6.88262        0.493666 
        5.74916         6.82564        0.490213 
        5.76486         6.79334        0.486797 
        5.78054         6.72925        0.483419 
        5.79626         6.68315        0.480064 
          5.812         6.65229        0.476737 
         5.8277         6.59364        0.473451 
        5.84339         6.55654        0.470196 
        5.85911         6.50189        0.466966 
        5.87484          6.4715        0.463767 
        5.89053         6.42243        0.460603 
        5.90623         6.39353        0.457468 
        5.92195         6.33881        0.454357 
        5.93767         6.29537        0.451276 
        5.95336         6.25103        0.448229 
        5.96905         6.21128        0.445211 
        5.98476         6.17275        0.442216 
        6.00048         6.13384        0.439248 
        6.01617         6.09347        0.436312 
        6.03185         6.04975        0.433405 
        6.04756         6.01177        0.430518 
        6.06331         5.97697        0.427652 
        6.07903          5.9242        0.424817 
        6.09473         5.89662        0.422011 
        6.11044         5.85509        0.419227 
        6.12616         5.80507        0.416469 
        6.14186          5.7802        0.413739 
        6.15755         5.75423        0.411033 
        6.17326         5.70253         0.40835 
        6.18898         5.67124        0.405689 
        6.20467         5.62862        0.403056 
        6.22036         5.59787        0.400447 
         6.2361         5.56247        0.397854 
         6.2518         5.51863        0.395288 
        6.26748         5.49672        0.392751 
        6.28319          5.4564        0.390228 
        6.29893         5.42033        0.387726 
        6.31463         5.40191         0.38525 
        6.33033         5.34915        0.382796 
        6.34604         5.31679        0.380362 
        6.36177         5.28305        0.377946 
        6.37747         5.25425        0.375556 
