# k  (h/Mpc)    Pcb(k)  (Mpc/h)^3    Pcb_linear(k) (Mpc/h)^3   ShotnoiseSubtracted = true
      0.0200456         806.183         816.531 
      0.0350414          600.15          593.59 
      0.0492313         432.825         431.291 
      0.0637834         355.444         358.529 
      0.0800726         281.428         284.555 
       0.096163         209.403          206.47 
       0.111083         167.843         164.685 
       0.126058         145.237         145.945 
       0.142273         122.742         123.647 
       0.158546         98.3063         97.6555 
        0.17375         83.6825         82.2747 
       0.188953         75.1377         74.4979 
       0.204907         64.9565         65.9154 
       0.220756          56.286         55.7684 
        0.23588         49.0449         48.5137 
         0.2514         44.5042         44.0742 
       0.267535         40.5641         39.8796 
       0.283568         35.7288         35.1685 
       0.299022         32.0858         31.3333 
       0.314451         29.8459         28.6365 
       0.330372         26.9947         26.2708 
       0.346141         24.5548         23.8447 
       0.361624         22.3231         21.6716 
       0.377134         20.4562         19.9413 
       0.392932          19.519         18.4513 
       0.408854          17.639         17.0085 
       0.424564         16.6814          15.677 
       0.440253         15.2556         14.5344 
       0.455999         13.9993         13.5408 
       0.471626         13.1137         12.6278 
        0.48727         12.5582         11.7737 
       0.502856         11.7617         11.0064 
       0.518488         10.8373         10.3218 
       0.534347          10.131         9.68532 
       0.550082         9.69886         9.09847 
       0.565732         9.25726         8.56159 
       0.581496         8.68684         8.06987 
       0.597222         8.17914         7.61892 
       0.612804          7.7089         7.20425 
       0.628434         7.40921         6.81774 
       0.644267         7.03969         6.45639 
       0.660051         6.66593         6.12335 
       0.675724         6.28937         5.81583 
       0.691403         6.04696         5.52917 
       0.707174          5.7499         5.26021 
       0.722871         5.60425         5.01022 
        0.73838         5.22893         4.77914 
       0.754018          4.9939          4.5609 
       0.769845         4.73909         4.35391 
        0.78569          4.6136         4.15959 
       0.801365         4.40974         3.97907 
       0.817031         4.25341         3.80943 
       0.832809         4.03235         3.64864 
       0.848511         3.91019         3.49791 
       0.864097         3.76764         3.35676 
       0.879701         3.65803         3.22331 
       0.895507         3.48702         3.09557 
       0.911279         3.36874         2.97505 
        0.92691         3.26986         2.86198 
       0.942635          3.1143         2.75418 
       0.958396         3.01519         2.65174 
       0.974128         2.92717         2.55471 
       0.989692         2.80247         2.46352 
        1.00528         2.72482         2.37666 
        1.02113         2.64813         2.29265 
        1.03692         2.57575         2.21302 
        1.05264         2.46101         2.13756 
        1.06832         2.39652         2.06575 
        1.08405         2.31425         1.99706 
        1.09979         2.25889         1.93146 
        1.11537         2.18394         1.86948 
        1.13105         2.10333         1.80985 
        1.14679         2.05197         1.75261 
        1.16256          1.9853         1.69774 
        1.17828          1.9521          1.6454 
        1.19395         1.87938         1.59546 
         1.2097         1.82468         1.54734 
        1.22537         1.76346         1.50145 
          1.241         1.72629         1.45757 
        1.25666         1.69465         1.41533 
        1.27241         1.64696         1.37458 
        1.28819         1.58481         1.33536 
        1.30392         1.54687          1.2978 
        1.31957         1.51782         1.26185 
        1.33529         1.45717         1.22714 
        1.35108         1.42948          1.1936 
        1.36674         1.38934         1.16156 
         1.3824         1.37096         1.13072 
        1.39811         1.32966         1.10091 
        1.41389         1.29604         1.07206 
        1.42964         1.26401          1.0443 
        1.44531         1.23958         1.01765 
        1.46101         1.20267        0.991887 
        1.47667         1.18168        0.967091 
        1.49229         1.14084        0.943211 
        1.50793         1.11596        0.920113 
        1.52367         1.09007        0.897642 
        1.53953         1.06369        0.875772 
        1.55526         1.05216        0.854807 
        1.57092          1.0325        0.834617 
        1.58662         1.01556        0.815033 
        1.60235        0.980641         0.79604 
        1.61809        0.962076        0.777645 
        1.63369        0.934451        0.759996 
        1.64941        0.920745        0.742769 
        1.66519        0.905465        0.726015 
        1.68085        0.880586        0.709899 
        1.69652        0.863497        0.694268 
        1.71228        0.843788        0.679019 
        1.72806         0.82841        0.664218 
        1.74368        0.812941        0.650007 
        1.75933        0.798745        0.636185 
        1.77505        0.784868          0.6227 
        1.79081        0.759822        0.609583 
         1.8065        0.753872        0.596901 
        1.82218        0.733367        0.584592 
        1.83797        0.716464        0.572546 
        1.85367        0.708641        0.560906 
        1.86928        0.694532        0.549661 
        1.88497         0.67742        0.538663 
        1.90073        0.671321        0.527926 
        1.91647        0.653027        0.517491 
        1.93218        0.643245        0.507362 
        1.94787         0.63169        0.497518 
        1.96363        0.621864        0.487897 
        1.97935        0.608446        0.478551 
        1.99499        0.599046        0.469503 
        2.01064        0.588668        0.460676 
         2.0264        0.573855        0.452021 
        2.04216        0.566836        0.443592 
        2.05781        0.557818        0.435433 
        2.07353        0.547469        0.427449 
        2.08928        0.538804        0.419649 
        2.10499        0.528586        0.412064 
        2.12065        0.519581         0.40469 
        2.13633        0.512094         0.39749 
        2.15211        0.500677        0.390419 
        2.16785        0.495114         0.38354 
        2.18349        0.486883         0.37687 
        2.19916        0.478886        0.370344 
        2.21489        0.469817        0.363952 
        2.23063        0.461387        0.357707 
         2.2463        0.455369        0.351636 
        2.26194        0.449242        0.345722 
        2.27765          0.4411        0.339913 
        2.29341          0.4343        0.334223 
        2.30914        0.425287        0.328675 
        2.32486         0.41991        0.323256 
        2.34061        0.411989         0.31795 
        2.35635        0.406624        0.312768 
        2.37203        0.402686         0.30772 
        2.38768        0.395555        0.302794 
        2.40339        0.389493        0.297958 
        2.41914        0.384244        0.293216 
        2.43483        0.377594        0.288594 
         2.4505        0.372246         0.28408 
        2.46622        0.367142        0.279647 
        2.48195        0.360084        0.275308 
        2.49759        0.358623        0.271084 
        2.51328        0.350344        0.266939 
        2.52906        0.345029        0.262853 
        2.54479        0.340329        0.258869 
        2.56049        0.335204        0.254975 
        2.57618         0.33202        0.251164 
        2.59189        0.325532        0.247425 
        2.60758          0.3233        0.243769 
        2.62325        0.318057        0.240191 
        2.63898        0.314771        0.236672 
        2.65468        0.307754        0.233231 
        2.67044        0.304612        0.229844 
        2.68618        0.300865        0.226532 
        2.70184        0.296396        0.223299 
        2.71755        0.291809         0.22012 
        2.73329        0.290402        0.216999 
        2.74897        0.284057        0.213948 
        2.76462        0.281462        0.210963 
        2.78034        0.276879        0.208023 
        2.79607        0.274596        0.205135 
        2.81179        0.269029        0.202306 
        2.82749        0.266967        0.199533 
        2.84321        0.263506        0.196809 
        2.85893        0.259908        0.194136 
        2.87462        0.255887        0.191518 
        2.89033        0.253797        0.188946 
        2.90605        0.250447        0.186419 
        2.92176        0.248602        0.183939 
        2.93747        0.244004        0.181506 
        2.95318        0.241449        0.179116 
        2.96891        0.238856        0.176768 
        2.98456        0.236291        0.174473 
        3.00023        0.232872        0.172215 
        3.01596        0.229918         0.16999 
        3.03164        0.227091         0.16781 
        3.04738        0.225081        0.165663 
         3.0631        0.222533        0.163554 
        3.07883        0.219769        0.161481 
        3.09456        0.217385        0.159445 
        3.11026        0.214291        0.157447 
        3.12596        0.211363        0.155483 
        3.14163        0.209973        0.153558 
        3.15734        0.207746         0.15166 
        3.17308        0.205355         0.14979 
        3.18879        0.202815        0.147957 
        3.20447        0.200086        0.146157 
         3.2202        0.198899        0.144381 
         3.2359        0.196042        0.142638 
        3.25157         0.19317        0.140928 
        3.26729        0.192346        0.139241 
        3.28304        0.190097        0.137578 
        3.29877         0.18774        0.135945 
        3.31446        0.186603        0.134341 
        3.33014        0.184137        0.132765 
        3.34585         0.18172        0.131212 
        3.36158        0.180381        0.129681 
        3.37727        0.178867        0.128179 
        3.39294        0.177161        0.126703 
        3.40867        0.174609        0.125244 
        3.42439        0.173578         0.12381 
        3.44008        0.171899          0.1224 
        3.45578        0.169863        0.121012 
        3.47153        0.168556        0.119641 
        3.48724        0.166933        0.118295 
        3.50292        0.165654        0.116972 
        3.51859         0.16378        0.115671 
        3.53431        0.161981        0.114385 
        3.55007        0.160757        0.113115 
        3.56577         0.15974         0.11187 
        3.58146        0.157834        0.110644 
        3.59719         0.15647        0.109433 
        3.61292        0.155285        0.108241 
        3.62859        0.153942        0.107071 
        3.64429        0.151982        0.105917 
        3.66003        0.151084        0.104775 
        3.67578        0.149662        0.103651 
        3.69146        0.148277        0.102548 
        3.70712        0.147228        0.101463 
        3.72284        0.146502        0.100389 
        3.73853        0.145278       0.0993331 
        3.75422        0.143556       0.0982918 
        3.76993        0.142453       0.0972645 
        3.78564        0.141173       0.0962522 
        3.80137        0.140327       0.0952528 
        3.81707        0.138676       0.0942696 
        3.83279        0.137847       0.0932994 
        3.84853        0.136665       0.0923414 
        3.86424        0.135501       0.0913987 
        3.87992        0.134387       0.0904705 
        3.89561         0.13346       0.0895552 
        3.91134        0.132152       0.0886507 
        3.92704        0.130984       0.0877597 
        3.94273        0.130061       0.0868818 
        3.95845        0.128628       0.0860143 
        3.97418        0.127773       0.0851585 
        3.98988        0.126285       0.0843154 
        4.00554        0.125403       0.0834861 
        4.02125        0.123924       0.0826656 
        4.03698        0.122253       0.0818548 
        4.05268        0.121364       0.0810567 
        4.06839        0.119528       0.0802686 
         4.0841        0.118128       0.0794913 
        4.09983        0.116869       0.0787232 
        4.11555        0.115389       0.0779655 
        4.13124        0.114038       0.0772199 
        4.14693        0.112699       0.0764834 
        4.16266        0.111389       0.0757548 
        4.17839        0.110166       0.0750361 
        4.19408        0.108689       0.0743284 
        4.20977        0.107984       0.0736295 
        4.22551        0.106925       0.0729378 
        4.24123        0.105486       0.0722558 
        4.25691        0.104677       0.0715844 
        4.27259        0.103612       0.0709212 
        4.28831        0.103023       0.0702652 
        4.30404        0.101386       0.0696168 
        4.31974        0.100829        0.068978 
        4.33543        0.100021       0.0683476 
        4.35116       0.0992771       0.0677235 
        4.36688       0.0983567       0.0671074 
        4.38255       0.0975341       0.0665013 
        4.39825       0.0971286       0.0659014 
        4.41398       0.0962562       0.0653077 
         4.4297       0.0957786       0.0647219 
        4.44541       0.0949046       0.0641434 
        4.46111       0.0943464       0.0635725 
        4.47683       0.0937224        0.063008 
        4.49251       0.0931554       0.0624516 
        4.50819       0.0929636        0.061902 
         4.5239       0.0922802       0.0613582 
        4.53962       0.0918218       0.0608203 
        4.55535       0.0916369       0.0602885 
        4.57106       0.0911277       0.0597639 
        4.58678       0.0908099       0.0592454 
         4.6025       0.0907064        0.058733 
        4.61821       0.0904174       0.0582267 
        4.63391       0.0900707        0.057727 
         4.6496       0.0898284       0.0572333 
        4.66532       0.0896486       0.0567447 
        4.68103       0.0895436        0.056262 
        4.69673       0.0894632       0.0557854 
        4.71241       0.0896166       0.0553147 
        4.72811        0.089338       0.0548487 
        4.74384       0.0891154       0.0543875 
        4.75955        0.089222       0.0539323 
        4.77525       0.0893744       0.0534825 
        4.79096       0.0893756       0.0530373 
        4.80669       0.0889647        0.052597 
         4.8224       0.0895565       0.0521621 
        4.83809       0.0895365       0.0517327 
        4.85379       0.0897409       0.0513078 
         4.8695       0.0897331       0.0508873 
        4.88521       0.0901543       0.0504717 
        4.90093        0.090681       0.0500607 
        4.91663       0.0905692       0.0496546 
        4.93234       0.0910239       0.0492526 
        4.94807       0.0912529       0.0488548 
        4.96377       0.0918562       0.0484621 
        4.97943       0.0926327       0.0480746 
        4.99514       0.0924519       0.0476903 
        5.01086       0.0927006       0.0473099 
        5.02654       0.0937557       0.0469346 
        5.04227       0.0941641       0.0465623 
          5.058       0.0946435       0.0461938 
        5.07371        0.095173       0.0458301 
        5.08942       0.0960973       0.0454702 
        5.10513       0.0967214       0.0451141 
        5.12084       0.0973859       0.0447617 
        5.13656       0.0978686       0.0444131 
        5.15225       0.0987953       0.0440688 
        5.16796        0.099766       0.0437276 
        5.18369        0.100466       0.0433897 
         5.1994        0.101391        0.043056 
        5.21509        0.102258       0.0427261 
        5.23079        0.103082       0.0423992 
        5.24649        0.104162       0.0420761 
        5.26217        0.105297       0.0417565 
        5.27788        0.106158       0.0414398 
        5.29359        0.107264       0.0411263 
        5.30933        0.108623       0.0408156 
        5.32504        0.109695       0.0405086 
        5.34073        0.110559       0.0402051 
        5.35646        0.112068       0.0399041 
        5.37218        0.113636       0.0396062 
        5.38789        0.114513       0.0393117 
        5.40357        0.115519       0.0390206 
        5.41929        0.116884       0.0387318 
        5.43502        0.118761       0.0384459 
         5.4507        0.120481       0.0381635 
        5.46639        0.121719        0.037884 
        5.48212        0.123123       0.0376065 
        5.49786        0.124901       0.0373316 
        5.51353        0.127475       0.0370607 
        5.52921        0.127854       0.0367922 
        5.54495        0.130554       0.0365257 
        5.56066        0.132353        0.036262 
        5.57637        0.133821        0.036001 
        5.59207        0.134996       0.0357428 
        5.60778        0.137635        0.035487 
        5.62346        0.139488       0.0352341 
        5.63916        0.141083       0.0349834 
        5.65487        0.143596        0.034735 
         5.6706        0.145069       0.0344887 
        5.68633        0.147703       0.0342447 
        5.70203        0.150093       0.0340036 
        5.71773        0.152503       0.0337648 
        5.73344        0.155139       0.0335282 
        5.74916        0.157042       0.0332937 
        5.76486        0.159667       0.0330617 
        5.78054        0.161239       0.0328323 
        5.79626        0.164615       0.0326044 
          5.812        0.166813       0.0323785 
         5.8277        0.168695       0.0321553 
        5.84339        0.172169       0.0319343 
        5.85911        0.174356       0.0317149 
        5.87484        0.177343       0.0314976 
        5.89053        0.179396       0.0312827 
        5.90623        0.183748       0.0310698 
        5.92195        0.185713       0.0308585 
        5.93767        0.188527       0.0306492 
        5.95336        0.191541       0.0304423 
        5.96905        0.194181       0.0302373 
        5.98476        0.196007       0.0300339 
        6.00048        0.200683       0.0298324 
        6.01617        0.203701       0.0296329 
        6.03185        0.206716       0.0294355 
        6.04756        0.209557       0.0292394 
        6.06331         0.21386       0.0290448 
        6.07903        0.218038       0.0288522 
        6.09473        0.219233       0.0286616 
        6.11044        0.224701       0.0284726 
        6.12616        0.225486       0.0282853 
        6.14186        0.230138       0.0280998 
        6.15755        0.233709       0.0279161 
        6.17326        0.237798       0.0277338 
        6.18898        0.240918       0.0275531 
        6.20467        0.243874       0.0273743 
        6.22036        0.247307       0.0271971 
         6.2361        0.248799        0.027021 
         6.2518        0.253906       0.0268467 
        6.26748        0.258084       0.0266744 
        6.28319        0.262749       0.0265031 
        6.29893        0.267047       0.0263331 
        6.31463        0.270646       0.0261649 
        6.33033        0.273772       0.0259983 
        6.34604        0.278167        0.025833 
        6.36177        0.281716       0.0256689 
        6.37747        0.284399       0.0255066 
