# k  (h/Mpc)    Pcb(k)  (Mpc/h)^3    Pcb_linear(k) (Mpc/h)^3   ShotnoiseSubtracted = true
      0.0200456         14203.8         14495.7 
      0.0350414         10169.2         10537.9 
      0.0492313         7560.72          7656.6 
      0.0637834         6491.16         6364.87 
      0.0800726         5131.84         5051.64 
       0.096163            3575          3665.4 
       0.111083         2851.36         2923.62 
       0.126058         2629.29         2590.92 
       0.142273         2273.55         2195.08 
       0.158546          1929.6         1733.65 
        0.17375         1544.16          1460.6 
       0.188953         1498.23         1322.54 
       0.204907         1408.09         1170.18 
       0.220756         1205.29         990.043 
        0.23588         1065.71         861.251 
         0.2514          927.89         782.438 
       0.267535         913.647         707.972 
       0.283568         828.432         624.336 
       0.299022         776.537         556.251 
       0.314451         735.396         508.376 
       0.330372         677.413         466.378 
       0.346141         623.113         423.309 
       0.361624         599.204          384.73 
       0.377134         556.203         354.012 
       0.392932         532.986         327.561 
       0.408854         513.698         301.948 
       0.424564         483.852         278.309 
       0.440253         472.646         258.025 
       0.455999         445.789         240.387 
       0.471626         420.627         224.178 
        0.48727         406.724         209.015 
       0.502856         394.516         195.394 
       0.518488          390.67          183.24 
       0.534347         365.436         171.941 
       0.550082         347.753         161.523 
       0.565732         345.708         151.992 
       0.581496         325.892         143.262 
       0.597222          320.35         135.257 
       0.612804         310.477         127.895 
       0.628434         298.567         121.034 
       0.644267         289.933         114.619 
       0.660051         284.267         108.706 
       0.675724         279.639         103.247 
       0.691403         271.329         98.1579 
       0.707174         261.301         93.3832 
       0.722871         258.195         88.9451 
        0.73838         253.807         84.8429 
       0.754018         247.081         80.9684 
       0.769845         238.636         77.2938 
        0.78569         238.308         73.8442 
       0.801365         229.964         70.6394 
       0.817031         223.037         67.6278 
       0.832809         220.885         64.7734 
       0.848511          214.95         62.0974 
       0.864097         212.168         59.5917 
       0.879701         208.222         57.2226 
       0.895507         202.997         54.9549 
       0.911279         196.875         52.8153 
        0.92691         196.919          50.808 
       0.942635         191.876         48.8943 
       0.958396         190.542         47.0756 
       0.974128         186.145         45.3531 
       0.989692         181.773         43.7342 
        1.00528         179.464         42.1922 
        1.02113         178.108         40.7008 
        1.03692         172.927         39.2872 
        1.05264         169.566         37.9476 
        1.06832         166.648         36.6727 
        1.08405         164.039         35.4533 
        1.09979         162.897         34.2888 
        1.11537         158.296         33.1884 
        1.13105         156.331         32.1298 
        1.14679         156.063         31.1136 
        1.16256         153.301         30.1395 
        1.17828         150.088         29.2104 
        1.19395         147.869         28.3238 
         1.2097         146.766         27.4696 
        1.22537         144.076         26.6549 
          1.241         142.023         25.8758 
        1.25666         139.689          25.126 
        1.27241         137.277         24.4025 
        1.28819          135.78         23.7064 
        1.30392         133.751         23.0395 
        1.31957          132.72         22.4014 
        1.33529         129.194         21.7851 
        1.35108         128.392         21.1897 
        1.36674         127.124         20.6208 
         1.3824         124.596         20.0735 
        1.39811         124.031         19.5442 
        1.41389         121.767          19.032 
        1.42964           119.2         18.5391 
        1.44531         117.117         18.0661 
        1.46101         116.016         17.6087 
        1.47667         114.666         17.1685 
        1.49229         113.069         16.7446 
        1.50793         112.114         16.3345 
        1.52367         110.686         15.9356 
        1.53953         108.516         15.5474 
        1.55526         107.553         15.1752 
        1.57092           106.3         14.8167 
        1.58662         104.364         14.4691 
        1.60235          103.89         14.1319 
        1.61809         101.807         13.8053 
        1.63369         101.034          13.492 
        1.64941         100.149         13.1862 
        1.66519         97.9828         12.8888 
        1.68085         97.4553         12.6027 
        1.69652          94.993         12.3252 
        1.71228         95.1828         12.0545 
        1.72806         93.7773         11.7917 
        1.74368         92.5515         11.5394 
        1.75933         91.1962          11.294 
        1.77505         90.2334         11.0546 
        1.79081         88.8543         10.8218 
         1.8065         87.8686         10.5966 
        1.82218         86.2376         10.3781 
        1.83797         85.2825         10.1643 
        1.85367         84.4571         9.95762 
        1.86928         83.9676         9.75799 
        1.88497         82.2333         9.56274 
        1.90073         81.7075         9.37213 
        1.91647         80.6294         9.18689 
        1.93218         79.4885         9.00706 
        1.94787         78.8184         8.83231 
        1.96363         77.4484         8.66152 
        1.97935         76.7738          8.4956 
        1.99499         75.8152         8.33497 
        2.01064         75.0647         8.17826 
         2.0264         73.6305         8.02461 
        2.04216         72.8832         7.87498 
        2.05781         72.0647         7.73012 
        2.07353         70.7987         7.58839 
        2.08928         69.8867         7.44991 
        2.10499         69.3645         7.31526 
        2.12065         68.9166         7.18435 
        2.13633         68.0013         7.05653 
        2.15211         67.1875           6.931 
        2.16785         66.4303         6.80888 
        2.18349         65.6911         6.69047 
        2.19916          64.814         6.57463 
        2.21489         64.1422         6.46115 
        2.23063         63.6515         6.35028 
         2.2463         62.6807         6.24251 
        2.26194         62.1129         6.13751 
        2.27765          61.492         6.03439 
        2.29341         60.6911         5.93337 
        2.30914         59.7628         5.83488 
        2.32486         58.9921         5.73868 
        2.34061         58.4541         5.64449 
        2.35635         57.9325          5.5525 
        2.37203         56.9934         5.46288 
        2.38768         56.4373         5.37542 
        2.40339         55.7332         5.28957 
        2.41914         55.3541         5.20539 
        2.43483         55.0197         5.12334 
         2.4505         54.3234          5.0432 
        2.46622         53.6785          4.9645 
        2.48195         53.0256         4.88747 
        2.49759         52.1718         4.81249 
        2.51328         51.7357         4.73889 
        2.52906         51.3326         4.66637 
        2.54479         50.6914         4.59563 
        2.56049          50.035          4.5265 
        2.57618         49.6356         4.45885 
        2.59189          49.066         4.39248 
        2.60758         48.7232         4.32757 
        2.62325         48.0424         4.26405 
        2.63898         47.6172         4.20158 
        2.65468         47.0749          4.1405 
        2.67044         46.3095         4.08037 
        2.68618          46.069         4.02157 
        2.70184         45.3719         3.96417 
        2.71755         45.2488         3.90774 
        2.73329         44.4278         3.85233 
        2.74897         44.0528         3.79817 
        2.76462         43.5642         3.74517 
        2.78034         43.2807         3.69297 
        2.79607         42.6681         3.64171 
        2.81179         42.2743         3.59148 
        2.82749         41.6207         3.54225 
        2.84321         41.3546         3.49389 
        2.85893          40.895         3.44645 
        2.87462         40.3745         3.39997 
        2.89033         40.0129         3.35431 
        2.90605         39.6358         3.30944 
        2.92176         39.2456         3.26542 
        2.93747         38.8429         3.22222 
        2.95318         38.4225          3.1798 
        2.96891         37.8364         3.13812 
        2.98456         37.6784         3.09737 
        3.00023         37.2411         3.05728 
        3.01596         36.8667         3.01778 
        3.03164         36.4166         2.97909 
        3.04738          36.222         2.94097 
         3.0631         35.6726         2.90353 
        3.07883         35.3767         2.86673 
        3.09456         35.0247         2.83058 
        3.11026         34.6225         2.79511 
        3.12596         34.3571         2.76025 
        3.14163         33.9555         2.72607 
        3.15734         33.5006         2.69238 
        3.17308         33.3437         2.65919 
        3.18879         33.0736         2.62664 
        3.20447         32.5964         2.59468 
         3.2202         32.2136         2.56316 
         3.2359         32.0035         2.53222 
        3.25157         31.6723         2.50186 
        3.26729         31.4182         2.47191 
        3.28304         31.0467         2.44239 
        3.29877         30.7411         2.41339 
        3.31446         30.5045         2.38492 
        3.33014         30.1621         2.35694 
        3.34585         29.9213         2.32937 
        3.36158         29.5947         2.30219 
        3.37727         29.2704         2.27553 
        3.39294         28.9928         2.24932 
        3.40867          28.726         2.22343 
        3.42439         28.4712         2.19796 
        3.44008          28.277         2.17294 
        3.45578         27.8015         2.14829 
        3.47153         27.5997         2.12396 
        3.48724         27.3471         2.10006 
        3.50292         27.0605         2.07658 
        3.51859         26.8395         2.05347 
        3.53431         26.6676         2.03064 
        3.55007         26.3562          2.0081 
        3.56577          26.098         1.98599 
        3.58146         25.9079         1.96423 
        3.59719         25.5872         1.94274 
        3.61292         25.3744         1.92157 
        3.62859         25.1504         1.90081 
        3.64429          24.859         1.88031 
        3.66003         24.6365         1.86005 
        3.67578         24.5032          1.8401 
        3.69146         24.2303         1.82051 
        3.70712         23.9802         1.80124 
        3.72284         23.8434         1.78218 
        3.73853         23.6136         1.76344 
        3.75422         23.3429         1.74495 
        3.76993         23.1789         1.72671 
        3.78564         22.8672         1.70874 
        3.80137         22.7361           1.691 
        3.81707          22.545         1.67354 
        3.83279         22.2376         1.65632 
        3.84853         21.9985         1.63931 
        3.86424         21.8476         1.62258 
        3.87992         21.6714          1.6061 
        3.89561         21.4937         1.58985 
        3.91134         21.3178         1.57379 
        3.92704          21.112         1.55797 
        3.94273         20.8835         1.54239 
        3.95845         20.7211         1.52699 
        3.97418          20.573          1.5118 
        3.98988         20.3638         1.49683 
        4.00554         20.2188         1.48211 
        4.02125          20.039         1.46754 
        4.03698         19.7655         1.45315 
        4.05268         19.6336         1.43898 
        4.06839         19.4423         1.42499 
         4.0841         19.3558         1.41119 
        4.09983         19.1538         1.39755 
        4.11555          18.989          1.3841 
        4.13124         18.7485         1.37087 
        4.14693         18.5698         1.35779 
        4.16266         18.4433         1.34486 
        4.17839         18.2683          1.3321 
        4.19408         18.0847         1.31953 
        4.20977         18.0115         1.30712 
        4.22551         17.8396         1.29485 
        4.24123         17.6582         1.28274 
        4.25691         17.5534         1.27082 
        4.27259          17.364         1.25905 
        4.28831         17.2136          1.2474 
        4.30404         17.0639         1.23589 
        4.31974         16.8901         1.22455 
        4.33543         16.7912         1.21336 
        4.35116         16.6547         1.20228 
        4.36688         16.4743         1.19134 
        4.38255         16.3613         1.18058 
        4.39825         16.2567         1.16993 
        4.41398         16.0803         1.15939 
         4.4297         15.9541         1.14899 
        4.44541         15.8501         1.13872 
        4.46111         15.6972         1.12859 
        4.47683         15.5515         1.11856 
        4.49251         15.4741         1.10869 
        4.50819         15.2958         1.09893 
         4.5239         15.2055         1.08928 
        4.53962         15.0471         1.07973 
        4.55535         14.9485         1.07029 
        4.57106          14.805         1.06097 
        4.58678         14.7385         1.05177 
         4.6025         14.5691         1.04267 
        4.61821         14.4505         1.03368 
        4.63391         14.3567         1.02481 
         4.6496         14.2051         1.01605 
        4.66532         14.0711         1.00737 
        4.68103         13.9775        0.998805 
        4.69673         13.9202        0.990343 
        4.71241         13.7817        0.981988 
        4.72811         13.6543        0.973715 
        4.74384         13.5529        0.965527 
        4.75955         13.4427        0.957446 
        4.77525         13.3541        0.949461 
        4.79096         13.2488        0.941558 
        4.80669          13.137        0.933741 
         4.8224         13.0157        0.926021 
        4.83809         12.9306        0.918397 
        4.85379         12.8081        0.910854 
         4.8695         12.7577        0.903389 
        4.88521         12.6139        0.896011 
        4.90093         12.5168        0.888715 
        4.91663         12.4598        0.881506 
        4.93234         12.3054        0.874369 
        4.94807         12.2458        0.867307 
        4.96377         12.1338        0.860336 
        4.97943          12.058        0.853456 
        4.99514         11.9379        0.846634 
        5.01086         11.8785         0.83988 
        5.02654         11.7608        0.833218 
        5.04227          11.692        0.826608 
          5.058         11.6122        0.820067 
        5.07371         11.5192         0.81361 
        5.08942         11.4152        0.807221 
        5.10513         11.3283          0.8009 
        5.12084         11.2512        0.794643 
        5.13656         11.1644        0.788455 
        5.15225         11.0718        0.782342 
        5.16796         11.0161        0.776285 
        5.18369         10.9035        0.770287 
         5.1994         10.8454        0.764362 
        5.21509           10.75        0.758505 
        5.23079         10.6921        0.752703 
        5.24649         10.6181        0.746966 
        5.26217         10.5019        0.741292 
        5.27788         10.4302         0.73567 
        5.29359         10.3783        0.730104 
        5.30933            10.3        0.724589 
        5.32504         10.2272        0.719139 
        5.34073         10.1318        0.713751 
        5.35646         10.0693        0.708408 
        5.37218         9.99624        0.703118 
        5.38789         9.91736        0.697891 
        5.40357         9.84911        0.692723 
        5.41929         9.75921        0.687596 
        5.43502         9.73321         0.68252 
         5.4507         9.63165        0.677507 
        5.46639         9.56734        0.672544 
        5.48212         9.50412        0.667619 
        5.49786         9.42669        0.662738 
        5.51353         9.35526        0.657929 
        5.52921         9.28816        0.653163 
        5.54495         9.21477        0.648431 
        5.56066         9.14819         0.64375 
        5.57637         9.08205        0.639116 
        5.59207         9.03196        0.634532 
        5.60778         8.95259        0.629992 
        5.62346         8.89498        0.625501 
        5.63916         8.83381        0.621051 
        5.65487         8.77094        0.616641 
         5.6706         8.71892        0.612269 
        5.68633         8.64382        0.607938 
        5.70203         8.60392        0.603657 
        5.71773          8.5321        0.599419 
        5.73344         8.47282        0.595218 
        5.74916         8.39525        0.591054 
        5.76486         8.37823        0.586936 
        5.78054          8.2927        0.582863 
        5.79626         8.22271        0.578818 
          5.812         8.18767        0.574806 
         5.8277         8.12429        0.570845 
        5.84339         8.07342        0.566921 
        5.85911          8.0112        0.563026 
        5.87484         7.95976        0.559168 
        5.89053         7.90379        0.555354 
        5.90623         7.84289        0.551574 
        5.92195         7.80581        0.547822 
        5.93767         7.75434        0.544108 
        5.95336         7.69372        0.540434 
        5.96905         7.62337        0.536795 
        5.98476         7.59914        0.533184 
        6.00048         7.54608        0.529606 
        6.01617         7.49692        0.526065 
        6.03185         7.43865        0.522561 
        6.04756          7.3811         0.51908 
        6.06331         7.34702        0.515624 
        6.07903         7.30564        0.512206 
        6.09473         7.23076        0.508823 
        6.11044         7.19997        0.505467 
        6.12616          7.1496        0.502141 
        6.14186         7.10032        0.498849 
        6.15755         7.04494        0.495587 
        6.17326         7.00726        0.492351 
        6.18898         6.96658        0.489143 
        6.20467         6.91508        0.485969 
        6.22036         6.86903        0.482823 
         6.2361          6.8317        0.479696 
         6.2518         6.77776        0.476603 
        6.26748         6.72534        0.473543 
        6.28319         6.68792        0.470502 
        6.29893         6.65733        0.467485 
        6.31463         6.61458        0.464499 
        6.33033         6.56974        0.461541 
        6.34604         6.52448        0.458606 
        6.36177         6.47326        0.455694 
        6.37747         6.45118        0.452812 
