# k  (h/Mpc)    Pcb(k)  (Mpc/h)^3    Pcb_linear(k) (Mpc/h)^3   ShotnoiseSubtracted = true
      0.0200456         517.238         523.888 
      0.0350414         384.537         380.849 
      0.0492313         277.789         276.717 
      0.0637834         228.442         230.033 
      0.0800726         180.907         182.571 
       0.096163          134.12         132.471 
       0.111083         107.384         105.663 
       0.126058         93.2242         93.6386 
       0.142273          78.774         79.3325 
       0.158546         62.9586          62.656 
        0.17375         53.4896         52.7876 
       0.188953         48.0229          47.798 
       0.204907          41.674         42.2915 
       0.220756         35.9607         35.7812 
        0.23588         31.3156         31.1265 
         0.2514         28.4245         28.2781 
       0.267535         25.8269         25.5868 
       0.283568         22.7645         22.5642 
       0.299022         20.3773         20.1035 
       0.314451         18.8879         18.3732 
       0.330372         17.1326         16.8554 
       0.346141         15.5702         15.2988 
       0.361624         14.1362         13.9045 
       0.377134         12.9607         12.7944 
       0.392932         12.3027         11.8384 
       0.408854         11.1256         10.9127 
       0.424564          10.472         10.0584 
       0.440253         9.59743         9.32529 
       0.455999         8.83056         8.68784 
       0.471626         8.25384         8.10202 
        0.48727         7.86106         7.55402 
       0.502856         7.36233         7.06173 
       0.518488         6.78557         6.62247 
       0.534347         6.33847         6.21412 
       0.550082         6.05607          5.8376 
       0.565732         5.76993         5.49314 
       0.581496          5.4032         5.17765 
       0.597222         5.09075         4.88831 
       0.612804         4.79804         4.62226 
       0.628434         4.57972         4.37428 
       0.644267         4.35608         4.14244 
       0.660051         4.12804         3.92876 
       0.675724         3.89088         3.73145 
       0.691403          3.7229         3.54753 
       0.707174         3.53939         3.37496 
       0.722871         3.44593         3.21457 
        0.73838         3.21408         3.06631 
       0.754018         3.06991         2.92628 
       0.769845         2.90567         2.79348 
        0.78569         2.82208          2.6688 
       0.801365         2.70098         2.55298 
       0.817031         2.59942         2.44414 
       0.832809          2.4638         2.34098 
       0.848511         2.38141         2.24427 
       0.864097         2.29567         2.15371 
       0.879701         2.22286         2.06808 
       0.895507         2.11073         1.98613 
       0.911279         2.04431          1.9088 
        0.92691         1.98378         1.83625 
       0.942635         1.88188         1.76709 
       0.958396         1.82166         1.70136 
       0.974128         1.76281         1.63911 
       0.989692         1.69391          1.5806 
        1.00528          1.6345         1.52487 
        1.02113         1.59229         1.47097 
        1.03692          1.5462         1.41988 
        1.05264         1.47522         1.37146 
        1.06832         1.43466         1.32539 
        1.08405          1.3799         1.28132 
        1.09979          1.3461         1.23923 
        1.11537         1.29758         1.19946 
        1.13105         1.24759         1.16121 
        1.14679         1.21893         1.12448 
        1.16256         1.18052         1.08927 
        1.17828         1.15383         1.05569 
        1.19395         1.11406         1.02365 
         1.2097         1.07897         0.99278 
        1.22537         1.04265        0.963335 
          1.241         1.01772        0.935178 
        1.25666        0.996907         0.90808 
        1.27241        0.964948        0.881932 
        1.28819         0.93163        0.856773 
        1.30392        0.909294        0.832672 
        1.31957        0.886717        0.809609 
        1.33529        0.856119        0.787337 
        1.35108         0.83597        0.765817 
        1.36674        0.811703        0.745258 
         1.3824        0.798976        0.725475 
        1.39811        0.773284        0.706347 
        1.41389        0.754737        0.687837 
        1.42964        0.734988        0.670023 
        1.44531        0.716967        0.652929 
        1.46101        0.695114        0.636397 
        1.47667        0.682093        0.620488 
        1.49229         0.65991        0.605167 
        1.50793        0.647263        0.590347 
        1.52367        0.628522        0.575929 
        1.53953        0.613525        0.561897 
        1.55526         0.60233        0.548446 
        1.57092        0.593367        0.535492 
        1.58662        0.579831        0.522927 
        1.60235        0.563084        0.510741 
        1.61809        0.548994        0.498939 
        1.63369        0.533718        0.487615 
        1.64941        0.525187        0.476562 
        1.66519        0.515396        0.465813 
        1.68085        0.500616        0.455473 
        1.69652        0.490471        0.445444 
        1.71228        0.478764         0.43566 
        1.72806          0.4698        0.426164 
        1.74368        0.459716        0.417046 
        1.75933        0.450982        0.408178 
        1.77505        0.442784        0.399526 
        1.79081        0.428596         0.39111 
         1.8065        0.424477        0.382973 
        1.82218        0.412302        0.375075 
        1.83797        0.401376        0.367347 
        1.85367        0.397557        0.359879 
        1.86928        0.388398        0.352664 
        1.88497        0.378657        0.345607 
        1.90073        0.373604        0.338718 
        1.91647        0.365301        0.332024 
        1.93218        0.359169        0.325524 
        1.94787         0.35122        0.319209 
        1.96363        0.344891        0.313036 
        1.97935        0.337536         0.30704 
        1.99499        0.331353        0.301234 
        2.01064         0.32564        0.295571 
         2.0264        0.317988        0.290018 
        2.04216         0.31177         0.28461 
        2.05781        0.307285        0.279375 
        2.07353        0.301401        0.274252 
        2.08928        0.296649        0.269248 
        2.10499        0.289888        0.264381 
        2.12065        0.285194         0.25965 
        2.13633        0.280417         0.25503 
        2.15211         0.27496        0.250494 
        2.16785        0.270364         0.24608 
        2.18349        0.266038          0.2418 
        2.19916        0.260223        0.237614 
        2.21489        0.255327        0.233513 
        2.23063         0.25102        0.229506 
         2.2463        0.247383        0.225611 
        2.26194          0.2436        0.221816 
        2.27765        0.238523        0.218089 
        2.29341        0.234717        0.214438 
        2.30914        0.229749        0.210878 
        2.32486        0.226238        0.207402 
        2.34061        0.222281        0.203998 
        2.35635        0.218898        0.200673 
        2.37203         0.21695        0.197434 
        2.38768        0.212248        0.194273 
        2.40339        0.208719         0.19117 
        2.41914        0.205597        0.188128 
        2.43483        0.201908        0.185163 
         2.4505        0.198519        0.182266 
        2.46622        0.195695        0.179422 
        2.48195        0.192033        0.176638 
        2.49759        0.190732        0.173928 
        2.51328        0.185652        0.171268 
        2.52906        0.183112        0.168647 
        2.54479        0.180496        0.166091 
        2.56049        0.176953        0.163592 
        2.57618        0.175648        0.161147 
        2.59189         0.17188        0.158749 
        2.60758        0.170288        0.156403 
        2.62325        0.167405        0.154107 
        2.63898        0.165489        0.151849 
        2.65468        0.161626        0.149642 
        2.67044        0.159794        0.147469 
        2.68618        0.157258        0.145344 
        2.70184        0.155349        0.143269 
        2.71755         0.15239         0.14123 
        2.73329        0.151216        0.139227 
        2.74897        0.148167         0.13727 
        2.76462        0.146397        0.135354 
        2.78034        0.144087        0.133468 
        2.79607        0.142526        0.131615 
        2.81179        0.139271          0.1298 
        2.82749        0.138234        0.128021 
        2.84321        0.136468        0.126273 
        2.85893        0.133928        0.124558 
        2.87462        0.132484        0.122878 
        2.89033        0.130149        0.121228 
        2.90605        0.128965        0.119607 
        2.92176        0.127447        0.118016 
        2.93747        0.125204        0.116454 
        2.95318         0.12384        0.114921 
        2.96891         0.12223        0.113415 
        2.98456         0.12099        0.111942 
        3.00023        0.119034        0.110493 
        3.01596         0.11715        0.109066 
        3.03164        0.115597        0.107668 
        3.04738        0.114462         0.10629 
         3.0631        0.112893        0.104936 
        3.07883        0.111358        0.103607 
        3.09456        0.109998          0.1023 
        3.11026        0.108224        0.101018 
        3.12596        0.107086       0.0997583 
        3.14163        0.105825       0.0985229 
        3.15734        0.104848       0.0973055 
        3.17308        0.103186       0.0961057 
        3.18879        0.101985       0.0949294 
        3.20447         0.10052       0.0937745 
         3.2202       0.0996365       0.0926353 
         3.2359       0.0983104        0.091517 
        3.25157       0.0970421       0.0904199 
        3.26729       0.0960074       0.0893373 
        3.28304       0.0951648       0.0882704 
        3.29877       0.0935491       0.0872224 
        3.31446       0.0927612       0.0861936 
        3.33014       0.0918254       0.0851823 
        3.34585       0.0902302       0.0841857 
        3.36158        0.089391       0.0832035 
        3.37727       0.0885469       0.0822401 
        3.39294       0.0876974       0.0812928 
        3.40867       0.0865646       0.0803571 
        3.42439       0.0856701       0.0794365 
        3.44008       0.0849306       0.0785322 
        3.45578       0.0840529       0.0776413 
        3.47153       0.0832093       0.0767622 
        3.48724       0.0822723       0.0758983 
        3.50292       0.0815621       0.0750497 
        3.51859       0.0804997       0.0742145 
        3.53431       0.0796734       0.0733894 
        3.55007       0.0788874       0.0725748 
        3.56577       0.0782921       0.0717758 
        3.58146       0.0773879       0.0709891 
        3.59719       0.0764743       0.0702125 
        3.61292       0.0757254       0.0694477 
        3.62859       0.0751754       0.0686972 
        3.64429       0.0741911       0.0679563 
        3.66003       0.0739506       0.0672241 
        3.67578       0.0730787       0.0665029 
        3.69146       0.0724505       0.0657951 
        3.70712       0.0716548       0.0650988 
        3.72284       0.0709887         0.06441 
        3.73853       0.0705294       0.0637324 
        3.75422       0.0697241       0.0630642 
        3.76993       0.0691463       0.0624051 
        3.78564       0.0686738       0.0617556 
        3.80137       0.0682733       0.0611144 
        3.81707        0.067082       0.0604836 
        3.83279       0.0667368       0.0598611 
        3.84853       0.0661398       0.0592465 
        3.86424       0.0656233       0.0586416 
        3.87992       0.0651071       0.0580461 
        3.89561       0.0644291       0.0574588 
        3.91134       0.0638856       0.0568785 
        3.92704       0.0632902       0.0563068 
        3.94273       0.0626237       0.0557435 
        3.95845       0.0620425        0.055187 
        3.97418       0.0616681       0.0546379 
        3.98988        0.060672        0.054097 
        4.00554       0.0603664       0.0535649 
        4.02125       0.0597838       0.0530384 
        4.03698       0.0587546       0.0525182 
        4.05268       0.0583362       0.0520062 
        4.06839       0.0574043       0.0515005 
         4.0841       0.0564919       0.0510018 
        4.09983       0.0557828        0.050509 
        4.11555       0.0549396       0.0500229 
        4.13124       0.0542111       0.0495445 
        4.14693       0.0535616       0.0490719 
        4.16266       0.0527347       0.0486044 
        4.17839       0.0521708       0.0481433 
        4.19408       0.0515102       0.0476893 
        4.20977       0.0508847       0.0472408 
        4.22551       0.0502736       0.0467971 
        4.24123        0.049652       0.0463595 
        4.25691       0.0491913       0.0459287 
        4.27259       0.0486517       0.0455032 
        4.28831       0.0483226       0.0450823 
        4.30404       0.0476065       0.0446663 
        4.31974       0.0472178       0.0442564 
        4.33543       0.0467237       0.0438519 
        4.35116       0.0464606       0.0434515 
        4.36688       0.0458698       0.0430563 
        4.38255       0.0455463       0.0426674 
        4.39825       0.0452747       0.0422825 
        4.41398       0.0447957       0.0419016 
         4.4297       0.0445316       0.0415257 
        4.44541       0.0443333       0.0411546 
        4.46111       0.0439179       0.0407882 
        4.47683       0.0436904       0.0404261 
        4.49251       0.0435313       0.0400691 
        4.50819       0.0432428       0.0397164 
         4.5239       0.0430242       0.0393676 
        4.53962       0.0428822       0.0390224 
        4.55535       0.0428192       0.0386813 
        4.57106       0.0425529       0.0383447 
        4.58678       0.0425698        0.038012 
         4.6025       0.0422217       0.0376832 
        4.61821       0.0423286       0.0373584 
        4.63391        0.042182       0.0370378 
         4.6496       0.0420147        0.036721 
        4.66532       0.0420997       0.0364075 
        4.68103       0.0421969       0.0360978 
        4.69673       0.0419939        0.035792 
        4.71241       0.0421942         0.03549 
        4.72811         0.04201       0.0351911 
        4.74384       0.0420816       0.0348951 
        4.75955       0.0422298       0.0346031 
        4.77525       0.0423352       0.0343145 
        4.79096       0.0423912       0.0340289 
        4.80669        0.042463       0.0337463 
         4.8224       0.0425923       0.0334673 
        4.83809       0.0427644       0.0331918 
        4.85379       0.0429666       0.0329192 
         4.8695        0.043231       0.0326494 
        4.88521       0.0434167       0.0323828 
        4.90093       0.0437131       0.0321191 
        4.91663       0.0440192       0.0318585 
        4.93234       0.0440039       0.0316006 
        4.94807       0.0444362       0.0313454 
        4.96377       0.0446615       0.0310934 
        4.97943        0.045139       0.0308448 
        4.99514       0.0453983       0.0305982 
        5.01086       0.0457933       0.0303541 
        5.02654       0.0461955       0.0301134 
        5.04227       0.0465919       0.0298745 
          5.058       0.0469619       0.0296381 
        5.07371       0.0473407       0.0294047 
        5.08942       0.0479482       0.0291738 
        5.10513       0.0483416       0.0289453 
        5.12084       0.0489924       0.0287192 
        5.13656       0.0495051       0.0284956 
        5.15225       0.0501183       0.0282747 
        5.16796        0.050699       0.0280557 
        5.18369       0.0512935       0.0278389 
         5.1994       0.0518284       0.0276248 
        5.21509       0.0526324       0.0274132 
        5.23079       0.0531732       0.0272035 
        5.24649       0.0539288       0.0269961 
        5.26217       0.0545585       0.0267911 
        5.27788       0.0556497       0.0265879 
        5.29359       0.0563322       0.0263867 
        5.30933       0.0571103       0.0261874 
        5.32504       0.0579092       0.0259904 
        5.34073       0.0585012       0.0257957 
        5.35646       0.0595362       0.0256026 
        5.37218       0.0605583       0.0254114 
        5.38789       0.0615118       0.0252225 
        5.40357       0.0625331       0.0250357 
        5.41929       0.0636531       0.0248504 
        5.43502       0.0647816        0.024667 
         5.4507       0.0656584       0.0244858 
        5.46639       0.0664832       0.0243064 
        5.48212       0.0678186       0.0241284 
        5.49786       0.0694244        0.023952 
        5.51353       0.0706192       0.0237782 
        5.52921       0.0714701        0.023606 
        5.54495       0.0729526       0.0234349 
        5.56066       0.0742291       0.0232658 
        5.57637       0.0757812       0.0230983 
        5.59207       0.0768012       0.0229327 
        5.60778       0.0781288       0.0227685 
        5.62346       0.0796347       0.0226063 
        5.63916       0.0814953       0.0224454 
        5.65487       0.0831653        0.022286 
         5.6706        0.083973        0.022128 
        5.68633       0.0860184       0.0219715 
        5.70203       0.0876393       0.0218168 
        5.71773       0.0897777       0.0216636 
        5.73344       0.0917696       0.0215118 
        5.74916       0.0935926       0.0213613 
        5.76486       0.0955237       0.0212125 
        5.78054       0.0975896       0.0210653 
        5.79626       0.0991777       0.0209191 
          5.812        0.101434       0.0207741 
         5.8277        0.103364       0.0206309 
        5.84339        0.105495       0.0204891 
        5.85911        0.107429       0.0203483 
        5.87484        0.109421       0.0202089 
        5.89053        0.112322       0.0200711 
        5.90623        0.115204       0.0199344 
        5.92195        0.117116       0.0197989 
        5.93767        0.119237       0.0196646 
        5.95336        0.121715       0.0195318 
        5.96905         0.12555       0.0194003 
        5.98476        0.127127       0.0192698 
        6.00048        0.129791       0.0191405 
        6.01617        0.133088       0.0190125 
        6.03185        0.135517       0.0188859 
        6.04756        0.137375       0.0187601 
        6.06331        0.141887       0.0186352 
        6.07903        0.144184       0.0185117 
        6.09473        0.146677       0.0183894 
        6.11044        0.151281       0.0182681 
        6.12616          0.1538       0.0181479 
        6.14186        0.157105       0.0180289 
        6.15755        0.160103        0.017911 
        6.17326        0.164119       0.0177941 
        6.18898        0.167777       0.0176781 
        6.20467        0.170463       0.0175634 
        6.22036        0.174305       0.0174497 
         6.2361        0.176942       0.0173367 
         6.2518        0.183536       0.0172249 
        6.26748        0.186156       0.0171143 
        6.28319        0.189566       0.0170044 
        6.29893        0.194818       0.0168954 
        6.31463        0.198746       0.0167875 
        6.33033        0.201382       0.0166806 
        6.34604        0.206582       0.0165745 
        6.36177        0.209554       0.0164692 
        6.37747        0.214824       0.0163651 
