# k  (h/Mpc)    Pcb(k)  (Mpc/h)^3    Pcb_linear(k) (Mpc/h)^3   ShotnoiseSubtracted = true
      0.0200456         91.0603         92.2778 
      0.0350414         67.1718         67.0829 
      0.0492313         48.9564         48.7411 
      0.0637834         40.6149         40.5181 
      0.0800726         32.1897         32.1582 
       0.096163         23.4089         23.3336 
       0.111083         18.6421         18.6115 
       0.126058         16.4957         16.4935 
       0.142273         13.9807         13.9737 
       0.158546         11.0917         11.0363 
        0.17375         9.30215         9.29804 
       0.188953         8.41569         8.41916 
       0.204907         7.50129         7.44924 
       0.220756         6.32984         6.30251 
        0.23588         5.50656         5.48264 
         0.2514         4.98073         4.98092 
       0.267535         4.50513         4.50688 
       0.283568         3.98301         3.97446 
       0.299022          3.5558         3.54104 
       0.314451         3.22383         3.23627 
       0.330372         2.96587         2.96891 
       0.346141          2.6939         2.69474 
       0.361624         2.45453         2.44915 
       0.377134         2.26302         2.25361 
       0.392932         2.06676         2.08522 
       0.408854         1.92756         1.92217 
       0.424564         1.76825         1.77169 
       0.440253         1.64181         1.64256 
       0.455999           1.535         1.53028 
       0.471626         1.43386         1.42709 
        0.48727         1.32995         1.33057 
       0.502856         1.24074         1.24386 
       0.518488          1.1731         1.16649 
       0.534347         1.10507         1.09456 
       0.550082         1.02705         1.02824 
       0.565732        0.958613        0.967563 
       0.581496         0.91327        0.911993 
       0.597222        0.863424         0.86103 
       0.612804        0.813815        0.814167 
       0.628434         0.77451        0.770487 
       0.644267        0.730152         0.72965 
       0.660051        0.690827        0.692013 
       0.675724        0.658127        0.657259 
       0.691403        0.627212        0.624863 
       0.707174         0.59492        0.594467 
       0.722871        0.563792        0.566215 
        0.73838        0.541526        0.540101 
       0.754018         0.51859        0.515436 
       0.769845        0.494292        0.492044 
        0.78569        0.471148        0.470084 
       0.801365        0.449665        0.449683 
       0.817031        0.431094        0.430511 
       0.832809        0.412973        0.412341 
       0.848511        0.395059        0.395306 
       0.864097        0.377615        0.379355 
       0.879701        0.362126        0.364273 
       0.895507        0.350445        0.349837 
       0.911279        0.336403        0.336217 
        0.92691        0.322687        0.323438 
       0.942635        0.311025        0.311256 
       0.958396        0.298573        0.299678 
       0.974128         0.28754        0.288713 
       0.989692        0.277795        0.278407 
        1.00528         0.26867        0.268591 
        1.02113        0.257103        0.259097 
        1.03692        0.249154        0.250098 
        1.05264        0.240669         0.24157 
        1.06832        0.232717        0.233455 
        1.08405        0.224004        0.225692 
        1.09979        0.216498        0.218279 
        1.11537        0.211006        0.211274 
        1.13105         0.20386        0.204535 
        1.14679         0.19807        0.198066 
        1.16256        0.190196        0.191865 
        1.17828        0.184367         0.18595 
        1.19395        0.178427        0.180306 
         1.2097        0.172932        0.174869 
        1.22537         0.16887        0.169682 
          1.241        0.163425        0.164723 
        1.25666         0.15917         0.15995 
        1.27241        0.154005        0.155344 
        1.28819        0.149571        0.150912 
        1.30392        0.145161        0.146667 
        1.31957        0.141343        0.142605 
        1.33529        0.136984        0.138682 
        1.35108         0.13335        0.134891 
        1.36674        0.128858         0.13127 
         1.3824         0.12679        0.127785 
        1.39811        0.122753        0.124416 
        1.41389        0.119555        0.121156 
        1.42964        0.116893        0.118018 
        1.44531        0.113106        0.115007 
        1.46101        0.110528        0.112095 
        1.47667        0.107218        0.109293 
        1.49229        0.104861        0.106594 
        1.50793        0.101961        0.103984 
        1.52367        0.099621        0.101444 
        1.53953        0.097477       0.0989728 
        1.55526       0.0950334       0.0966036 
        1.57092       0.0920837       0.0943218 
        1.58662       0.0903574       0.0921086 
        1.60235       0.0884999       0.0899622 
        1.61809       0.0857033       0.0878833 
        1.63369       0.0841704       0.0858887 
        1.64941        0.082335       0.0839419 
        1.66519       0.0801893       0.0820485 
        1.68085       0.0782155       0.0802271 
        1.69652       0.0763625       0.0784606 
        1.71228       0.0750747       0.0767374 
        1.72806       0.0728698       0.0750647 
        1.74368       0.0715992       0.0734587 
        1.75933       0.0700561       0.0718966 
        1.77505       0.0684294       0.0703726 
        1.79081       0.0671602       0.0688903 
         1.8065       0.0652988       0.0674571 
        1.82218       0.0641678       0.0660659 
        1.83797       0.0627058       0.0647046 
        1.85367       0.0613893       0.0633892 
        1.86928        0.060304       0.0621183 
        1.88497        0.059133       0.0608754 
        1.90073       0.0577912        0.059662 
        1.91647       0.0564461       0.0584828 
        1.93218       0.0553111        0.057338 
        1.94787        0.054149       0.0562256 
        1.96363       0.0532371       0.0551383 
        1.97935       0.0519978       0.0540821 
        1.99499       0.0510695       0.0530595 
        2.01064        0.050218        0.052062 
         2.0264       0.0492548       0.0510838 
        2.04216       0.0481695       0.0501313 
        2.05781       0.0473246       0.0492091 
        2.07353       0.0461645       0.0483069 
        2.08928       0.0454317       0.0474254 
        2.10499       0.0443904       0.0465682 
        2.12065        0.043808       0.0457348 
        2.13633       0.0427961       0.0449211 
        2.15211       0.0422837        0.044122 
        2.16785       0.0414499       0.0433446 
        2.18349       0.0404323       0.0425908 
        2.19916       0.0400519       0.0418534 
        2.21489       0.0393724        0.041131 
        2.23063       0.0385294       0.0404252 
         2.2463       0.0376905       0.0397391 
        2.26194       0.0370489       0.0390707 
        2.27765       0.0364058       0.0384143 
        2.29341       0.0359432       0.0377712 
        2.30914       0.0351622       0.0371442 
        2.32486       0.0345656       0.0365318 
        2.34061       0.0340365       0.0359322 
        2.35635       0.0333823       0.0353466 
        2.37203       0.0328432       0.0347761 
        2.38768       0.0322394       0.0342194 
        2.40339       0.0316848       0.0336728 
        2.41914       0.0312799       0.0331369 
        2.43483       0.0305763       0.0326146 
         2.4505       0.0301226       0.0321045 
        2.46622       0.0296531       0.0316035 
        2.48195       0.0290925       0.0311131 
        2.49759       0.0287213       0.0306358 
        2.51328        0.028349       0.0301673 
        2.52906        0.027835       0.0297056 
        2.54479       0.0273883       0.0292553 
        2.56049       0.0269484       0.0288152 
        2.57618       0.0265194       0.0283846 
        2.59189       0.0260904       0.0279621 
        2.60758       0.0257365       0.0275488 
        2.62325       0.0252948       0.0271445 
        2.63898        0.024876       0.0267468 
        2.65468       0.0244793        0.026358 
        2.67044       0.0242032       0.0259752 
        2.68618       0.0237888       0.0256009 
        2.70184       0.0234168       0.0252355 
        2.71755       0.0229758       0.0248763 
        2.73329       0.0226617       0.0245235 
        2.74897       0.0224133       0.0241788 
        2.76462       0.0220072       0.0238414 
        2.78034       0.0216955       0.0235091 
        2.79607       0.0214234       0.0231827 
        2.81179       0.0210691        0.022863 
        2.82749       0.0207535       0.0225496 
        2.84321       0.0204727       0.0222417 
        2.85893       0.0201467       0.0219397 
        2.87462       0.0199089       0.0216439 
        2.89033       0.0196469       0.0213532 
        2.90605       0.0192863       0.0210676 
        2.92176         0.01911       0.0207873 
        2.93747       0.0187918       0.0205123 
        2.95318       0.0184901       0.0202423 
        2.96891       0.0182934       0.0199769 
        2.98456       0.0180902       0.0197175 
        3.00023       0.0177498       0.0194623 
        3.01596       0.0174777       0.0192109 
        3.03164       0.0173448       0.0189646 
        3.04738       0.0170631       0.0187219 
         3.0631       0.0167623       0.0184835 
        3.07883       0.0165555       0.0182493 
        3.09456       0.0164281       0.0180192 
        3.11026       0.0161546       0.0177934 
        3.12596       0.0159999       0.0175715 
        3.14163       0.0157435       0.0173539 
        3.15734       0.0155561       0.0171394 
        3.17308       0.0153211       0.0169281 
        3.18879       0.0151504       0.0167209 
        3.20447       0.0149783       0.0165175 
         3.2202       0.0147752       0.0163168 
         3.2359       0.0146054       0.0161198 
        3.25157       0.0143873       0.0159266 
        3.26729       0.0142559       0.0157359 
        3.28304       0.0140358        0.015548 
        3.29877       0.0138916       0.0153634 
        3.31446       0.0137065       0.0151822 
        3.33014       0.0135082        0.015004 
        3.34585       0.0133503       0.0148285 
        3.36158       0.0131836       0.0146555 
        3.37727       0.0130568       0.0144858 
        3.39294       0.0129032        0.014319 
        3.40867       0.0127686       0.0141541 
        3.42439       0.0126263        0.013992 
        3.44008       0.0124712       0.0138327 
        3.45578       0.0123337       0.0136758 
        3.47153       0.0121661       0.0135209 
        3.48724       0.0120931       0.0133688 
        3.50292       0.0118632       0.0132193 
        3.51859        0.011736       0.0130722 
        3.53431       0.0116578       0.0129268 
        3.55007       0.0115409       0.0127834 
        3.56577       0.0114299       0.0126426 
        3.58146       0.0112204       0.0125041 
        3.59719       0.0111326       0.0123673 
        3.61292       0.0109868       0.0122325 
        3.62859       0.0108892       0.0121003 
        3.64429       0.0107956       0.0119698 
        3.66003       0.0106759       0.0118409 
        3.67578       0.0105618       0.0117139 
        3.69146       0.0104788       0.0115892 
        3.70712       0.0103731       0.0114665 
        3.72284       0.0102396       0.0113452 
        3.73853       0.0101136       0.0112258 
        3.75422       0.0100677       0.0111082 
        3.76993      0.00993337       0.0109921 
        3.78564      0.00988828       0.0108777 
        3.80137      0.00976926       0.0107647 
        3.81707      0.00964106       0.0106536 
        3.83279      0.00955512        0.010544 
        3.84853      0.00948515       0.0104357 
        3.86424      0.00936271       0.0103292 
        3.87992      0.00928453       0.0102243 
        3.89561      0.00922141       0.0101208 
        3.91134      0.00914906       0.0100186 
        3.92704      0.00901543       0.0099179 
        3.94273      0.00896882      0.00981869 
        3.95845      0.00885944      0.00972065 
        3.97418      0.00877771      0.00962394 
        3.98988       0.0087127      0.00952866 
        4.00554      0.00859607      0.00943494 
        4.02125      0.00850156      0.00934221 
        4.03698      0.00842514      0.00925058 
        4.05268      0.00830785      0.00916039 
        4.06839      0.00818557      0.00907133 
         4.0841      0.00810694      0.00898348 
        4.09983      0.00799453      0.00889667 
        4.11555      0.00791111      0.00881105 
        4.13124      0.00781042      0.00872678 
        4.14693      0.00772715      0.00864355 
        4.16266      0.00762102      0.00856121 
        4.17839      0.00755881      0.00847999 
        4.19408      0.00747489          0.0084 
        4.20977      0.00740328      0.00832102 
        4.22551      0.00732953      0.00824286 
        4.24123      0.00724444      0.00816578 
        4.25691      0.00717951       0.0080899 
        4.27259      0.00711373      0.00801496 
        4.28831      0.00707933      0.00794081 
        4.30404      0.00699898      0.00786754 
        4.31974      0.00694027      0.00779535 
        4.33543      0.00688103       0.0077241 
        4.35116      0.00682804      0.00765357 
        4.36688      0.00677043      0.00758395 
        4.38255      0.00673727      0.00751546 
        4.39825      0.00671591      0.00744766 
        4.41398      0.00668291      0.00738056 
         4.4297       0.0066491      0.00731436 
        4.44541      0.00660257      0.00724898 
        4.46111      0.00656179      0.00718446 
        4.47683      0.00655487      0.00712067 
        4.49251      0.00650772      0.00705778 
        4.50819      0.00650353      0.00699567 
         4.5239      0.00649702      0.00693422 
        4.53962      0.00647454      0.00687343 
        4.55535      0.00645721      0.00681333 
        4.57106      0.00647699      0.00675405 
        4.58678      0.00644499      0.00669545 
         4.6025      0.00646871      0.00663754 
        4.61821      0.00647165      0.00658032 
        4.63391      0.00645293      0.00652385 
         4.6496      0.00646804      0.00646806 
        4.66532      0.00647131      0.00641284 
        4.68103      0.00649139      0.00635829 
        4.69673      0.00648932      0.00630442 
        4.71241      0.00652222      0.00625123 
        4.72811      0.00652407      0.00619857 
        4.74384      0.00656822      0.00614644 
        4.75955      0.00657786        0.006095 
        4.77525      0.00662185      0.00604417 
        4.79096      0.00665945      0.00599386 
        4.80669      0.00666694      0.00594409 
         4.8224      0.00672208      0.00589495 
        4.83809      0.00674561      0.00584642 
        4.85379      0.00680946       0.0057984 
         4.8695      0.00685581      0.00575088 
        4.88521      0.00690757      0.00570391 
        4.90093      0.00696441      0.00565747 
        4.91663      0.00704748      0.00561157 
        4.93234      0.00707836      0.00556614 
        4.94807      0.00715334      0.00552119 
        4.96377      0.00720944      0.00547681 
        4.97943      0.00727499      0.00543301 
        4.99514      0.00735525      0.00538958 
        5.01086      0.00744265      0.00534659 
        5.02654      0.00752041      0.00530418 
        5.04227      0.00761963       0.0052621 
          5.058      0.00769499      0.00522046 
        5.07371      0.00779921      0.00517935 
        5.08942      0.00791634      0.00513868 
        5.10513      0.00796557      0.00509844 
        5.12084       0.0080698      0.00505861 
        5.13656      0.00818108      0.00501922 
        5.15225      0.00827709      0.00498031 
        5.16796      0.00841303      0.00494175 
        5.18369      0.00855932      0.00490356 
         5.1994      0.00866129      0.00486585 
        5.21509      0.00884854      0.00482856 
        5.23079      0.00890826      0.00479163 
        5.24649      0.00909881      0.00475511 
        5.26217      0.00920119      0.00471899 
        5.27788      0.00940175       0.0046832 
        5.29359      0.00951892      0.00464777 
        5.30933      0.00971755      0.00461265 
        5.32504      0.00984302      0.00457796 
        5.34073       0.0100603      0.00454366 
        5.35646       0.0101828      0.00450965 
        5.37218       0.0103673      0.00447598 
        5.38789        0.010562       0.0044427 
        5.40357        0.010702       0.0044098 
        5.41929       0.0109106      0.00437716 
        5.43502       0.0111415      0.00434485 
         5.4507       0.0113828      0.00431294 
        5.46639       0.0116391      0.00428134 
        5.48212       0.0117069      0.00424999 
        5.49786       0.0120401      0.00421892 
        5.51353       0.0122813      0.00418831 
        5.52921       0.0125245      0.00415797 
        5.54495       0.0127928      0.00412784 
        5.56066       0.0130079      0.00409805 
        5.57637       0.0132997      0.00406855 
        5.59207       0.0135125      0.00403937 
        5.60778       0.0137981      0.00401046 
        5.62346       0.0141559      0.00398188 
        5.63916       0.0143898      0.00395354 
        5.65487       0.0147424      0.00392547 
         5.6706       0.0149533      0.00389764 
        5.68633       0.0153724      0.00387007 
        5.70203       0.0156937      0.00384282 
        5.71773        0.016041      0.00381583 
        5.73344       0.0163266       0.0037891 
        5.74916       0.0167715      0.00376259 
        5.76486       0.0171283      0.00373637 
        5.78054       0.0174757      0.00371045 
        5.79626       0.0177985      0.00368469 
          5.812       0.0183251      0.00365916 
         5.8277       0.0186631      0.00363394 
        5.84339       0.0191022      0.00360896 
        5.85911       0.0196795      0.00358416 
        5.87484       0.0200987       0.0035596 
        5.89053        0.020564      0.00353532 
        5.90623       0.0211901      0.00351126 
        5.92195       0.0216229      0.00348738 
        5.93767          0.0221      0.00346373 
        5.95336       0.0225755      0.00344034 
        5.96905       0.0232947      0.00341718 
        5.98476       0.0236102       0.0033942 
        6.00048       0.0242344      0.00337142 
        6.01617       0.0248657      0.00334888 
        6.03185       0.0254033      0.00332657 
        6.04756       0.0261306      0.00330441 
        6.06331       0.0266489      0.00328241 
        6.07903       0.0274961      0.00326065 
        6.09473       0.0279367      0.00323911 
        6.11044       0.0289486      0.00321775 
        6.12616       0.0297206      0.00319658 
        6.14186       0.0301905      0.00317562 
        6.15755       0.0310417      0.00315485 
        6.17326        0.031702      0.00313426 
        6.18898       0.0328766      0.00311383 
        6.20467       0.0337873      0.00309362 
        6.22036       0.0345232       0.0030736 
         6.2361       0.0354199       0.0030537 
         6.2518       0.0364166        0.003034 
        6.26748       0.0370523      0.00301453 
        6.28319       0.0383385      0.00299517 
        6.29893       0.0392776      0.00297596 
        6.31463       0.0404848      0.00295695 
        6.33033       0.0414529      0.00293812 
        6.34604       0.0426107      0.00291944 
        6.36177       0.0439203       0.0029009 
        6.37747       0.0450776      0.00288255 
