# k  (h/Mpc)    Pcb(k)  (Mpc/h)^3    Pcb_linear(k) (Mpc/h)^3   ShotnoiseSubtracted = true
      0.0200456         15242.5         15562.7 
      0.0350414           10899         11313.5 
      0.0492313         8106.87          8220.2 
      0.0637834         6969.14         6833.38 
      0.0800726          5508.1         5423.48 
       0.096163         3833.56         3935.21 
       0.111083         3060.57         3138.82 
       0.126058         2822.43         2781.64 
       0.142273         2441.23         2356.66 
       0.158546         2081.73         1861.27 
        0.17375         1664.95         1568.12 
       0.188953         1617.99         1419.89 
       0.204907         1520.81         1256.32 
       0.220756         1304.62         1062.92 
        0.23588         1155.23         924.647 
         0.2514         1005.22         840.033 
       0.267535         992.828         760.085 
       0.283568         900.169         670.293 
       0.299022         845.195         597.197 
       0.314451         801.962         545.797 
       0.330372         738.413         500.708 
       0.346141         682.695         454.468 
       0.361624         656.453          413.05 
       0.377134         609.285         380.071 
       0.392932         585.001         351.672 
       0.408854          565.02         324.174 
       0.424564         530.508         298.796 
       0.440253         519.514         277.018 
       0.455999         490.786         258.082 
       0.471626         464.978         240.679 
        0.48727         448.835         224.401 
       0.502856         435.823         209.776 
       0.518488         431.435         196.728 
       0.534347         403.134         184.597 
       0.550082         385.133         173.412 
       0.565732          383.83          163.18 
       0.581496         361.198         153.808 
       0.597222         355.543         145.213 
       0.612804         345.065         137.309 
       0.628434         332.068         129.943 
       0.644267         322.757         123.056 
       0.660051         315.349         116.708 
       0.675724         310.845         110.847 
       0.691403         301.344         105.383 
       0.707174         290.562         100.257 
       0.722871         286.922         95.4922 
        0.73838         282.545         91.0881 
       0.754018         274.766         86.9284 
       0.769845         265.731         82.9833 
        0.78569         265.439         79.2797 
       0.801365         256.131         75.8391 
       0.817031         248.283         72.6058 
       0.832809         246.271         69.5413 
       0.848511         239.487         66.6684 
       0.864097         236.156         63.9782 
       0.879701         232.313         61.4347 
       0.895507         226.767         59.0001 
       0.911279         219.524          56.703 
        0.92691         219.512         54.5479 
       0.942635         213.887         52.4934 
       0.958396         211.739         50.5408 
       0.974128         207.321         48.6915 
       0.989692         202.691         46.9534 
        1.00528         200.202          45.298 
        1.02113         198.383         43.6967 
        1.03692         193.215         42.1791 
        1.05264         189.412         40.7408 
        1.06832          186.13         39.3721 
        1.08405         182.965          38.063 
        1.09979         181.183         36.8128 
        1.11537         176.919         35.6313 
        1.13105         173.837         34.4949 
        1.14679         173.935         33.4038 
        1.16256          170.63          32.358 
        1.17828         167.157         31.3606 
        1.19395         164.633         30.4087 
         1.2097         163.922         29.4916 
        1.22537         160.265         28.6169 
          1.241         158.569         27.7805 
        1.25666         155.634         26.9755 
        1.27241          152.97         26.1988 
        1.28819         151.317         25.4514 
        1.30392         148.717         24.7355 
        1.31957         148.043         24.0503 
        1.33529         143.926         23.3887 
        1.35108         142.977         22.7494 
        1.36674         141.602         22.1387 
         1.3824         138.978          21.551 
        1.39811         138.545         20.9828 
        1.41389         135.676         20.4329 
        1.42964         132.934         19.9038 
        1.44531         130.883          19.396 
        1.46101         129.482         18.9049 
        1.47667         127.572         18.4323 
        1.49229         125.927         17.9771 
        1.50793         124.927         17.5369 
        1.52367         123.448         17.1086 
        1.53953         120.815         16.6918 
        1.55526          119.62         16.2922 
        1.57092          118.16         15.9074 
        1.58662         116.268         15.5341 
        1.60235         115.424         15.1721 
        1.61809         113.314         14.8215 
        1.63369         112.171         14.4851 
        1.64941         111.093         14.1568 
        1.66519         109.021         13.8375 
        1.68085         108.348         13.5303 
        1.69652         105.673         13.2324 
        1.71228         105.674         12.9418 
        1.72806         104.254         12.6597 
        1.74368         102.988         12.3888 
        1.75933         101.483         12.1254 
        1.77505         100.274         11.8684 
        1.79081         99.0135         11.6184 
         1.8065         97.7417         11.3766 
        1.82218         96.0038          11.142 
        1.83797         94.6849         10.9124 
        1.85367         93.8599         10.6906 
        1.86928         92.9685         10.4763 
        1.88497         91.1689         10.2666 
        1.90073         90.7738          10.062 
        1.91647         89.3993         9.86313 
        1.93218         88.2901         9.67006 
        1.94787          87.474         9.48245 
        1.96363          86.067         9.29908 
        1.97935         84.9502         9.12095 
        1.99499         84.2305         8.94849 
        2.01064          83.267         8.78026 
         2.0264         81.7744         8.61529 
        2.04216         81.0341         8.45465 
        2.05781         79.9928         8.29913 
        2.07353         78.5823         8.14697 
        2.08928         77.6669         7.99829 
        2.10499         76.7346         7.85373 
        2.12065         76.4093         7.71319 
        2.13633         75.4054         7.57596 
        2.15211         74.4607         7.44119 
        2.16785         73.3628         7.31008 
        2.18349         72.4575         7.18295 
        2.19916         71.7355         7.05858 
        2.21489         70.8268         6.93675 
        2.23063         70.0473         6.81772 
         2.2463         69.2002         6.70201 
        2.26194         68.8887         6.58928 
        2.27765         67.8024         6.47857 
        2.29341          66.881         6.37012 
        2.30914         65.9594         6.26438 
        2.32486         65.2171          6.1611 
        2.34061         64.5232         6.05997 
        2.35635         63.8102         5.96121 
        2.37203         62.8219         5.86499 
        2.38768         62.1797          5.7711 
        2.40339          61.504         5.67893 
        2.41914         60.9049         5.58855 
        2.43483         60.5898         5.50046 
         2.4505         59.6876         5.41442 
        2.46622         58.9967         5.32993 
        2.48195         58.2535         5.24723 
        2.49759         57.4211         5.16673 
        2.51328         56.8946         5.08772 
        2.52906         56.4452         5.00985 
        2.54479         55.7233         4.93391 
        2.56049         54.9312         4.85969 
        2.57618         54.5074         4.78706 
        2.59189         53.7601         4.71581 
        2.60758         53.4281         4.64612 
        2.62325         52.7276         4.57792 
        2.63898         52.1984         4.51085 
        2.65468         51.7361         4.44527 
        2.67044         50.9148         4.38072 
        2.68618         50.5832         4.31759 
        2.70184         49.8834         4.25596 
        2.71755         49.6687         4.19539 
        2.73329         48.7447         4.13589 
        2.74897         48.3379         4.07775 
        2.76462         47.7878         4.02085 
        2.78034         47.4124         3.96481 
        2.79607         46.7042         3.90977 
        2.81179         46.2405         3.85584 
        2.82749         45.6665         3.80299 
        2.84321         45.2892         3.75107 
        2.85893         44.7359         3.70014 
        2.87462         44.1999         3.65024 
        2.89033         43.7329         3.60122 
        2.90605         43.3138         3.55305 
        2.92176         42.8821         3.50579 
        2.93747         42.4506         3.45941 
        2.95318         41.9059         3.41386 
        2.96891         41.3577         3.36911 
        2.98456         41.1938         3.32536 
        3.00023         40.6352         3.28233 
        3.01596          40.344         3.23992 
        3.03164          39.758         3.19838 
        3.04738         39.5368         3.15745 
         3.0631         39.0226         3.11725 
        3.07883         38.6502         3.07775 
        3.09456         38.1972         3.03894 
        3.11026         37.7229         3.00086 
        3.12596           37.54         2.96343 
        3.14163           37.03         2.92673 
        3.15734         36.4406         2.89057 
        3.17308         36.4098         2.85493 
        3.18879         36.1281         2.81998 
        3.20447         35.5702         2.78568 
         3.2202          35.132         2.75183 
         3.2359         34.8225         2.71861 
        3.25157         34.4853         2.68602 
        3.26729         34.1398         2.65386 
        3.28304         33.7142         2.62217 
        3.29877         33.4931         2.59104 
        3.31446         33.2161         2.56048 
        3.33014         32.8028         2.53043 
        3.34585         32.5481         2.50083 
        3.36158         32.2073         2.47165 
        3.37727         31.8552         2.44303 
        3.39294         31.5547         2.41489 
        3.40867         31.2542          2.3871 
        3.42439         30.9561         2.35975 
        3.44008         30.8341         2.33289 
        3.45578         30.2786         2.30642 
        3.47153         30.0128         2.28031 
        3.48724         29.7848         2.25464 
        3.50292         29.4891         2.22944 
        3.51859         29.2206         2.20462 
        3.53431         28.9737         2.18011 
        3.55007         28.7051         2.15592 
        3.56577         28.4319         2.13218 
        3.58146         28.1711         2.10881 
        3.59719         27.8477         2.08574 
        3.61292         27.6477         2.06302 
        3.62859         27.3258         2.04073 
        3.64429         26.9986         2.01872 
        3.66003         26.7656         1.99697 
        3.67578         26.5693         1.97554 
        3.69146         26.3664         1.95451 
        3.70712         26.0828         1.93383 
        3.72284         25.9524         1.91337 
        3.73853         25.6442         1.89324 
        3.75422         25.3774         1.87339 
        3.76993         25.2322         1.85381 
        3.78564         24.9304         1.83452 
        3.80137         24.7416         1.81547 
        3.81707          24.533         1.79673 
        3.83279         24.3077         1.77824 
        3.84853         23.9743         1.75998 
        3.86424          23.762         1.74201 
        3.87992          23.579         1.72432 
        3.89561         23.3548         1.70688 
        3.91134         23.1793         1.68964 
        3.92704         22.9689         1.67266 
        3.94273          22.742         1.65592 
        3.95845         22.4723         1.63939 
        3.97418         22.3697         1.62308 
        3.98988         22.1168         1.60701 
        4.00554         21.9149          1.5912 
        4.02125         21.8113         1.57556 
        4.03698         21.5285         1.56011 
        4.05268         21.3665          1.5449 
        4.06839         21.1445         1.52988 
         4.0841         21.0239         1.51507 
        4.09983          20.842         1.50043 
        4.11555         20.6616         1.48598 
        4.13124         20.3604         1.47177 
        4.14693         20.2093         1.45774 
        4.16266          20.044         1.44385 
        4.17839         19.8718         1.43015 
        4.19408         19.6778         1.41666 
        4.20977         19.5828         1.40334 
        4.22551         19.3696         1.39016 
        4.24123         19.2108         1.37716 
        4.25691         19.0519         1.36436 
        4.27259         18.8832         1.35172 
        4.28831         18.7098         1.33922 
        4.30404         18.5218         1.32686 
        4.31974         18.4093         1.31469 
        4.33543         18.2614         1.30267 
        4.35116         18.1236         1.29078 
        4.36688          17.929         1.27903 
        4.38255         17.8052         1.26748 
        4.39825         17.6918         1.25605 
        4.41398         17.4758         1.24473 
         4.4297         17.3429         1.23357 
        4.44541         17.2332         1.22254 
        4.46111         17.0612         1.21166 
        4.47683         16.9169          1.2009 
        4.49251         16.8056          1.1903 
        4.50819         16.6462         1.17982 
         4.5239          16.536         1.16946 
        4.53962         16.3565          1.1592 
        4.55535         16.2353         1.14907 
        4.57106          16.099         1.13907 
        4.58678         15.9912         1.12919 
         4.6025         15.8438         1.11942 
        4.61821         15.7281         1.10977 
        4.63391         15.5845         1.10025 
         4.6496         15.4562         1.09084 
        4.66532         15.3173         1.08153 
        4.68103         15.1825         1.07233 
        4.69673         15.1147         1.06324 
        4.71241         14.9961         1.05427 
        4.72811         14.8288         1.04539 
        4.74384           14.74          1.0366 
        4.75955         14.6242         1.02792 
        4.77525         14.5273         1.01935 
        4.79096         14.3831         1.01086 
        4.80669         14.2806         1.00247 
         4.8224         14.1437        0.994185 
        4.83809         14.0361        0.985999 
        4.85379         13.9085        0.977901 
         4.8695         13.8618        0.969887 
        4.88521          13.735        0.961966 
        4.90093         13.6179        0.954132 
        4.91663         13.5322        0.946393 
        4.93234          13.408        0.938731 
        4.94807         13.3045        0.931149 
        4.96377          13.175        0.923664 
        4.97943         13.0966        0.916278 
        4.99514         12.9689        0.908953 
        5.01086         12.9053        0.901703 
        5.02654         12.7694        0.894551 
        5.04227         12.7053        0.887454 
          5.058         12.5905        0.880432 
        5.07371         12.5066        0.873499 
        5.08942         12.3911         0.86664 
        5.10513         12.3216        0.859853 
        5.12084         12.2063        0.853136 
        5.13656         12.1282        0.846492 
        5.15225          12.006         0.83993 
        5.16796         11.9558        0.833427 
        5.18369          11.835        0.826987 
         5.1994         11.7699        0.820626 
        5.21509         11.6667        0.814338 
        5.23079         11.5836        0.808109 
        5.24649         11.4971        0.801949 
        5.26217          11.399        0.795858 
        5.27788         11.3089        0.789822 
        5.29359         11.2588        0.783847 
        5.30933         11.1579        0.777925 
        5.32504         11.1022        0.772074 
        5.34073         10.9947         0.76629 
        5.35646         10.9293        0.760553 
        5.37218         10.8301        0.754874 
        5.38789         10.7569        0.749262 
        5.40357          10.679        0.743714 
        5.41929         10.6013        0.738209 
        5.43502         10.5466        0.732759 
         5.4507         10.4431        0.727378 
        5.46639         10.3814        0.722049 
        5.48212         10.3328        0.716762 
        5.49786         10.2274        0.711521 
        5.51353         10.1655        0.706359 
        5.52921         10.0824        0.701242 
        5.54495         10.0007        0.696161 
        5.56066         9.92407        0.691136 
        5.57637         9.84994        0.686161 
        5.59207           9.798         0.68124 
        5.60778         9.72454        0.676365 
        5.62346         9.67089        0.671544 
        5.63916         9.58357        0.666766 
        5.65487         9.52337        0.662031 
         5.6706         9.46272        0.657337 
        5.68633         9.38592        0.652687 
        5.70203         9.33683        0.648092 
        5.71773         9.26825        0.643541 
        5.73344         9.19233        0.639032 
        5.74916         9.13484        0.634561 
        5.76486         9.05516         0.63014 
        5.78054         9.00477        0.625767 
        5.79626         8.94558        0.621424 
          5.812         8.88285        0.617117 
         5.8277         8.81262        0.612864 
        5.84339         8.76768        0.608651 
        5.85911         8.70107        0.604469 
        5.87484         8.62541        0.600328 
        5.89053         8.57415        0.596233 
        5.90623         8.50562        0.592175 
        5.92195         8.46391        0.588147 
        5.93767         8.40456        0.584159 
        5.95336         8.34849        0.580214 
        5.96905         8.29641        0.576308 
        5.98476         8.24407        0.572432 
        6.00048          8.1852         0.56859 
        6.01617         8.14048        0.564788 
        6.03185         8.07244        0.561026 
        6.04756         8.01838        0.557289 
        6.06331         7.96529        0.553579 
        6.07903         7.91453        0.549909 
        6.09473         7.86379        0.546277 
        6.11044         7.81604        0.542674 
        6.12616         7.75294        0.539104 
        6.14186         7.69047        0.535569 
        6.15755         7.64066        0.532067 
        6.17326         7.60952        0.528593 
        6.18898         7.54301        0.525148 
        6.20467          7.4951         0.52174 
        6.22036         7.45042        0.518363 
         6.2361         7.39385        0.515006 
         6.2518         7.34936        0.511685 
        6.26748         7.29723          0.5084 
        6.28319         7.25992        0.505135 
        6.29893         7.20817        0.501896 
        6.31463         7.16014        0.498691 
        6.33033         7.11704        0.495514 
        6.34604          7.0763        0.492363 
        6.36177         7.02054        0.489237 
        6.37747         6.98213        0.486143 
