# k  (h/Mpc)    Pcb(k)  (Mpc/h)^3    Pcb_linear(k) (Mpc/h)^3   ShotnoiseSubtracted = true
      0.0200456         4453.37         4533.47 
      0.0350414         3384.35         3446.47 
      0.0492313         2565.38         2571.07 
      0.0637834         2218.87         2191.34 
      0.0800726         1795.48          1778.3 
       0.096163         1288.25         1307.36 
       0.111083         1030.75         1053.79 
       0.126058          952.64         946.667 
       0.142273         827.084         812.824 
       0.158546         674.154         647.051 
        0.17375         552.458         548.388 
       0.188953          524.02         500.988 
       0.204907         491.669         447.644 
       0.220756         413.502         381.054 
        0.23588          362.84         332.868 
         0.2514         323.171         304.263 
       0.267535         305.322          277.35 
       0.283568         276.838         245.939 
       0.299022          254.28         219.948 
       0.314451          231.81         201.896 
       0.330372         216.151         186.252 
       0.346141         195.956         169.847 
       0.361624         185.178         154.927 
       0.377134          174.98          143.06 
       0.392932         158.522         132.925 
       0.408854         152.904         123.039 
       0.424564          146.59         113.793 
       0.440253         136.699         105.833 
       0.455999         129.338         98.9363 
       0.471626         119.874         92.5833 
        0.48727          116.54         86.5827 
       0.502856          110.88         81.1717 
       0.518488         107.126         76.3444 
       0.534347         102.927         71.8491 
       0.550082         95.2338         67.6876 
       0.565732         90.9196         63.8615 
       0.581496         87.9537         60.3511 
       0.597222         85.2921         57.1261 
       0.612804          80.694         54.1514 
       0.628434         78.8526         51.3709 
       0.644267         76.6306         48.7617 
       0.660051          73.988         46.3541 
       0.675724         70.9468         44.1269 
       0.691403         68.8689         42.0454 
       0.707174         66.9508         40.0876 
       0.722871         64.7293         38.2634 
        0.73838         63.2011         36.5734 
       0.754018         60.3291         34.9737 
       0.769845         59.0579         33.4532 
        0.78569         57.4359         32.0228 
       0.801365         55.5735         30.6913 
       0.817031         54.2885         29.4375 
       0.832809         53.4714          28.247 
       0.848511         50.6477         27.1289 
       0.864097         49.6826           26.08 
       0.879701         49.0217         25.0865 
       0.895507         48.2476         24.1339 
       0.911279         46.9089         23.2336 
        0.92691         45.6864         22.3874 
       0.942635         44.2093         21.5794 
       0.958396         43.8605         20.8102 
       0.974128          42.628         20.0805 
       0.989692         42.0661         19.3936 
        1.00528         41.1776         18.7383 
        1.02113         39.8139         18.1034 
        1.03692         39.1668         17.5008 
        1.05264         38.4833         16.9288 
        1.06832         37.7456         16.3836 
        1.08405         37.0631         15.8614 
        1.09979         36.3152          15.362 
        1.11537         35.3836         14.8893 
        1.13105         35.2097          14.434 
        1.14679         34.7486         13.9963 
        1.16256         33.6873         13.5762 
        1.17828         33.3556         13.1749 
        1.19395         32.5599         12.7914 
         1.2097         32.3629         12.4215 
        1.22537         31.7033         12.0682 
          1.241         31.2023           11.73 
        1.25666         30.3732          11.404 
        1.27241          30.119         11.0891 
        1.28819         29.3752         10.7857 
        1.30392         29.1693         10.4947 
        1.31957         28.9149          10.216 
        1.33529         28.5974         9.94641 
        1.35108         27.9209         9.68566 
        1.36674         27.4729         9.43626 
         1.3824         26.9688           9.196 
        1.39811          26.729         8.96343 
        1.41389         26.4558         8.73811 
        1.42964          26.079         8.52104 
        1.44531         25.8839          8.3125 
        1.46101         25.1882          8.1106 
        1.47667          24.933          7.9161 
        1.49229         24.7189         7.72859 
        1.50793         24.3643         7.54702 
        1.52367         24.1383          7.3702 
        1.53953         23.8174         7.19793 
        1.55526         23.4118         7.03262 
        1.57092         23.1429         6.87325 
        1.58662         22.8577         6.71851 
        1.60235         22.5822         6.56831 
        1.61809         22.3306         6.42267 
        1.63369         22.0568         6.28281 
        1.64941         21.6571         6.14617 
        1.66519         21.5648         6.01315 
        1.68085         21.2527         5.88507 
        1.69652         20.9744         5.76073 
        1.71228         20.7569         5.63932 
        1.72806         20.5997         5.52136 
        1.74368         20.3056         5.40801 
        1.75933         20.0598         5.29765 
        1.77505         19.8256         5.18989 
        1.79081         19.5725         5.08498 
         1.8065         19.4836         4.98346 
        1.82218         19.1358         4.88483 
        1.83797         18.9571         4.78823 
        1.85367         18.7438         4.69481 
        1.86928         18.6463         4.60448 
        1.88497         18.3385         4.51606 
        1.90073         18.2939         4.42966 
        1.91647         18.0569         4.34563 
        1.93218         17.9088         4.26399 
        1.94787         17.7146         4.18459 
        1.96363         17.5735         4.10692 
        1.97935          17.348          4.0314 
        1.99499         17.1362         3.95824 
        2.01064         16.9379         3.88681 
         2.0264         16.7848         3.81671 
        2.04216         16.6302          3.7484 
        2.05781         16.3695         3.68221 
        2.07353         16.2594         3.61741 
        2.08928         16.1241         3.55404 
        2.10499         15.9889         3.49238 
        2.12065          15.753         3.43238 
        2.13633         15.7126         3.37376 
        2.15211         15.5097         3.31614 
        2.16785          15.479         3.26005 
        2.18349         15.3362         3.20562 
        2.19916         15.0939         3.15234 
        2.21489         14.9949          3.1001 
        2.23063         14.8276         3.04903 
         2.2463         14.6658         2.99935 
        2.26194         14.5599         2.95092 
        2.27765         14.4852         2.90332 
        2.29341         14.3097         2.85666 
        2.30914         14.1006         2.81113 
        2.32486         14.0929         2.76663 
        2.34061          13.933         2.72303 
        2.35635         13.8138         2.68042 
        2.37203          13.709         2.63888 
        2.38768         13.5345         2.59832 
        2.40339         13.3681         2.55847 
        2.41914         13.2639         2.51938 
        2.43483         13.2235         2.48125 
         2.4505         13.1222         2.44398 
        2.46622         12.9658         2.40736 
        2.48195         12.8818         2.37149 
        2.49759         12.7755         2.33656 
        2.51328         12.6283         2.30224 
        2.52906         12.5138         2.26841 
        2.54479         12.4219         2.23539 
        2.56049         12.3223          2.2031 
        2.57618         12.2787         2.17148 
        2.59189         12.0999         2.14044 
        2.60758         12.0611         2.11007 
        2.62325         11.9606         2.08032 
        2.63898         11.7806         2.05106 
        2.65468         11.6897         2.02242 
        2.67044         11.6268         1.99422 
        2.68618         11.5209         1.96662 
        2.70184         11.4196         1.93966 
        2.71755          11.309         1.91315 
        2.73329         11.2201         1.88709 
        2.74897         11.1229         1.86161 
        2.76462         11.1041         1.83667 
        2.78034         10.9322         1.81208 
        2.79607         10.8691         1.78792 
        2.81179         10.7812         1.76424 
        2.82749         10.7362         1.74101 
        2.84321         10.6409         1.71819 
        2.85893         10.5431         1.69578 
        2.87462         10.4489         1.67381 
        2.89033         10.3538         1.65222 
        2.90605         10.2681           1.631 
        2.92176         10.1932         1.61016 
        2.93747         10.0985          1.5897 
        2.95318         10.0918          1.5696 
        2.96891         9.98405         1.54984 
        2.98456         9.88515         1.53051 
        3.00023         9.79524         1.51148 
        3.01596         9.76368         1.49272 
        3.03164         9.67903         1.47434 
        3.04738         9.62726         1.45622 
         3.0631         9.50543         1.43841 
        3.07883         9.42701          1.4209 
        3.09456         9.39682         1.40369 
        3.11026         9.29732         1.38679 
        3.12596         9.24545         1.37018 
        3.14163           9.147         1.35388 
        3.15734         9.08845         1.33781 
        3.17308         9.02759         1.32197 
        3.18879         8.93166         1.30642 
        3.20447         8.88549         1.29116 
         3.2202         8.80489         1.27609 
         3.2359         8.77268         1.26129 
        3.25157         8.70012         1.24676 
        3.26729         8.64131         1.23243 
        3.28304         8.55068         1.21829 
        3.29877         8.47758         1.20439 
        3.31446         8.44205         1.19074 
        3.33014         8.37315         1.17732 
        3.34585         8.30586         1.16409 
        3.36158         8.25516         1.15104 
        3.37727         8.20256         1.13824 
        3.39294         8.15258         1.12565 
        3.40867         8.04744          1.1132 
        3.42439         8.02271         1.10095 
        3.44008         7.95261         1.08891 
        3.45578         7.90292         1.07704 
        3.47153         7.84868         1.06532 
        3.48724         7.80061          1.0538 
        3.50292         7.73789         1.04248 
        3.51859         7.66838         1.03134 
        3.53431         7.61045         1.02032 
        3.55007         7.56771         1.00944 
        3.56577         7.54034        0.998765 
        3.58146         7.47022        0.988248 
        3.59719         7.41154         0.97786 
        3.61292          7.3674        0.967627 
        3.62859         7.29514         0.95758 
        3.64429         7.26433        0.947658 
        3.66003         7.19459        0.937848 
        3.67578         7.15811        0.928181 
        3.69146          7.0758        0.918689 
        3.70712         7.06155        0.909348 
        3.72284         6.99111        0.900104 
        3.73853         6.96004        0.891005 
        3.75422         6.89179         0.88203 
        3.76993          6.8777        0.873173 
        3.78564         6.80533        0.864442 
        3.80137         6.76046        0.855817 
        3.81707         6.70702        0.847329 
        3.83279         6.67631        0.838951 
        3.84853         6.60175        0.830674 
        3.86424         6.56153        0.822525 
        3.87992         6.52544        0.814499 
        3.89561         6.48092        0.806581 
        3.91134         6.43837        0.798753 
        3.92704         6.37667        0.791039 
        3.94273         6.33794        0.783436 
        3.95845          6.3157         0.77592 
        3.97418         6.27179        0.768501 
        3.98988         6.22282        0.761191 
        4.00554         6.17581        0.753997 
        4.02125         6.13901        0.746876 
        4.03698         6.07631        0.739837 
        4.05268         6.05166        0.732905 
        4.06839         6.01518        0.726058 
         4.0841         5.95801        0.719302 
        4.09983         5.91556        0.712623 
        4.11555          5.8696        0.706032 
        4.13124         5.82172        0.699544 
        4.14693         5.77483        0.693132 
        4.16266         5.74619        0.686787 
        4.17839         5.70542        0.680526 
        4.19408         5.66882        0.674358 
        4.20977         5.61992        0.668264 
        4.22551         5.58612        0.662232 
        4.24123         5.54778        0.656281 
        4.25691         5.51452        0.650421 
        4.27259         5.47565        0.644631 
        4.28831         5.44128          0.6389 
        4.30404         5.39505        0.633234 
        4.31974         5.36396         0.62765 
        4.33543         5.30236        0.622138 
        4.35116         5.28022        0.616679 
        4.36688         5.23151        0.611288 
        4.38255         5.20508        0.605982 
        4.39825         5.18507        0.600728 
        4.41398         5.15275        0.595527 
         4.4297         5.11896        0.590394 
        4.44541         5.06734        0.585322 
        4.46111          5.0381        0.580315 
        4.47683         4.99707        0.575363 
        4.49251         4.97424         0.57048 
        4.50819         4.93772        0.565655 
         4.5239         4.92186         0.56088 
        4.53962         4.88746        0.556154 
        4.55535         4.84517        0.551481 
        4.57106         4.81462        0.546869 
        4.58678         4.77764        0.542309 
         4.6025         4.75483        0.537801 
        4.61821         4.72015        0.533345 
        4.63391         4.68892        0.528946 
         4.6496         4.66773        0.524599 
        4.66532         4.62009        0.520295 
        4.68103         4.59316        0.516041 
        4.69673         4.56298        0.511839 
        4.71241         4.52929        0.507689 
        4.72811         4.50889        0.503578 
        4.74384         4.48808        0.499508 
        4.75955         4.45024         0.49549 
        4.77525         4.41987        0.491519 
        4.79096         4.38577        0.487586 
        4.80669         4.35446        0.483695 
         4.8224         4.33519        0.479852 
        4.83809         4.30702        0.476055 
        4.85379         4.27459        0.472297 
         4.8695         4.24886        0.468577 
        4.88521         4.22148        0.464898 
        4.90093         4.19796         0.46126 
        4.91663         4.17209        0.457664 
        4.93234         4.14902        0.454102 
        4.94807          4.1163        0.450577 
        4.96377         4.09105        0.447096 
        4.97943         4.06315        0.443659 
        4.99514         4.03591        0.440251 
        5.01086         4.01476        0.436875 
        5.02654         3.98529        0.433544 
        5.04227         3.96546        0.430239 
          5.058         3.94306        0.426966 
        5.07371          3.9172        0.423735 
        5.08942         3.89203        0.420536 
        5.10513         3.86941        0.417371 
        5.12084         3.84831        0.414237 
        5.13656         3.82492        0.411136 
        5.15225         3.79865        0.408072 
        5.16796         3.76664        0.405036 
        5.18369         3.75611        0.402027 
         5.1994          3.7268        0.399055 
        5.21509         3.69813        0.396116 
        5.23079          3.6811        0.393203 
        5.24649         3.66803        0.390322 
        5.26217         3.63621        0.387472 
        5.27788         3.61147        0.384647 
        5.29359         3.58934         0.38185 
        5.30933         3.57465        0.379077 
        5.32504         3.54326        0.376337 
        5.34073          3.5315        0.373626 
        5.35646         3.51254        0.370938 
        5.37218         3.48767        0.368275 
        5.38789         3.46644        0.365643 
        5.40357         3.44519        0.363041 
        5.41929          3.4218        0.360458 
        5.43502          3.4029          0.3579 
         5.4507         3.38242        0.355373 
        5.46639         3.36121         0.35287 
        5.48212         3.34666        0.350386 
        5.49786         3.32124        0.347924 
        5.51353         3.30307        0.345497 
        5.52921         3.28993        0.343091 
        5.54495          3.2701        0.340701 
        5.56066         3.24743        0.338337 
        5.57637         3.22344        0.335996 
        5.59207         3.21325         0.33368 
        5.60778         3.18848        0.331384 
        5.62346         3.16584        0.329114 
        5.63916         3.15009        0.326862 
        5.65487         3.13506        0.324631 
         5.6706         3.11662        0.322419 
        5.68633          3.0986        0.320226 
        5.70203         3.08114        0.318058 
        5.71773         3.06092        0.315911 
        5.73344         3.04051        0.313783 
        5.74916         3.02624        0.311673 
        5.76486         3.00895        0.309585 
        5.78054         2.99736         0.30752 
        5.79626         2.98396        0.305468 
          5.812         2.95489        0.303433 
         5.8277         2.94479        0.301423 
        5.84339         2.92575        0.299431 
        5.85911         2.91314        0.297453 
        5.87484         2.89516        0.295494 
        5.89053          2.8807        0.293556 
        5.90623         2.86334        0.291635 
        5.92195         2.84683        0.289728 
        5.93767         2.83227        0.287839 
        5.95336         2.81214        0.285971 
        5.96905         2.79636         0.28412 
        5.98476         2.77979        0.282282 
        6.00048         2.76637        0.280461 
        6.01617         2.75343        0.278658 
        6.03185         2.73227        0.276874 
        6.04756         2.72307        0.275101 
        6.06331         2.70034         0.27334 
        6.07903         2.68904        0.271598 
        6.09473         2.67618        0.269873 
        6.11044         2.65976        0.268162 
        6.12616          2.6426        0.266466 
        6.14186         2.63306        0.264786 
        6.15755          2.6172        0.263121 
        6.17326         2.60571        0.261469 
        6.18898         2.59137        0.259831 
        6.20467         2.57774         0.25821 
        6.22036         2.56301        0.256603 
         6.2361         2.54713        0.255006 
         6.2518         2.53596        0.253425 
        6.26748         2.52383         0.25186 
        6.28319         2.50775        0.250305 
        6.29893         2.49895        0.248762 
        6.31463         2.48114        0.247235 
        6.33033         2.46585        0.245721 
        6.34604         2.45634        0.244218 
        6.36177          2.4451        0.242727 
        6.37747         2.42599        0.241252 
