# k  (h/Mpc)    Pcb(k)  (Mpc/h)^3    Pcb_linear(k) (Mpc/h)^3   ShotnoiseSubtracted = true
      0.0200456         85.3127         86.5478 
      0.0350414         66.1228         65.7959 
      0.0492313         49.2859         49.0839 
      0.0637834         41.6827         41.8346 
      0.0800726         33.7608         33.9493 
       0.096163         25.1612         24.9586 
       0.111083         20.3182         20.1178 
       0.126058         18.0159         18.0727 
       0.142273         15.4326         15.5175 
       0.158546         12.3842         12.3528 
        0.17375         10.5363         10.4692 
       0.188953         9.55738         9.56428 
       0.204907         8.45854         8.54591 
       0.220756         7.27217         7.27465 
        0.23588         6.35554         6.35473 
         0.2514         5.80316         5.80864 
       0.267535         5.28744         5.29485 
       0.283568         4.69238         4.69518 
       0.299022         4.19971         4.19899 
       0.314451         3.87582         3.85436 
       0.330372         3.55664         3.55571 
       0.346141         3.24474         3.24252 
       0.361624         2.95571         2.95769 
       0.377134         2.72359         2.73114 
       0.392932         2.56019         2.53765 
       0.408854         2.34448         2.34891 
       0.424564         2.18605          2.1724 
       0.440253         2.02352         2.02043 
       0.455999         1.88068         1.88878 
       0.471626         1.76022         1.76749 
        0.48727         1.65937         1.65294 
       0.502856         1.55632         1.54964 
       0.518488         1.45011         1.45748 
       0.534347         1.36002         1.37166 
       0.550082         1.29306         1.29221 
       0.565732         1.22797         1.21917 
       0.581496         1.15258         1.15215 
       0.597222         1.08954         1.09059 
       0.612804          1.0323          1.0338 
       0.628434        0.977803        0.980714 
       0.644267        0.931604        0.930902 
       0.660051        0.886317         0.88494 
       0.675724        0.839513        0.842419 
       0.691403        0.799591        0.802682 
       0.707174        0.762848        0.765305 
       0.722871        0.735554         0.73048 
        0.73838        0.694395        0.698217 
       0.754018        0.663608        0.667677 
       0.769845         0.63158         0.63865 
        0.78569        0.608127        0.611342 
       0.801365        0.584383        0.585922 
       0.817031        0.560795        0.561987 
       0.832809        0.535439        0.539259 
       0.848511        0.515261        0.517913 
       0.864097        0.496915        0.497889 
       0.879701        0.479289        0.478922 
       0.895507        0.456463        0.460736 
       0.911279        0.441911        0.443549 
        0.92691        0.427873        0.427395 
       0.942635        0.408582        0.411969 
       0.958396        0.395133        0.397285 
       0.974128        0.381114        0.383354 
       0.989692        0.368006         0.37024 
        1.00528        0.353881         0.35773 
        1.02113        0.344732         0.34561 
        1.03692        0.333158        0.334105 
        1.05264        0.320437        0.323185 
        1.06832        0.310652        0.312778 
        1.08405        0.299737        0.302808 
        1.09979        0.291093        0.293273 
        1.11537        0.280331         0.28425 
        1.13105        0.271239        0.275558 
        1.14679        0.263863        0.267201 
        1.16256         0.25688         0.25918 
        1.17828        0.249245         0.25152 
        1.19395         0.24182        0.244199 
         1.2097        0.234057        0.237137 
        1.22537        0.226637        0.230393 
          1.241        0.220463        0.223935 
        1.25666        0.215219        0.217712 
        1.27241        0.208436          0.2117 
        1.28819        0.202308        0.205909 
        1.30392        0.197582        0.200354 
        1.31957        0.191707        0.195031 
        1.33529        0.187383        0.189885 
        1.35108        0.181302        0.184907 
        1.36674        0.177187        0.180146 
         1.3824        0.172248        0.175559 
        1.39811        0.167273        0.171119 
        1.41389        0.163989        0.166818 
        1.42964        0.159325        0.162674 
        1.44531        0.155215        0.158693 
        1.46101        0.151068        0.154838 
        1.47667        0.147686        0.151125 
        1.49229        0.144106        0.147545 
        1.50793        0.140755        0.144079 
        1.52367        0.137217        0.140703 
        1.53953        0.133459        0.137414 
        1.55526        0.130514        0.134259 
        1.57092        0.128119        0.131216 
        1.58662         0.12492        0.128262 
        1.60235        0.121855        0.125394 
        1.61809         0.11899        0.122614 
        1.63369        0.116279        0.119944 
        1.64941        0.113717        0.117336 
        1.66519        0.111322        0.114796 
        1.68085        0.108689        0.112351 
        1.69652        0.106565        0.109977 
        1.71228        0.103828        0.107659 
        1.72806         0.10201        0.105407 
        1.74368       0.0996547        0.103243 
        1.75933       0.0976473        0.101137 
        1.77505       0.0957952       0.0990794 
        1.79081       0.0934305       0.0970766 
         1.8065       0.0917612       0.0951384 
        1.82218       0.0894551       0.0932556 
        1.83797       0.0877696       0.0914114 
        1.85367       0.0858449       0.0896279 
        1.86928       0.0838619       0.0879034 
        1.88497       0.0823577       0.0862153 
        1.90073       0.0805323        0.084566 
        1.91647       0.0795654       0.0829618 
        1.93218       0.0782498       0.0814031 
        1.94787       0.0760644       0.0798873 
        1.96363       0.0746836       0.0784045 
        1.97935       0.0732137       0.0769629 
        1.99499       0.0719139       0.0755661 
        2.01064       0.0704787       0.0742025 
         2.0264       0.0693395       0.0728643 
        2.04216       0.0679696       0.0715601 
        2.05781       0.0664657       0.0702966 
        2.07353       0.0654097       0.0690594 
        2.08928       0.0642606       0.0678496 
        2.10499       0.0630751       0.0666724 
        2.12065       0.0619593        0.065527 
        2.13633       0.0608279       0.0644079 
        2.15211       0.0598314        0.063308 
        2.16785       0.0583762       0.0622371 
        2.18349        0.057549       0.0611981 
        2.19916       0.0563971       0.0601808 
        2.21489       0.0554314       0.0591836 
        2.23063       0.0547253       0.0582086 
         2.2463       0.0536912       0.0572602 
        2.26194       0.0527844       0.0563355 
        2.27765       0.0519397       0.0554268 
        2.29341       0.0508519        0.054536 
        2.30914       0.0500269       0.0536668 
        2.32486       0.0491275       0.0528172 
        2.34061       0.0482821       0.0519849 
        2.35635       0.0476001       0.0511715 
        2.37203       0.0470888       0.0503784 
        2.38768       0.0462858       0.0496041 
        2.40339       0.0453821       0.0488434 
        2.41914        0.044592        0.048097 
        2.43483       0.0440395       0.0473691 
         2.4505       0.0432022       0.0466576 
        2.46622       0.0424733       0.0459585 
        2.48195       0.0417707       0.0452738 
        2.49759       0.0411591       0.0446068 
        2.51328       0.0403801       0.0439518 
        2.52906       0.0398731       0.0433058 
        2.54479       0.0393226       0.0426755 
        2.56049       0.0385748        0.042059 
        2.57618       0.0380544       0.0414554 
        2.59189       0.0373164       0.0408628 
        2.60758       0.0370067       0.0402829 
        2.62325        0.036225       0.0397151 
        2.63898       0.0358171       0.0391564 
        2.65468       0.0351482       0.0386097 
        2.67044       0.0346781       0.0380713 
        2.68618       0.0341181       0.0375444 
        2.70184       0.0338025       0.0370298 
        2.71755       0.0332308       0.0365236 
        2.73329       0.0328224       0.0360262 
        2.74897       0.0322631       0.0355398 
        2.76462       0.0317703       0.0350635 
        2.78034       0.0313779       0.0345941 
        2.79607       0.0308903        0.034133 
        2.81179       0.0304722       0.0336808 
        2.82749       0.0301165       0.0332374 
        2.84321       0.0296275       0.0328016 
        2.85893       0.0292129       0.0323738 
        2.87462       0.0287776       0.0319545 
        2.89033       0.0283947       0.0315423 
        2.90605       0.0279731       0.0311371 
        2.92176       0.0277157       0.0307393 
        2.93747       0.0272441       0.0303487 
        2.95318       0.0269162       0.0299649 
        2.96891       0.0264712       0.0295877 
        2.98456       0.0261208       0.0292186 
        3.00023       0.0259083       0.0288554 
        3.01596       0.0254212       0.0284974 
        3.03164       0.0251364       0.0281464 
        3.04738       0.0248173       0.0278004 
         3.0631       0.0243741       0.0274605 
        3.07883       0.0241941       0.0271262 
        3.09456       0.0238678       0.0267976 
        3.11026       0.0234919       0.0264751 
        3.12596       0.0233192       0.0261579 
        3.14163       0.0229891       0.0258467 
        3.15734       0.0227415       0.0255399 
        3.17308       0.0224435       0.0252374 
        3.18879       0.0220898       0.0249407 
        3.20447        0.021852       0.0246493 
         3.2202       0.0215722       0.0243616 
         3.2359        0.021322       0.0240791 
        3.25157       0.0210591       0.0238018 
        3.26729       0.0208195       0.0235281 
        3.28304       0.0206127       0.0232581 
        3.29877       0.0203472       0.0229928 
        3.31446       0.0200568       0.0227323 
        3.33014       0.0198685       0.0224761 
        3.34585       0.0196755       0.0222235 
        3.36158       0.0193996       0.0219744 
        3.37727       0.0191483         0.02173 
        3.39294       0.0189308       0.0214895 
        3.40867       0.0187803       0.0212519 
        3.42439       0.0185306        0.021018 
        3.44008       0.0183475       0.0207881 
        3.45578        0.018124       0.0205616 
        3.47153       0.0179417       0.0203379 
        3.48724        0.017742        0.020118 
        3.50292       0.0175917       0.0199019 
        3.51859       0.0174374       0.0196891 
        3.53431       0.0171643       0.0194788 
        3.55007       0.0170189       0.0192711 
        3.56577       0.0168416       0.0190673 
        3.58146       0.0166488       0.0188665 
        3.59719       0.0165455       0.0186682 
        3.61292       0.0163271       0.0184728 
        3.62859       0.0161263        0.018281 
        3.64429       0.0160123       0.0180916 
        3.66003       0.0158993       0.0179043 
        3.67578       0.0157107       0.0177198 
        3.69146       0.0155879       0.0175385 
        3.70712       0.0153899       0.0173602 
        3.72284       0.0152533       0.0171837 
        3.73853       0.0150947         0.01701 
        3.75422       0.0149727       0.0168387 
        3.76993       0.0148579       0.0166696 
        3.78564       0.0147073       0.0165029 
        3.80137       0.0145768       0.0163383 
        3.81707       0.0144091       0.0161762 
        3.83279        0.014286       0.0160163 
        3.84853       0.0141935       0.0158583 
        3.86424        0.014032       0.0157027 
        3.87992       0.0139447       0.0155495 
        3.89561       0.0138207       0.0153983 
        3.91134       0.0137014       0.0152489 
        3.92704       0.0135853       0.0151016 
        3.94273       0.0134882       0.0149565 
        3.95845        0.013342        0.014813 
        3.97418       0.0132556       0.0146713 
        3.98988       0.0130762       0.0145318 
        4.00554        0.012995       0.0143944 
        4.02125       0.0128337       0.0142585 
        4.03698       0.0126359       0.0141241 
        4.05268       0.0124948       0.0139918 
        4.06839       0.0123284       0.0138611 
         4.0841       0.0121338       0.0137321 
        4.09983       0.0119904       0.0136046 
        4.11555       0.0118326       0.0134787 
        4.13124       0.0116645       0.0133549 
        4.14693       0.0115561       0.0132325 
        4.16266       0.0113952       0.0131113 
        4.17839        0.011256       0.0129918 
        4.19408        0.011104       0.0128741 
        4.20977       0.0109711       0.0127577 
        4.22551       0.0108769       0.0126426 
        4.24123       0.0107749        0.012529 
        4.25691       0.0106779       0.0124171 
        4.27259       0.0105385       0.0123065 
        4.28831       0.0104411       0.0121971 
        4.30404       0.0103372        0.012089 
        4.31974       0.0102876       0.0119824 
        4.33543       0.0101705       0.0118771 
        4.35116        0.010067       0.0117729 
        4.36688       0.0100134         0.01167 
        4.38255      0.00995858       0.0115687 
        4.39825       0.0099224       0.0114684 
        4.41398      0.00982929       0.0113691 
         4.4297      0.00978855       0.0112711 
        4.44541      0.00971296       0.0111743 
        4.46111      0.00965909       0.0110787 
        4.47683      0.00965865       0.0109842 
        4.49251      0.00959086       0.0108909 
        4.50819      0.00955067       0.0107988 
         4.5239      0.00951979       0.0107077 
        4.53962      0.00950709       0.0106175 
        4.55535      0.00946899       0.0105282 
        4.57106      0.00948461       0.0104402 
        4.58678      0.00945946       0.0103531 
         4.6025      0.00945325       0.0102671 
        4.61821      0.00943438        0.010182 
        4.63391      0.00945377        0.010098 
         4.6496      0.00942278        0.010015 
        4.66532      0.00943485      0.00993287 
        4.68103      0.00944527      0.00985166 
        4.69673      0.00944765      0.00977144 
        4.71241      0.00952767      0.00969221 
        4.72811      0.00953314      0.00961373 
        4.74384      0.00955424      0.00953603 
        4.75955      0.00956737      0.00945932 
        4.77525      0.00960051       0.0093835 
        4.79096      0.00966346      0.00930843 
        4.80669       0.0097041      0.00923415 
         4.8224       0.0097699      0.00916078 
        4.83809      0.00983489      0.00908829 
        4.85379      0.00990049      0.00901654 
         4.8695      0.00992596      0.00894552 
        4.88521       0.0100155       0.0088753 
        4.90093       0.0100701      0.00880584 
        4.91663       0.0101628      0.00873718 
        4.93234       0.0102394      0.00866919 
        4.94807       0.0103132      0.00860189 
        4.96377       0.0104269      0.00853544 
        4.97943       0.0105842      0.00846983 
        4.99514        0.010628      0.00840475 
        5.01086       0.0107443      0.00834032 
        5.02654       0.0108342      0.00827673 
        5.04227       0.0109523      0.00821362 
          5.058       0.0110927      0.00815114 
        5.07371       0.0111713      0.00808945 
        5.08942       0.0113894      0.00802839 
        5.10513       0.0114501      0.00796796 
        5.12084        0.011587      0.00790813 
        5.13656       0.0117403      0.00784893 
        5.15225        0.011919      0.00779045 
        5.16796       0.0121541      0.00773247 
        5.18369       0.0122474      0.00767503 
         5.1994       0.0124325      0.00761829 
        5.21509       0.0125907      0.00756218 
        5.23079       0.0127589      0.00750658 
        5.24649       0.0129539      0.00745158 
        5.26217       0.0131543      0.00739717 
        5.27788       0.0133441      0.00734324 
        5.29359       0.0135618      0.00728984 
        5.30933       0.0138068       0.0072369 
        5.32504       0.0140264      0.00718458 
        5.34073        0.014238      0.00713284 
        5.35646       0.0145355      0.00708151 
        5.37218       0.0147501      0.00703068 
        5.38789       0.0149391      0.00698044 
        5.40357       0.0152407      0.00693075 
        5.41929       0.0154823      0.00688144 
        5.43502       0.0158199      0.00683261 
         5.4507       0.0160593      0.00678437 
        5.46639       0.0163379      0.00673659 
        5.48212       0.0166032      0.00668917 
        5.49786       0.0170574      0.00664216 
        5.51353       0.0173578      0.00659583 
        5.52921       0.0175914       0.0065499 
        5.54495       0.0179247      0.00650428 
        5.56066       0.0183543      0.00645915 
        5.57637       0.0186868      0.00641445 
        5.59207       0.0191159      0.00637022 
        5.60778       0.0194872       0.0063264 
        5.62346       0.0198171      0.00628305 
        5.63916       0.0201239      0.00624008 
        5.65487       0.0206099      0.00619748 
         5.6706       0.0210293      0.00615524 
        5.68633       0.0214969      0.00611338 
        5.70203       0.0219751        0.006072 
        5.71773        0.022482      0.00603102 
        5.73344       0.0227124      0.00599039 
        5.74916       0.0232917       0.0059501 
        5.76486       0.0239513      0.00591025 
        5.78054       0.0243033      0.00587082 
        5.79626       0.0248199      0.00583165 
          5.812       0.0254781      0.00579279 
         5.8277       0.0259519      0.00575441 
        5.84339       0.0265169      0.00571638 
        5.85911       0.0272965      0.00567863 
        5.87484       0.0278622      0.00564122 
        5.89053       0.0284084      0.00560423 
        5.90623       0.0292341      0.00556756 
        5.92195       0.0296241      0.00553115 
        5.93767       0.0304153       0.0054951 
        5.95336       0.0312062      0.00545942 
        5.96905       0.0318633      0.00542408 
        5.98476       0.0324192      0.00538901 
        6.00048       0.0334953      0.00535424 
        6.01617       0.0340457      0.00531982 
        6.03185       0.0347902      0.00528576 
        6.04756       0.0358522      0.00525191 
        6.06331       0.0366847      0.00521829 
        6.07903       0.0375479      0.00518503 
        6.09473       0.0384705       0.0051521 
        6.11044       0.0396446      0.00511943 
        6.12616       0.0403213      0.00508705 
        6.14186       0.0414979      0.00505499 
        6.15755       0.0424803       0.0050232 
        6.17326       0.0433894      0.00499167 
        6.18898       0.0444698       0.0049604 
        6.20467       0.0456892      0.00492945 
        6.22036       0.0470514      0.00489877 
         6.2361       0.0480178      0.00486828 
         6.2518       0.0492123      0.00483809 
        6.26748       0.0502032      0.00480823 
        6.28319       0.0521022      0.00477854 
        6.29893       0.0531899      0.00474908 
        6.31463       0.0549395      0.00471992 
        6.33033         0.05559      0.00469101 
        6.34604       0.0571417      0.00466233 
        6.36177       0.0585619      0.00463387 
        6.37747       0.0607389       0.0046057 
