# k  (h/Mpc)    Pcb(k)  (Mpc/h)^3    Pcb_linear(k) (Mpc/h)^3   ShotnoiseSubtracted = true
      0.0200456         599.092         607.671 
      0.0350414         465.982         461.968 
      0.0492313         345.792         344.629 
      0.0637834         291.261          293.73 
      0.0800726         235.787         238.366 
       0.096163         177.353          175.24 
       0.111083         143.657         141.251 
       0.126058          126.18         126.892 
       0.142273         108.024         108.952 
       0.158546         87.1159         86.7314 
        0.17375         74.5412         73.5065 
       0.188953         67.4876         67.1529 
       0.204907         59.0136         60.0027 
       0.220756         51.3253         51.0769 
        0.23588         44.8997          44.618 
         0.2514         41.0063         40.7838 
       0.267535         37.5825         37.1763 
       0.283568         33.2943         32.9659 
       0.299022         29.9656         29.4821 
       0.314451         27.9375         27.0623 
       0.330372         25.4437         24.9654 
       0.346141         23.2449         22.7665 
       0.361624         21.1927         20.7666 
       0.377134         19.4911         19.1759 
       0.392932         18.6464         17.8174 
       0.408854         16.9165         16.4922 
       0.424564         16.0161         15.2529 
       0.440253         14.7117         14.1859 
       0.455999          13.559         13.2615 
       0.471626         12.7395           12.41 
        0.48727         12.2082         11.6056 
       0.502856         11.4526         10.8803 
       0.518488         10.5927         10.2333 
       0.534347         9.92483         9.63073 
       0.550082         9.52376         9.07291 
       0.565732         9.10643         8.56007 
       0.581496         8.56489         8.08952 
       0.597222         8.08316         7.65724 
       0.612804         7.64172         7.25851 
       0.628434         7.33469         6.88581 
       0.644267          6.9907         6.53607 
       0.660051         6.64315         6.21336 
       0.675724         6.27772         5.91481 
       0.691403         6.03532         5.63581 
       0.707174         5.75348         5.37338 
       0.722871         5.62146         5.12886 
        0.73838         5.24987         4.90233 
       0.754018         5.03038         4.68791 
       0.769845         4.77232          4.4841 
        0.78569         4.64715         4.29237 
       0.801365         4.45958         4.11389 
       0.817031         4.30957         3.94583 
       0.832809         4.08609         3.78626 
       0.848511         3.97057         3.63638 
       0.864097         3.83231         3.49579 
       0.879701          3.7224         3.36262 
       0.895507         3.55072         3.23493 
       0.911279         3.44169         3.11425 
        0.92691         3.34627         3.00083 
       0.942635         3.18764         2.89253 
       0.958396         3.08763         2.78942 
       0.974128         2.99998         2.69162 
       0.989692         2.88364         2.59954 
        1.00528         2.80106          2.5117 
        1.02113         2.73051         2.42661 
        1.03692         2.65442         2.34583 
        1.05264         2.53835         2.26915 
        1.06832         2.47708         2.19608 
        1.08405         2.39237         2.12608 
        1.09979         2.33919         2.05913 
        1.11537          2.2616         1.99578 
        1.13105          2.1805         1.93475 
        1.14679         2.13079         1.87608 
        1.16256         2.06423         1.81976 
        1.17828         2.02998         1.76598 
        1.19395          1.9584         1.71458 
         1.2097         1.90385         1.66499 
        1.22537         1.84268         1.61764 
          1.241         1.80275          1.5723 
        1.25666         1.77205         1.52861 
        1.27241         1.72226          1.4864 
        1.28819         1.66204         1.44573 
        1.30392         1.62445         1.40673 
        1.31957         1.59267         1.36936 
        1.33529         1.53491         1.33323 
        1.35108         1.50429         1.29828 
        1.36674         1.46209         1.26485 
         1.3824         1.44391         1.23264 
        1.39811         1.40089         1.20147 
        1.41389         1.36955         1.17127 
        1.42964         1.33655         1.14217 
        1.44531         1.31081         1.11422 
        1.46101         1.27147         1.08715 
        1.47667         1.25154         1.06108 
        1.49229         1.20927         1.03595 
        1.50793          1.1874         1.01161 
        1.52367         1.15642        0.987909 
        1.53953         1.13224        0.964818 
        1.55526         1.11781        0.942659 
        1.57092         1.10044        0.921298 
        1.58662         1.07996        0.900557 
        1.60235         1.04616        0.880422 
        1.61809         1.02624        0.860902 
        1.63369        0.998727        0.842155 
        1.64941        0.984253        0.823839 
        1.66519        0.968083        0.806009 
        1.68085        0.942689        0.788841 
        1.69652        0.925045        0.772174 
        1.71228        0.903995        0.755901 
        1.72806        0.888667        0.740089 
        1.74368        0.873347        0.724895 
        1.75933        0.857511        0.710102 
        1.77505        0.843828        0.695659 
        1.79081        0.817856        0.681596 
         1.8065        0.811728        0.667988 
        1.82218        0.790209        0.654768 
        1.83797        0.772338         0.64182 
        1.85367        0.765176        0.629298 
        1.86928        0.750106        0.617189 
        1.88497        0.732378        0.605337 
        1.90073        0.724785        0.593756 
        1.91647        0.707614        0.582493 
        1.93218        0.697025        0.571549 
        1.94787        0.683859        0.560906 
        1.96363        0.673961        0.550495 
        1.97935        0.660076        0.540374 
        1.99499        0.649933        0.530567 
        2.01064        0.639394        0.520992 
         2.0264        0.624308        0.511596 
        2.04216        0.615961         0.50244 
        2.05781         0.60776        0.493568 
        2.07353        0.596479        0.484881 
        2.08928        0.587455        0.476387 
        2.10499        0.576077        0.468122 
        2.12065        0.567797         0.46008 
        2.13633        0.559457        0.452222 
        2.15211        0.548307        0.444499 
        2.16785        0.541044        0.436981 
        2.18349        0.533378        0.429685 
        2.19916        0.524022        0.422543 
        2.21489        0.514666        0.415541 
        2.23063         0.50599        0.408695 
         2.2463        0.499619        0.402036 
        2.26194        0.493548        0.395544 
        2.27765        0.484121        0.389164 
        2.29341        0.477067        0.382909 
        2.30914        0.467633        0.376806 
        2.32486        0.461504        0.370842 
        2.34061        0.454175        0.364998 
        2.35635        0.448127        0.359286 
        2.37203        0.444824        0.353718 
        2.38768        0.435919        0.348281 
        2.40339        0.430087         0.34294 
        2.41914        0.423933          0.3377 
        2.43483        0.417473        0.332589 
         2.4505        0.411561        0.327593 
        2.46622        0.406193        0.322684 
        2.48195        0.398679        0.317877 
        2.49759        0.397275        0.313194 
        2.51328        0.388529        0.308595 
        2.52906        0.382345         0.30406 
        2.54479        0.377523        0.299634 
        2.56049        0.371755        0.295306 
        2.57618        0.369161        0.291067 
        2.59189        0.361841        0.286907 
        2.60758        0.359408        0.282835 
        2.62325         0.35432        0.278849 
        2.63898        0.350612        0.274926 
        2.65468        0.342905        0.271087 
        2.67044        0.339539        0.267307 
        2.68618        0.335274        0.263608 
        2.70184        0.330772        0.259994 
        2.71755        0.325581         0.25644 
        2.73329         0.32463        0.252948 
        2.74897        0.317614        0.249533 
        2.76462        0.315033        0.246189 
        2.78034        0.310194        0.242893 
        2.79607        0.307622        0.239655 
        2.81179        0.301012         0.23648 
        2.82749        0.299529        0.233367 
        2.84321        0.295985        0.230307 
        2.85893        0.291532        0.227304 
        2.87462        0.287625         0.22436 
        2.89033         0.28437        0.221466 
        2.90605        0.281631        0.218621 
        2.92176        0.279618        0.215827 
        2.93747        0.274693        0.213085 
        2.95318        0.271894         0.21039 
        2.96891        0.269108        0.207742 
        2.98456        0.266597        0.205151 
        3.00023        0.262879          0.2026 
        3.01596        0.259607        0.200086 
        3.03164        0.256644        0.197622 
        3.04738        0.254472        0.195193 
         3.0631         0.25194        0.192806 
        3.07883        0.248672        0.190459 
        3.09456        0.246069        0.188152 
        3.11026        0.242386        0.185887 
        3.12596        0.239624        0.183661 
        3.14163        0.238024        0.181476 
        3.15734        0.235683        0.179322 
        3.17308         0.23263        0.177198 
        3.18879        0.230619        0.175114 
        3.20447        0.227564        0.173068 
         3.2202        0.225669        0.171048 
         3.2359        0.223036        0.169065 
        3.25157        0.220179        0.167118 
        3.26729        0.218838        0.165196 
        3.28304        0.216625        0.163301 
        3.29877        0.214098        0.161438 
        3.31446         0.21253        0.159609 
        3.33014        0.210199         0.15781 
        3.34585        0.207363        0.156036 
        3.36158        0.205749        0.154287 
        3.37727          0.2047        0.152571 
        3.39294        0.202601        0.150883 
        3.40867        0.200122        0.149214 
        3.42439        0.198813        0.147572 
        3.44008        0.197042        0.145958 
        3.45578        0.194525        0.144367 
        3.47153        0.193368        0.142797 
        3.48724         0.19158        0.141253 
        3.50292        0.190174        0.139736 
        3.51859        0.187829        0.138242 
        3.53431        0.186315        0.136765 
        3.55007        0.184798        0.135307 
        3.56577        0.183786        0.133875 
        3.58146        0.181859        0.132466 
        3.59719        0.180115        0.131073 
        3.61292        0.178916        0.129702 
        3.62859        0.177404        0.128355 
        3.64429        0.175195        0.127025 
        3.66003        0.174621         0.12571 
        3.67578        0.173004        0.124414 
        3.69146        0.171457        0.123142 
        3.70712        0.170109         0.12189 
        3.72284        0.169304        0.120651 
        3.73853        0.167863        0.119431 
        3.75422         0.16612        0.118228 
        3.76993        0.164728        0.117041 
        3.78564        0.163806        0.115871 
        3.80137        0.162849        0.114715 
        3.81707        0.160527        0.113577 
        3.83279        0.159748        0.112454 
        3.84853        0.158507        0.111344 
        3.86424         0.15755        0.110252 
        3.87992        0.156126        0.109176 
        3.89561        0.155039        0.108115 
        3.91134        0.153517        0.107066 
        3.92704         0.15228        0.106032 
        3.94273        0.151055        0.105013 
        3.95845        0.149611        0.104005 
        3.97418        0.148727        0.103011 
        3.98988         0.14681        0.102031 
        4.00554        0.146081        0.101066 
        4.02125        0.144801        0.100112 
        4.03698        0.142513       0.0991685 
        4.05268         0.14167       0.0982394 
        4.06839        0.139546       0.0973216 
         4.0841        0.137758        0.096416 
        4.09983        0.136442       0.0955207 
        4.11555        0.134622       0.0946373 
        4.13124        0.133268       0.0937676 
        4.14693        0.131597       0.0929081 
        4.16266        0.129913       0.0920576 
        4.17839        0.128512       0.0912184 
        4.19408        0.127284       0.0903916 
        4.20977        0.125807       0.0895748 
        4.22551        0.124826       0.0887663 
        4.24123        0.123214       0.0879686 
        4.25691        0.122107       0.0871831 
        4.27259        0.120976        0.086407 
        4.28831        0.120348       0.0856388 
        4.30404        0.118359       0.0848794 
        4.31974        0.117909       0.0841309 
        4.33543        0.116797        0.083392 
        4.35116        0.115999       0.0826602 
        4.36688        0.114771       0.0819376 
        4.38255        0.114218       0.0812265 
        4.39825        0.113423       0.0805223 
        4.41398        0.112565       0.0798251 
         4.4297        0.111769        0.079137 
        4.44541        0.111009       0.0784572 
        4.46111        0.110206        0.077786 
        4.47683        0.109442       0.0771223 
        4.49251        0.108926       0.0764677 
        4.50819        0.108558        0.075821 
         4.5239        0.107795       0.0751809 
        4.53962        0.107319       0.0745475 
        4.55535        0.107195       0.0739211 
        4.57106         0.10641       0.0733029 
        4.58678        0.106192       0.0726917 
         4.6025        0.105723       0.0720874 
        4.61821        0.105422       0.0714902 
        4.63391        0.105104       0.0709005 
         4.6496        0.104934       0.0703178 
        4.66532        0.104584       0.0697409 
        4.68103         0.10444       0.0691707 
        4.69673        0.104142       0.0686075 
        4.71241         0.10458       0.0680511 
        4.72811        0.104022       0.0675002 
        4.74384        0.103645       0.0669546 
        4.75955        0.103724        0.066416 
        4.77525         0.10393       0.0658837 
        4.79096        0.103971       0.0653566 
        4.80669        0.103405        0.064835 
         4.8224        0.103921       0.0643199 
        4.83809        0.103926       0.0638109 
        4.85379        0.104049       0.0633071 
         4.8695        0.104167       0.0628085 
        4.88521        0.104272       0.0623155 
        4.90093        0.104794       0.0618277 
        4.91663        0.105043       0.0613457 
        4.93234        0.104924       0.0608683 
        4.94807        0.105434       0.0603958 
        4.96377        0.105796       0.0599292 
        4.97943        0.106623       0.0594686 
        4.99514         0.10674       0.0590116 
        5.01086        0.106749       0.0585592 
        5.02654        0.107712       0.0581127 
        5.04227        0.108086       0.0576696 
          5.058        0.108541        0.057231 
        5.07371        0.109162       0.0567978 
        5.08942        0.109924       0.0563691 
        5.10513        0.110485       0.0559448 
        5.12084        0.111253       0.0555247 
        5.13656        0.111902       0.0551091 
        5.15225        0.112855       0.0546985 
        5.16796        0.113628       0.0542914 
        5.18369        0.114164       0.0538881 
         5.1994        0.115154       0.0534897 
        5.21509        0.116081       0.0530958 
        5.23079        0.116865       0.0527053 
        5.24649        0.117864       0.0523192 
        5.26217        0.118978       0.0519372 
        5.27788         0.12018       0.0515585 
        5.29359        0.120983       0.0511836 
        5.30933        0.122001       0.0508119 
        5.32504        0.123539       0.0504446 
        5.34073        0.123963       0.0500813 
        5.35646         0.12574       0.0497209 
        5.37218        0.126818        0.049364 
        5.38789        0.128186       0.0490112 
        5.40357        0.129362       0.0486623 
        5.41929        0.130555       0.0483161 
        5.43502        0.132277       0.0479732 
         5.4507          0.1339       0.0476346 
        5.46639        0.135057       0.0472991 
        5.48212        0.136254       0.0469662 
        5.49786        0.138488        0.046636 
        5.51353         0.14056       0.0463108 
        5.52921         0.14103       0.0459883 
        5.54495        0.143977        0.045668 
        5.56066         0.14499       0.0453511 
        5.57637        0.147231       0.0450373 
        5.59207        0.148081       0.0447268 
        5.60778        0.150346       0.0444191 
        5.62346        0.151947       0.0441147 
        5.63916        0.154155        0.043813 
        5.65487        0.156479       0.0435139 
         5.6706        0.157738       0.0432173 
        5.68633        0.160615       0.0429234 
        5.70203        0.162481       0.0426329 
        5.71773        0.164849       0.0423451 
        5.73344        0.167308       0.0420599 
        5.74916        0.170023        0.041777 
        5.76486        0.172026       0.0414971 
        5.78054        0.173937       0.0412203 
        5.79626        0.176915       0.0409453 
          5.812        0.178423       0.0406725 
         5.8277        0.181162        0.040403 
        5.84339        0.183865        0.040136 
        5.85911        0.186384       0.0398709 
        5.87484        0.188792       0.0396083 
        5.89053           0.191       0.0393485 
        5.90623        0.195602        0.039091 
        5.92195        0.196967       0.0388354 
        5.93767        0.199359       0.0385823 
        5.95336        0.201919       0.0383318 
        5.96905        0.205982       0.0380837 
        5.98476        0.207857       0.0378374 
        6.00048        0.211259       0.0375933 
        6.01617        0.214269       0.0373517 
        6.03185        0.217185       0.0371125 
        6.04756         0.21936       0.0368748 
        6.06331        0.224202       0.0366387 
        6.07903        0.227367       0.0364053 
        6.09473        0.229213       0.0361741 
        6.11044         0.23451       0.0359447 
        6.12616        0.235273       0.0357173 
        6.14186        0.239361       0.0354922 
        6.15755        0.243005        0.035269 
        6.17326        0.247119       0.0350476 
        6.18898        0.249358       0.0348281 
        6.20467        0.252327       0.0346108 
        6.22036        0.255008       0.0343954 
         6.2361        0.257931       0.0341812 
         6.2518        0.263011       0.0339693 
        6.26748         0.26658       0.0337596 
        6.28319        0.270583       0.0335512 
        6.29893          0.2749       0.0333443 
        6.31463        0.277811       0.0331396 
        6.33033         0.28024       0.0329367 
        6.34604        0.285676       0.0327353 
        6.36177        0.287227       0.0325354 
        6.37747        0.292566       0.0323376 
