# k  (h/Mpc)    Pcb(k)  (Mpc/h)^3    Pcb_linear(k) (Mpc/h)^3   ShotnoiseSubtracted = true
      0.0200456         7997.38         8157.05 
      0.0350414         6037.54         6201.21 
      0.0492313         4591.23         4626.12 
      0.0637834         3997.33         3942.87 
      0.0800726         3229.57         3199.69 
       0.096163         2297.81         2352.32 
       0.111083         1839.36         1896.08 
       0.126058         1711.59         1703.33 
       0.142273         1489.58         1462.51 
       0.158546         1237.98         1164.24 
        0.17375         1004.44         986.711 
       0.188953         967.415         901.425 
       0.204907         913.622         805.444 
       0.220756         775.198         685.629 
        0.23588          682.63         598.928 
         0.2514         602.107          547.46 
       0.267535         582.141         499.035 
       0.283568         529.891         442.517 
       0.299022         491.834         395.751 
       0.314451         458.463          363.27 
       0.330372         425.111         335.123 
       0.346141         385.675         305.605 
       0.361624         369.565          278.76 
       0.377134          346.86         257.407 
       0.392932         324.501         239.172 
       0.408854         312.026         221.383 
       0.424564         299.108         204.747 
       0.440253         285.375         190.424 
       0.455999         269.484         178.016 
       0.471626         249.634         166.585 
        0.48727          244.04         155.788 
       0.502856         235.013         146.052 
       0.518488         230.973         137.366 
       0.534347         219.095         129.278 
       0.550082         204.886          121.79 
       0.565732         200.455         114.906 
       0.581496         191.318         108.589 
       0.597222         185.998         102.787 
       0.612804         178.315         97.4343 
       0.628434         174.042         92.4314 
       0.644267         168.248         87.7367 
       0.660051         165.757         83.4048 
       0.675724         161.762         79.3973 
       0.691403         156.956          75.652 
       0.707174         150.418         72.1293 
       0.722871         148.888         68.8471 
        0.73838         146.067         65.8063 
       0.754018         140.276          62.928 
       0.769845         137.513         60.1922 
        0.78569         134.547         57.6185 
       0.801365         131.128         55.2226 
       0.817031         126.574         52.9668 
       0.832809         124.901         50.8247 
       0.848511         121.426         48.8128 
       0.864097         118.243         46.9256 
       0.879701         116.895          45.138 
       0.895507         113.992          43.424 
       0.911279         112.697         41.8041 
        0.92691         110.073         40.2816 
       0.942635          107.62         38.8277 
       0.958396         107.148         37.4437 
       0.974128          104.25         36.1308 
       0.989692         101.685         34.8948 
        1.00528         99.8286         33.7157 
        1.02113         98.5029         32.5734 
        1.03692          95.476         31.4891 
        1.05264         95.1823         30.4599 
        1.06832         92.8157          29.479 
        1.08405         91.7071         28.5393 
        1.09979         90.9367         27.6407 
        1.11537         87.8042         26.7903 
        1.13105         88.1163         25.9711 
        1.14679         86.6722         25.1835 
        1.16256         85.2631         24.4275 
        1.17828         82.9864         23.7055 
        1.19395         82.5511         23.0156 
         1.2097         80.2522           22.35 
        1.22537         80.4444         21.7143 
          1.241         78.4639         21.1057 
        1.25666         77.0646         20.5192 
        1.27241         76.3968         19.9526 
        1.28819         75.0092         19.4067 
        1.30392         73.7883         18.8831 
        1.31957         73.1273         18.3815 
        1.33529         72.0188         17.8965 
        1.35108         71.5566         17.4274 
        1.36674         70.5552         16.9786 
         1.3824         69.0651         16.5463 
        1.39811         68.6599         16.1278 
        1.41389         67.4976         15.7224 
        1.42964         66.6524         15.3319 
        1.44531         65.6697         14.9566 
        1.46101         64.5522         14.5934 
        1.47667         64.3619         14.2434 
        1.49229         63.4506          13.906 
        1.50793         62.5934         13.5793 
        1.52367         61.7088         13.2612 
        1.53953         61.1545         12.9512 
        1.55526         60.3143         12.6538 
        1.57092         59.9904          12.367 
        1.58662         59.0622         12.0886 
        1.60235         58.4441         11.8183 
        1.61809         57.5145         11.5563 
        1.63369         56.5984         11.3046 
        1.64941         55.9729         11.0588 
        1.66519         55.1943         10.8194 
        1.68085          54.704          10.589 
        1.69652         54.0211         10.3652 
        1.71228         53.6619         10.1468 
        1.72806         53.1367         9.93456 
        1.74368         52.3726          9.7306 
        1.75933         51.8257         9.53203 
        1.77505         51.3033         9.33815 
        1.79081         50.5974         9.14939 
         1.8065         50.0948         8.96671 
        1.82218         49.4609         8.78925 
        1.83797         48.9285         8.61544 
        1.85367         48.1753         8.44735 
        1.86928         47.8785         8.28481 
        1.88497         47.3561         8.12572 
        1.90073          46.942         7.97027 
        1.91647         46.4054         7.81907 
        1.93218         45.7403         7.67217 
        1.94787         45.4044          7.5293 
        1.96363         44.8575         7.38956 
        1.97935         44.3789         7.25369 
        1.99499         43.8156         7.12204 
        2.01064         43.5249         6.99352 
         2.0264          42.859         6.86739 
        2.04216          42.294         6.74448 
        2.05781          41.856         6.62539 
        2.07353         41.4331         6.50878 
        2.08928         41.2432         6.39477 
        2.10499         40.7395         6.28382 
        2.12065         40.2557         6.17586 
        2.13633         40.0636         6.07039 
        2.15211         39.3249         5.96672 
        2.16785         38.7894         5.86579 
        2.18349         38.6137         5.76786 
        2.19916         38.2869         5.67199 
        2.21489         37.6369           5.578 
        2.23063         37.4047         5.48611 
         2.2463          37.025         5.39672 
        2.26194         36.5899         5.30957 
        2.27765         36.2418         5.22393 
        2.29341         35.8811         5.13997 
        2.30914         35.6277         5.05805 
        2.32486         35.0777         4.97798 
        2.34061         34.8678         4.89953 
        2.35635         34.4895         4.82287 
        2.37203         34.1832         4.74812 
        2.38768         33.7961         4.67514 
        2.40339         33.6402         4.60344 
        2.41914          33.239          4.5331 
        2.43483         32.7351         4.46449 
         2.4505         32.4871         4.39744 
        2.46622         32.2328         4.33154 
        2.48195         31.9049         4.26701 
        2.49759         31.5661         4.20415 
        2.51328         31.2112         4.14241 
        2.52906          31.031         4.08154 
        2.54479         30.6259         4.02212 
        2.56049         30.2557         3.96402 
        2.57618         29.9212         3.90713 
        2.59189         29.7356         3.85129 
        2.60758         29.5884         3.79663 
        2.62325         29.0793         3.74312 
        2.63898         29.0003         3.69046 
        2.65468         28.5645         3.63893 
        2.67044         28.3392         3.58818 
        2.68618         28.0437         3.53853 
        2.70184         27.8126         3.49002 
        2.71755         27.6048         3.44231 
        2.73329         27.3054         3.39544 
        2.74897         26.9628         3.34959 
        2.76462         26.8227         3.30471 
        2.78034         26.5872         3.26047 
        2.79607         26.2761           3.217 
        2.81179         26.0816         3.17438 
        2.82749         25.8014          3.1326 
        2.84321         25.5316         3.09152 
        2.85893         25.2704         3.05121 
        2.87462         25.0441         3.01168 
        2.89033         24.9005         2.97284 
        2.90605         24.7074         2.93464 
        2.92176         24.3697         2.89715 
        2.93747         24.2344         2.86034 
        2.95318         23.8884         2.82417 
        2.96891         23.7227         2.78861 
        2.98456         23.4063         2.75383 
        3.00023           23.31          2.7196 
        3.01596         23.0611         2.68585 
        3.03164          22.823         2.65278 
        3.04738         22.6273         2.62017 
         3.0631          22.422         2.58812 
        3.07883         22.2347         2.55662 
        3.09456         22.0527         2.52565 
        3.11026         21.8631         2.49525 
        3.12596         21.6141         2.46536 
        3.14163         21.5266         2.43603 
        3.15734         21.2395         2.40712 
        3.17308         21.0654         2.37861 
        3.18879         20.8797         2.35064 
        3.20447         20.6773         2.32317 
         3.2202         20.4554         2.29606 
         3.2359         20.3024         2.26943 
        3.25157         20.2117          2.2433 
        3.26729         20.0283          2.2175 
        3.28304         19.7822         2.19206 
        3.29877         19.5362         2.16706 
        3.31446         19.4154          2.1425 
        3.33014         19.2503         2.11835 
        3.34585          18.973         2.09454 
        3.36158         18.9205         2.07107 
        3.37727         18.6876         2.04803 
        3.39294         18.4699         2.02537 
        3.40867         18.3647         2.00297 
        3.42439          18.167         1.98093 
        3.44008         18.0216         1.95926 
        3.45578         17.9009         1.93791 
        3.47153         17.7545         1.91683 
        3.48724         17.5955          1.8961 
        3.50292         17.4215         1.87574 
        3.51859         17.2673         1.85568 
        3.53431         17.1158         1.83586 
        3.55007         16.9768         1.81628 
        3.56577         16.8421         1.79707 
        3.58146         16.7099         1.77815 
        3.59719          16.501         1.75946 
        3.61292         16.4219         1.74105 
        3.62859         16.2162         1.72297 
        3.64429         16.0834         1.70512 
        3.66003         15.9677         1.68746 
        3.67578          15.871         1.67007 
        3.69146         15.6775         1.65299 
        3.70712         15.5584         1.63619 
        3.72284          15.462         1.61955 
        3.73853         15.3084         1.60318 
        3.75422         15.1505         1.58703 
        3.76993         15.0426          1.5711 
        3.78564         14.8806         1.55539 
        3.80137         14.7505         1.53987 
        3.81707         14.6174          1.5246 
        3.83279         14.4729         1.50952 
        3.84853         14.4116         1.49463 
        3.86424          14.211         1.47997 
        3.87992         14.1525         1.46552 
        3.89561         14.0478         1.45128 
        3.91134         13.9482         1.43719 
        3.92704         13.7518         1.42331 
        3.94273         13.6709         1.40963 
        3.95845          13.581         1.39611 
        3.97418         13.4707         1.38276 
        3.98988         13.3441         1.36961 
        4.00554         13.2149         1.35666 
        4.02125          13.054         1.34385 
        4.03698         13.0346         1.33118 
        4.05268         12.9032         1.31871 
        4.06839         12.7988         1.30639 
         4.0841          12.706         1.29424 
        4.09983          12.559         1.28222 
        4.11555         12.4632         1.27036 
        4.13124         12.3473         1.25869 
        4.14693         12.2729         1.24715 
        4.16266         12.1765         1.23573 
        4.17839         12.0484         1.22447 
        4.19408         11.9675         1.21337 
        4.20977         11.8458          1.2024 
        4.22551         11.8022         1.19155 
        4.24123         11.6892         1.18084 
        4.25691         11.5741          1.1703 
        4.27259         11.5002         1.15988 
        4.28831         11.3865         1.14957 
        4.30404         11.2907         1.13938 
        4.31974         11.2046         1.12933 
        4.33543         11.1049         1.11941 
        4.35116          11.012         1.10959 
        4.36688         10.9213         1.09989 
        4.38255         10.8742         1.09034 
        4.39825         10.7755         1.08089 
        4.41398         10.6688         1.07153 
         4.4297         10.5821         1.06229 
        4.44541         10.4886         1.05317 
        4.46111          10.432         1.04416 
        4.47683         10.3646         1.03525 
        4.49251         10.2579         1.02646 
        4.50819         10.1815         1.01778 
         4.5239         10.1221         1.00919 
        4.53962         10.0478         1.00069 
        4.55535         9.93033        0.992277 
        4.57106         9.87138        0.983979 
        4.58678         9.76107        0.975775 
         4.6025         9.70281        0.967663 
        4.61821         9.63611        0.959646 
        4.63391         9.56141        0.951731 
         4.6496         9.47459        0.943909 
        4.66532           9.397        0.936164 
        4.68103          9.3388         0.92851 
        4.69673         9.26361         0.92095 
        4.71241         9.20352        0.913482 
        4.72811         9.12947        0.906086 
        4.74384         9.06103        0.898763 
        4.75955         8.99548        0.891533 
        4.77525         8.92004        0.884387 
        4.79096         8.86124        0.877311 
        4.80669         8.81007        0.870311 
         4.8224         8.74946        0.863395 
        4.83809         8.64608        0.856563 
        4.85379         8.57453        0.849801 
         4.8695         8.53269        0.843107 
        4.88521         8.45864         0.83649 
        4.90093         8.41606        0.829942 
        4.91663         8.32768        0.823472 
        4.93234         8.26358        0.817064 
        4.94807         8.19966        0.810721 
        4.96377          8.1488        0.804457 
        4.97943          8.0891        0.798274 
        4.99514         8.03229        0.792141 
        5.01086         7.97236        0.786067 
        5.02654         7.88925        0.780074 
        5.04227         7.85366        0.774126 
          5.058          7.8088        0.768238 
        5.07371         7.75684        0.762423 
        5.08942         7.67922        0.756669 
        5.10513         7.61076        0.750973 
        5.12084         7.56465        0.745334 
        5.13656         7.52159        0.739755 
        5.15225         7.45599        0.734243 
        5.16796         7.40373        0.728778 
        5.18369         7.34901        0.723365 
         5.1994         7.28975        0.718017 
        5.21509         7.23583        0.712729 
        5.23079         7.18497        0.707488 
        5.24649         7.13219        0.702305 
        5.26217          7.0907        0.697177 
        5.27788          7.0482        0.692094 
        5.29359         6.99057        0.687061 
        5.30933         6.96001        0.682072 
        5.32504         6.89204        0.677141 
        5.34073         6.83548        0.672264 
        5.35646         6.79269        0.667426 
        5.37218         6.73711        0.662636 
        5.38789         6.72237          0.6579 
        5.40357         6.65547        0.653217 
        5.41929         6.60483         0.64857 
        5.43502         6.56006        0.643967 
         5.4507         6.53113        0.639421 
        5.46639         6.46105        0.634918 
        5.48212         6.42555        0.630449 
        5.49786         6.39584        0.626017 
        5.51353         6.33765        0.621651 
        5.52921         6.30074        0.617322 
        5.54495         6.25976        0.613022 
        5.56066         6.20991        0.608769 
        5.57637         6.16646        0.604556 
        5.59207         6.11986        0.600388 
        5.60778         6.08031        0.596258 
        5.62346          6.0372        0.592172 
        5.63916         6.00057        0.588122 
        5.65487         5.95625        0.584107 
         5.6706         5.92553        0.580126 
        5.68633         5.88238        0.576181 
        5.70203         5.83332        0.572281 
        5.71773          5.8096        0.568418 
        5.73344         5.76107        0.564589 
        5.74916         5.72307        0.560792 
        5.76486         5.68234        0.557035 
        5.78054         5.65021         0.55332 
        5.79626         5.60216        0.549627 
          5.812         5.57245        0.545966 
         5.8277         5.53453        0.542348 
        5.84339          5.5019        0.538764 
        5.85911         5.46527        0.535205 
        5.87484         5.42484         0.53168 
        5.89053         5.38865        0.528194 
        5.90623         5.36431        0.524737 
        5.92195         5.31271        0.521306 
        5.93767         5.28267        0.517908 
        5.95336         5.24835        0.514546 
        5.96905         5.21485        0.511215 
        5.98476         5.19297        0.507909 
        6.00048         5.14712        0.504632 
        6.01617         5.11754        0.501389 
        6.03185         5.08654        0.498178 
        6.04756         5.04784        0.494988 
        6.06331         5.02538        0.491819 
        6.07903         4.98328        0.488685 
        6.09473         4.94134        0.485581 
        6.11044          4.9198        0.482502 
        6.12616         4.89812         0.47945 
        6.14186         4.85143        0.476428 
        6.15755         4.82882        0.473433 
        6.17326         4.79845        0.470461 
        6.18898         4.76784        0.467513 
        6.20467         4.73291        0.464596 
        6.22036         4.71032        0.461705 
         6.2361         4.68585        0.458831 
         6.2518         4.65365        0.455986 
        6.26748         4.61826        0.453171 
        6.28319         4.60016        0.450373 
        6.29893         4.56983        0.447596 
        6.31463         4.53867        0.444848 
        6.33033         4.51746        0.442124 
        6.34604         4.48001        0.439421 
        6.36177         4.45713        0.436738 
        6.37747         4.42616        0.434083 
