# k  (h/Mpc)    Pcb(k)  (Mpc/h)^3    Pcb_linear(k) (Mpc/h)^3   ShotnoiseSubtracted = true
      0.0200456         85.2761         86.5478 
      0.0350414          65.798         65.7959 
      0.0492313         49.2847         49.0839 
      0.0637834         41.9011         41.8346 
      0.0800726         33.9441         33.9493 
       0.096163         25.0323         24.9586 
       0.111083         20.1456         20.1178 
       0.126058         18.0679         18.0727 
       0.142273         15.5123         15.5175 
       0.158546         12.4075         12.3528 
        0.17375         10.4697         10.4692 
       0.188953         9.55472         9.56428 
       0.204907         8.59864         8.54591 
       0.220756         7.30214         7.27465 
        0.23588         6.38011         6.35473 
         0.2514         5.80492         5.80864 
       0.267535         5.28763         5.29485 
       0.283568         4.70117         4.69518 
       0.299022         4.21258         4.19899 
       0.314451         3.83639         3.85436 
       0.330372         3.54822         3.55571 
       0.346141          3.2379         3.24252 
       0.361624          2.9612         2.95769 
       0.377134         2.73971         2.73114 
       0.392932         2.51147         2.53765 
       0.408854         2.35181         2.34891 
       0.424564         2.16515          2.1724 
       0.440253         2.01649         2.02043 
       0.455999          1.8925         1.88878 
       0.471626         1.77278         1.76749 
        0.48727         1.64922         1.65294 
       0.502856          1.5435         1.54964 
       0.518488         1.46353         1.45748 
       0.534347         1.38254         1.37166 
       0.550082         1.28819         1.29221 
       0.565732         1.20516         1.21917 
       0.581496          1.1516         1.15215 
       0.597222          1.0917         1.09059 
       0.612804         1.03102          1.0338 
       0.628434        0.983908        0.980714 
       0.644267        0.929569        0.930902 
       0.660051        0.881429         0.88494 
       0.675724        0.841524        0.842419 
       0.691403        0.804035        0.802682 
       0.707174         0.76372        0.765305 
       0.722871        0.725613         0.73048 
        0.73838        0.698483        0.698217 
       0.754018        0.669954        0.667677 
       0.769845        0.639865         0.63865 
        0.78569        0.611423        0.611342 
       0.801365        0.584269        0.585922 
       0.817031        0.561347        0.561987 
       0.832809        0.538499        0.539259 
       0.848511        0.515836        0.517913 
       0.864097          0.4941        0.497889 
       0.879701        0.474616        0.478922 
       0.895507        0.460124        0.460736 
       0.911279        0.442329        0.443549 
        0.92691        0.424806        0.427395 
       0.942635         0.41023        0.411969 
       0.958396        0.394291        0.397285 
       0.974128        0.380511        0.383354 
       0.989692        0.368047         0.37024 
        1.00528        0.356367         0.35773 
        1.02113        0.341494         0.34561 
        1.03692          0.3315        0.334105 
        1.05264         0.32056        0.323185 
        1.06832        0.310459        0.312778 
        1.08405        0.299145        0.302808 
        1.09979        0.289482        0.293273 
        1.11537        0.282636         0.28425 
        1.13105        0.273366        0.275558 
        1.14679        0.266035        0.267201 
        1.16256        0.255573         0.25918 
        1.17828        0.248154         0.25152 
        1.19395        0.240396        0.244199 
         1.2097        0.233247        0.237137 
        1.22537        0.228074        0.230393 
          1.241        0.220893        0.223935 
        1.25666        0.215536        0.217712 
        1.27241        0.208678          0.2117 
        1.28819        0.202905        0.205909 
        1.30392        0.197221        0.200354 
        1.31957        0.192163        0.195031 
        1.33529        0.186532        0.189885 
        1.35108        0.181627        0.184907 
        1.36674        0.175734        0.180146 
         1.3824        0.173121        0.175559 
        1.39811        0.167699        0.171119 
        1.41389        0.163476        0.166818 
        1.42964        0.160052        0.162674 
        1.44531        0.154962        0.158693 
        1.46101        0.151612        0.154838 
        1.47667        0.147145        0.151125 
        1.49229        0.144128        0.147545 
        1.50793        0.140194        0.144079 
        1.52367        0.137157        0.140703 
        1.53953        0.134321        0.137414 
        1.55526        0.131022        0.134259 
        1.57092        0.127068        0.131216 
        1.58662        0.124858        0.128262 
        1.60235        0.122377        0.125394 
        1.61809        0.118543        0.122614 
        1.63369         0.11654        0.119944 
        1.64941        0.114166        0.117336 
        1.66519        0.111201        0.114796 
        1.68085         0.10854        0.112351 
        1.69652        0.106061        0.109977 
        1.71228        0.104348        0.107659 
        1.72806         0.10138        0.105407 
        1.74368       0.0997134        0.103243 
        1.75933       0.0975766        0.101137 
        1.77505       0.0953887       0.0990794 
        1.79081       0.0936742       0.0970766 
         1.8065       0.0911286       0.0951384 
        1.82218       0.0896773       0.0932556 
        1.83797       0.0876795       0.0914114 
        1.85367        0.085969       0.0896279 
        1.86928        0.084411       0.0879034 
        1.88497       0.0828399       0.0862153 
        1.90073       0.0810175        0.084566 
        1.91647       0.0792256       0.0829618 
        1.93218       0.0776567       0.0814031 
        1.94787       0.0760659       0.0798873 
        1.96363       0.0748213       0.0784045 
        1.97935       0.0731327       0.0769629 
        1.99499       0.0718627       0.0755661 
        2.01064       0.0707626       0.0742025 
         2.0264       0.0693585       0.0728643 
        2.04216       0.0679501       0.0715601 
        2.05781       0.0667441       0.0702966 
        2.07353       0.0651394       0.0690594 
        2.08928       0.0641956       0.0678496 
        2.10499       0.0627532       0.0666724 
        2.12065       0.0619663        0.065527 
        2.13633       0.0606304       0.0644079 
        2.15211       0.0598744        0.063308 
        2.16785       0.0587093       0.0622371 
        2.18349       0.0572523       0.0611981 
        2.19916        0.056831       0.0601808 
        2.21489       0.0558634       0.0591836 
        2.23063       0.0547168       0.0582086 
         2.2463        0.053524       0.0572602 
        2.26194       0.0526596       0.0563355 
        2.27765       0.0517806       0.0554268 
        2.29341       0.0511464        0.054536 
        2.30914       0.0500741       0.0536668 
        2.32486       0.0492163       0.0528172 
        2.34061       0.0484707       0.0519849 
        2.35635       0.0475815       0.0511715 
        2.37203       0.0468208       0.0503784 
        2.38768       0.0460138       0.0496041 
        2.40339       0.0452493       0.0488434 
        2.41914       0.0446811        0.048097 
        2.43483       0.0436988       0.0473691 
         2.4505       0.0430486       0.0466576 
        2.46622       0.0424232       0.0459585 
        2.48195       0.0416226       0.0452738 
        2.49759       0.0411282       0.0446068 
        2.51328       0.0405935       0.0439518 
        2.52906       0.0398813       0.0433058 
        2.54479       0.0392702       0.0426755 
        2.56049       0.0386523        0.042059 
        2.57618       0.0380417       0.0414554 
        2.59189       0.0374745       0.0408628 
        2.60758       0.0369808       0.0402829 
        2.62325       0.0363591       0.0397151 
        2.63898       0.0357771       0.0391564 
        2.65468       0.0352117       0.0386097 
        2.67044       0.0348271       0.0380713 
        2.68618       0.0342645       0.0375444 
        2.70184        0.033714       0.0370298 
        2.71755       0.0330851       0.0365236 
        2.73329       0.0326775       0.0360262 
        2.74897       0.0323296       0.0355398 
        2.76462       0.0317536       0.0350635 
        2.78034       0.0313104       0.0345941 
        2.79607       0.0309398        0.034133 
        2.81179       0.0304367       0.0336808 
        2.82749       0.0299912       0.0332374 
        2.84321       0.0295971       0.0328016 
        2.85893       0.0291546       0.0323738 
        2.87462       0.0288392       0.0319545 
        2.89033       0.0284465       0.0315423 
        2.90605       0.0279314       0.0311371 
        2.92176       0.0276864       0.0307393 
        2.93747       0.0272543       0.0303487 
        2.95318       0.0268293       0.0299649 
        2.96891       0.0265495       0.0295877 
        2.98456       0.0262496       0.0292186 
        3.00023       0.0257809       0.0288554 
        3.01596       0.0254127       0.0284974 
        3.03164         0.02522       0.0281464 
        3.04738       0.0248027       0.0278004 
         3.0631       0.0243878       0.0274605 
        3.07883       0.0241132       0.0271262 
        3.09456       0.0239209       0.0267976 
        3.11026       0.0235578       0.0264751 
        3.12596       0.0233228       0.0261579 
        3.14163       0.0229691       0.0258467 
        3.15734       0.0227011       0.0255399 
        3.17308        0.022382       0.0252374 
        3.18879       0.0221273       0.0249407 
        3.20447        0.021889       0.0246493 
         3.2202       0.0216187       0.0243616 
         3.2359       0.0213694       0.0240791 
        3.25157       0.0210663       0.0238018 
        3.26729       0.0208739       0.0235281 
        3.28304       0.0205571       0.0232581 
        3.29877       0.0203541       0.0229928 
        3.31446       0.0200927       0.0227323 
        3.33014       0.0198298       0.0224761 
        3.34585       0.0196099       0.0222235 
        3.36158        0.019348       0.0219744 
        3.37727       0.0191869         0.02173 
        3.39294       0.0189958       0.0214895 
        3.40867       0.0188007       0.0212519 
        3.42439       0.0185839        0.021018 
        3.44008       0.0183634       0.0207881 
        3.45578       0.0181757       0.0205616 
        3.47153       0.0179481       0.0203379 
        3.48724        0.017845        0.020118 
        3.50292       0.0175163       0.0199019 
        3.51859       0.0173392       0.0196891 
        3.53431       0.0172346       0.0194788 
        3.55007       0.0170588       0.0192711 
        3.56577       0.0169116       0.0190673 
        3.58146       0.0166244       0.0188665 
        3.59719       0.0165046       0.0186682 
        3.61292       0.0162916       0.0184728 
        3.62859       0.0161539        0.018281 
        3.64429       0.0160167       0.0180916 
        3.66003       0.0158571       0.0179043 
        3.67578       0.0157057       0.0177198 
        3.69146       0.0155812       0.0175385 
        3.70712       0.0154366       0.0173602 
        3.72284        0.015259       0.0171837 
        3.73853       0.0150701         0.01701 
        3.75422       0.0150311       0.0168387 
        3.76993        0.014823       0.0166696 
        3.78564       0.0147472       0.0165029 
        3.80137       0.0146091       0.0163383 
        3.81707       0.0144106       0.0161762 
        3.83279       0.0142884       0.0160163 
        3.84853       0.0141924       0.0158583 
        3.86424       0.0140291       0.0157027 
        3.87992       0.0139257       0.0155495 
        3.89561       0.0138434       0.0153983 
        3.91134       0.0137355       0.0152489 
        3.92704       0.0135451       0.0151016 
        3.94273        0.013481       0.0149565 
        3.95845       0.0133305        0.014813 
        3.97418       0.0132224       0.0146713 
        3.98988       0.0131203       0.0145318 
        4.00554       0.0129557       0.0143944 
        4.02125       0.0128078       0.0142585 
        4.03698       0.0126849       0.0141241 
        4.05268       0.0124962       0.0139918 
        4.06839       0.0122961       0.0138611 
         4.0841       0.0121602       0.0137321 
        4.09983       0.0119787       0.0136046 
        4.11555       0.0118325       0.0134787 
        4.13124       0.0116862       0.0133549 
        4.14693         0.01153       0.0132325 
        4.16266       0.0113661       0.0131113 
        4.17839       0.0112677       0.0129918 
        4.19408       0.0111248       0.0128741 
        4.20977       0.0110104       0.0127577 
        4.22551       0.0108911       0.0126426 
        4.24123       0.0107583        0.012529 
        4.25691        0.010654       0.0124171 
        4.27259       0.0105531       0.0123065 
        4.28831        0.010488       0.0121971 
        4.30404       0.0103668        0.012089 
        4.31974       0.0102521       0.0119824 
        4.33543        0.010174       0.0118771 
        4.35116       0.0100752       0.0117729 
        4.36688      0.00999492         0.01167 
        4.38255      0.00993053       0.0115687 
        4.39825      0.00990158       0.0114684 
        4.41398      0.00985266       0.0113691 
         4.4297      0.00978658       0.0112711 
        4.44541      0.00971132       0.0111743 
        4.46111       0.0096526       0.0110787 
        4.47683      0.00964367       0.0109842 
        4.49251       0.0095676       0.0108909 
        4.50819      0.00954698       0.0107988 
         4.5239      0.00952283       0.0107077 
        4.53962      0.00949341       0.0106175 
        4.55535      0.00946868       0.0105282 
        4.57106      0.00948956       0.0104402 
        4.58678      0.00943712       0.0103531 
         4.6025      0.00945037       0.0102671 
        4.61821      0.00945981        0.010182 
        4.63391      0.00944264        0.010098 
         4.6496      0.00945274        0.010015 
        4.66532      0.00944979      0.00993287 
        4.68103      0.00947873      0.00985166 
        4.69673       0.0094707      0.00977144 
        4.71241      0.00952755      0.00969221 
        4.72811      0.00951256      0.00961373 
        4.74384      0.00957336      0.00953603 
        4.75955      0.00957624      0.00945932 
        4.77525      0.00963488       0.0093835 
        4.79096      0.00968646      0.00930843 
        4.80669      0.00969149      0.00923415 
         4.8224      0.00976673      0.00916078 
        4.83809      0.00979513      0.00908829 
        4.85379       0.0098895      0.00901654 
         4.8695         0.00995      0.00894552 
        4.88521       0.0100192       0.0088753 
        4.90093       0.0100806      0.00880584 
        4.91663       0.0102083      0.00873718 
        4.93234       0.0102499      0.00866919 
        4.94807       0.0103309      0.00860189 
        4.96377       0.0104016      0.00853544 
        4.97943       0.0104984      0.00846983 
        4.99514       0.0106283      0.00840475 
        5.01086       0.0107284      0.00834032 
        5.02654       0.0108474      0.00827673 
        5.04227       0.0109751      0.00821362 
          5.058       0.0110904      0.00815114 
        5.07371       0.0112085      0.00808945 
        5.08942       0.0113835      0.00802839 
        5.10513       0.0114504      0.00796796 
        5.12084       0.0116062      0.00790813 
        5.13656       0.0117663      0.00784893 
        5.15225       0.0118664      0.00779045 
        5.16796       0.0120812      0.00773247 
        5.18369        0.012259      0.00767503 
         5.1994       0.0124026      0.00761829 
        5.21509       0.0126573      0.00756218 
        5.23079       0.0127312      0.00750658 
        5.24649       0.0129881      0.00745158 
        5.26217       0.0131722      0.00739717 
        5.27788       0.0134042      0.00734324 
        5.29359       0.0135604      0.00728984 
        5.30933       0.0138788       0.0072369 
        5.32504       0.0139983      0.00718458 
        5.34073        0.014316      0.00713284 
        5.35646       0.0144938      0.00708151 
        5.37218       0.0147411      0.00703068 
        5.38789       0.0150078      0.00698044 
        5.40357       0.0152066      0.00693075 
        5.41929       0.0154671      0.00688144 
        5.43502       0.0157823      0.00683261 
         5.4507       0.0161139      0.00678437 
        5.46639       0.0164505      0.00673659 
        5.48212       0.0165522      0.00668917 
        5.49786        0.016969      0.00664216 
        5.51353       0.0173321      0.00659583 
        5.52921       0.0176599       0.0065499 
        5.54495       0.0180265      0.00650428 
        5.56066       0.0183256      0.00645915 
        5.57637       0.0187158      0.00641445 
        5.59207       0.0189871      0.00637022 
        5.60778       0.0194066       0.0063264 
        5.62346       0.0198628      0.00628305 
        5.63916       0.0202099      0.00624008 
        5.65487       0.0206631      0.00619748 
         5.6706         0.02093      0.00615524 
        5.68633       0.0214872      0.00611338 
        5.70203       0.0219384        0.006072 
        5.71773       0.0224475      0.00603102 
        5.73344       0.0228405      0.00599039 
        5.74916       0.0234155       0.0059501 
        5.76486       0.0238768      0.00591025 
        5.78054       0.0243766      0.00587082 
        5.79626       0.0247565      0.00583165 
          5.812       0.0254863      0.00579279 
         5.8277       0.0259288      0.00575441 
        5.84339       0.0265202      0.00571638 
        5.85911       0.0272843      0.00567863 
        5.87484        0.027847      0.00564122 
        5.89053       0.0284306      0.00560423 
        5.90623       0.0292507      0.00556756 
        5.92195       0.0299017      0.00553115 
        5.93767       0.0304915       0.0054951 
        5.95336       0.0311395      0.00545942 
        5.96905       0.0320851      0.00542408 
        5.98476       0.0325004      0.00538901 
        6.00048       0.0332947      0.00535424 
        6.01617        0.034145      0.00531982 
        6.03185       0.0348829      0.00528576 
        6.04756       0.0358727      0.00525191 
        6.06331       0.0364955      0.00521829 
        6.07903        0.037666      0.00518503 
        6.09473       0.0382489       0.0051521 
        6.11044        0.039529      0.00511943 
        6.12616       0.0405718      0.00508705 
        6.14186       0.0411533      0.00505499 
        6.15755        0.042263       0.0050232 
        6.17326       0.0431458      0.00499167 
        6.18898       0.0446334       0.0049604 
        6.20467       0.0458027      0.00492945 
        6.22036       0.0468526      0.00489877 
         6.2361       0.0480305      0.00486828 
         6.2518       0.0493207      0.00483809 
        6.26748       0.0500601      0.00480823 
        6.28319       0.0517914      0.00477854 
        6.29893       0.0530046      0.00474908 
        6.31463       0.0545553      0.00471992 
        6.33033       0.0558209      0.00469101 
        6.34604       0.0573128      0.00466233 
        6.36177       0.0589638      0.00463387 
        6.37747       0.0603044       0.0046057 
