# k  (h/Mpc)    Pcb(k)  (Mpc/h)^3    Pcb_linear(k) (Mpc/h)^3   ShotnoiseSubtracted = true
      0.0200456         9454.04         9650.16 
      0.0350414         7120.59         7336.31 
      0.0492313         5419.75          5472.9 
      0.0637834         4729.14          4664.6 
      0.0800726         3818.21         3785.38 
       0.096163         2709.75         2782.91 
       0.111083         2170.57         2243.15 
       0.126058         2022.63         2015.12 
       0.142273         1761.04         1730.22 
       0.158546         1475.06         1377.34 
        0.17375          1193.5         1167.32 
       0.188953         1154.51         1066.43 
       0.204907         1091.56         952.878 
       0.220756         929.837          811.13 
        0.23588         820.143         708.559 
         0.2514         721.192          647.67 
       0.267535         702.713         590.381 
       0.283568         639.907         523.518 
       0.299022         595.889         468.192 
       0.314451         559.464         429.764 
       0.330372         517.942         396.465 
       0.346141         471.671         361.545 
       0.361624         452.952         329.786 
       0.377134          423.77         304.524 
       0.392932         400.838         282.951 
       0.408854         385.467         261.906 
       0.424564         368.221         242.225 
       0.440253         354.298          225.28 
       0.455999         334.378         210.601 
       0.471626         310.874         197.077 
        0.48727         303.853         184.304 
       0.502856         293.458         172.786 
       0.518488         289.637          162.51 
       0.534347         273.428         152.942 
       0.550082         256.895         144.083 
       0.565732         253.147         135.939 
       0.581496         240.875         128.466 
       0.597222          234.84         121.601 
       0.612804         226.089         115.269 
       0.628434         219.378         109.351 
       0.644267         212.229         103.797 
       0.660051         209.649         98.6716 
       0.675724         205.386         93.9306 
       0.691403         199.485         89.4998 
       0.707174         190.909         85.3323 
       0.722871         189.469         81.4493 
        0.73838         185.593         77.8519 
       0.754018         179.559         74.4467 
       0.769845         175.126         71.2101 
        0.78569         172.433         68.1653 
       0.801365         168.043         65.3309 
       0.817031         162.368         62.6621 
       0.832809         159.876         60.1279 
       0.848511         156.293         57.7478 
       0.864097         153.103         55.5151 
       0.879701         150.245         53.4003 
       0.895507         146.459         51.3726 
       0.911279         144.342         49.4561 
        0.92691         142.167         47.6549 
       0.942635          139.27          45.935 
       0.958396         138.813         44.2977 
       0.974128         134.742         42.7444 
       0.989692         131.426         41.2822 
        1.00528         129.088         39.8873 
        1.02113         128.107         38.5359 
        1.03692         123.465         37.2531 
        1.05264         123.018         36.0355 
        1.06832          120.16          34.875 
        1.08405         118.693         33.7633 
        1.09979          117.96         32.7002 
        1.11537         114.121         31.6941 
        1.13105          114.08          30.725 
        1.14679         112.783         29.7932 
        1.16256         111.006         28.8988 
        1.17828         108.081         28.0447 
        1.19395         107.216         27.2285 
         1.2097         104.591         26.4411 
        1.22537         104.673          25.689 
          1.241         102.181          24.969 
        1.25666         100.268         24.2752 
        1.27241         99.2212         23.6048 
        1.28819         97.6725          22.959 
        1.30392         96.4022         22.3396 
        1.31957         95.0098         21.7462 
        1.33529         93.4562         21.1724 
        1.35108         92.5855         20.6174 
        1.36674         91.4425         20.0865 
         1.3824          89.838         19.5751 
        1.39811          89.005           19.08 
        1.41389         87.6493         18.6004 
        1.42964          86.716         18.1383 
        1.44531         84.8202         17.6944 
        1.46101         83.8801         17.2646 
        1.47667         83.4968         16.8506 
        1.49229         81.8795         16.4514 
        1.50793         81.2388          16.065 
        1.52367         80.1962         15.6886 
        1.53953         79.1138         15.3219 
        1.55526          78.243           14.97 
        1.57092         77.9078         14.6307 
        1.58662         76.3579         14.3014 
        1.60235         75.7236         13.9816 
        1.61809         74.6803         13.6716 
        1.63369          73.379         13.3739 
        1.64941         72.7161          13.083 
        1.66519         71.6081         12.7999 
        1.68085         70.8788         12.5272 
        1.69652          69.789         12.2626 
        1.71228         69.2592         12.0041 
        1.72806          68.733          11.753 
        1.74368         67.7507         11.5117 
        1.75933         67.0769         11.2768 
        1.77505         66.3739         11.0475 
        1.79081         65.3655         10.8241 
         1.8065         64.9086          10.608 
        1.82218         63.8847         10.3981 
        1.83797         63.3459         10.1925 
        1.85367         62.4245          9.9936 
        1.86928         61.9794         9.80131 
        1.88497         61.1562          9.6131 
        1.90073           60.51         9.42919 
        1.91647         60.0148         9.25032 
        1.93218         59.0469         9.07653 
        1.94787         58.6126         8.90751 
        1.96363         57.7665         8.74218 
        1.97935         57.3283         8.58144 
        1.99499         56.4894          8.4257 
        2.01064         56.3154         8.27365 
         2.0264         55.0466         8.12444 
        2.04216         54.6238         7.97903 
        2.05781         53.9505         7.83814 
        2.07353         53.3467         7.70019 
        2.08928         52.7997          7.5653 
        2.10499          52.432         7.43404 
        2.12065         51.8308         7.30633 
        2.13633         51.5967         7.18154 
        2.15211          50.904          7.0589 
        2.16785         49.9568          6.9395 
        2.18349         49.6628         6.82365 
        2.19916         49.2334         6.71022 
        2.21489         48.6337         6.59903 
        2.23063         47.9803         6.49032 
         2.2463         47.5086         6.38457 
        2.26194         46.7812         6.28147 
        2.27765         46.3042         6.18014 
        2.29341         45.8612         6.08081 
        2.30914         45.3268          5.9839 
        2.32486         44.8031         5.88918 
        2.34061         44.4169         5.79637 
        2.35635         43.9636         5.70567 
        2.37203         43.4531         5.61725 
        2.38768         43.0041          5.5309 
        2.40339         42.7288         5.44608 
        2.41914         42.3374         5.36286 
        2.43483         41.5795          5.2817 
         2.4505         41.2718         5.20237 
        2.46622          40.962         5.12441 
        2.48195         40.5767         5.04807 
        2.49759         40.0136         4.97371 
        2.51328         39.4633         4.90066 
        2.52906         39.3376         4.82864 
        2.54479         38.6916         4.75836 
        2.56049         38.3836         4.68962 
        2.57618          37.921         4.62232 
        2.59189         37.6519         4.55625 
        2.60758         37.3133         4.49159 
        2.62325          36.838         4.42828 
        2.63898         36.5754         4.36598 
        2.65468         36.0601         4.30502 
        2.67044         35.7799         4.24498 
        2.68618         35.3758         4.18624 
        2.70184         34.9899         4.12885 
        2.71755         34.8312         4.07242 
        2.73329         34.3902         4.01696 
        2.74897              34         3.96272 
        2.76462         33.6409         3.90962 
        2.78034         33.3376         3.85728 
        2.79607         32.9617         3.80586 
        2.81179         32.7818         3.75544 
        2.82749         32.4617         3.70601 
        2.84321         31.9455         3.65741 
        2.85893         31.6952         3.60972 
        2.87462         31.3934         3.56296 
        2.89033         31.1723           3.517 
        2.90605         30.8913         3.47182 
        2.92176         30.6706         3.42746 
        2.93747         30.1882         3.38391 
        2.95318         29.8328         3.34112 
        2.96891         29.6878         3.29905 
        2.98456         29.2556         3.25791 
        3.00023         29.0785         3.21741 
        3.01596         28.7408         3.17748 
        3.03164         28.4568         3.13835 
        3.04738         28.3535         3.09978 
         3.0631         27.9886         3.06187 
        3.07883         27.6964          3.0246 
        3.09456          27.382         2.98796 
        3.11026          27.114           2.952 
        3.12596         26.9286         2.91663 
        3.14163         26.6851         2.88194 
        3.15734         26.3997         2.84773 
        3.17308         26.1874           2.814 
        3.18879         25.8929         2.78092 
        3.20447         25.6674         2.74842 
         3.2202         25.3934         2.71634 
         3.2359          25.105         2.68484 
        3.25157         25.0818         2.65392 
        3.26729         24.7913          2.6234 
        3.28304         24.5051         2.59331 
        3.29877         24.1914         2.56373 
        3.31446         24.1086         2.53468 
        3.33014          23.811         2.50611 
        3.34585         23.5726         2.47794 
        3.36158         23.4258         2.45017 
        3.37727         23.1171         2.42291 
        3.39294         22.9483          2.3961 
        3.40867         22.8238         2.36961 
        3.42439         22.5146         2.34353 
        3.44008         22.2859          2.3179 
        3.45578         22.0907         2.29263 
        3.47153         21.8936          2.2677 
        3.48724         21.6583         2.24318 
        3.50292         21.5132         2.21908 
        3.51859         21.3241         2.19536 
        3.53431          21.146         2.17191 
        3.55007         20.9157         2.14875 
        3.56577         20.7265         2.12602 
        3.58146         20.5636         2.10363 
        3.59719          20.325         2.08152 
        3.61292         20.1307         2.05974 
        3.62859         19.9862         2.03835 
        3.64429         19.8262         2.01723 
        3.66003         19.6752         1.99635 
        3.67578         19.4656         1.97577 
        3.69146         19.2748         1.95557 
        3.70712         19.0708         1.93568 
        3.72284         19.0497           1.916 
        3.73853         18.8094         1.89664 
        3.75422         18.5766         1.87753 
        3.76993         18.4283         1.85868 
        3.78564         18.2774         1.84009 
        3.80137         18.1084         1.82173 
        3.81707         17.9524         1.80367 
        3.83279         17.7743         1.78583 
        3.84853           17.62         1.76821 
        3.86424          17.498         1.75087 
        3.87992         17.3244         1.73378 
        3.89561         17.1792         1.71693 
        3.91134         17.0133         1.70026 
        3.92704         16.8701         1.68384 
        3.94273         16.7546         1.66766 
        3.95845         16.5689         1.65166 
        3.97418         16.4712         1.63587 
        3.98988         16.3132         1.62031 
        4.00554         16.1783         1.60499 
        4.02125         16.0037         1.58984 
        4.03698         15.9611         1.57485 
        4.05268         15.7422          1.5601 
        4.06839            15.6         1.54552 
         4.0841         15.4873         1.53114 
        4.09983         15.3439         1.51692 
        4.11555         15.1805         1.50289 
        4.13124         15.0942         1.48908 
        4.14693         14.9476         1.47543 
        4.16266         14.8467         1.46193 
        4.17839          14.708          1.4486 
        4.19408         14.5735         1.43547 
        4.20977         14.4893          1.4225 
        4.22551         14.3562         1.40966 
        4.24123         14.2505         1.39699 
        4.25691         14.0659         1.38452 
        4.27259         13.9773         1.37219 
        4.28831         13.8553         1.35999 
        4.30404         13.7543         1.34793 
        4.31974         13.6114         1.33605 
        4.33543         13.5197         1.32431 
        4.35116         13.4193         1.31269 
        4.36688         13.2776         1.30122 
        4.38255          13.198         1.28992 
        4.39825         13.0639         1.27874 
        4.41398         13.0339         1.26767 
         4.4297         12.8658         1.25674 
        4.44541         12.7242         1.24595 
        4.46111         12.6582         1.23529 
        4.47683         12.5581         1.22475 
        4.49251         12.4619         1.21435 
        4.50819         12.3851         1.20408 
         4.5239         12.2954         1.19392 
        4.53962         12.1508         1.18386 
        4.55535         12.0767         1.17391 
        4.57106         11.9538         1.16409 
        4.58678         11.8586         1.15439 
         4.6025         11.7898         1.14479 
        4.61821         11.6787          1.1353 
        4.63391         11.5867         1.12594 
         4.6496         11.5092         1.11669 
        4.66532         11.4165         1.10752 
        4.68103         11.3187         1.09847 
        4.69673         11.2251         1.08953 
        4.71241         11.1014         1.08069 
        4.72811          11.024         1.07194 
        4.74384         10.9587         1.06328 
        4.75955         10.8707         1.05472 
        4.77525         10.7764         1.04627 
        4.79096         10.7344          1.0379 
        4.80669          10.614         1.02962 
         4.8224         10.5497         1.02144 
        4.83809         10.4744         1.01335 
        4.85379         10.3725         1.00535 
         4.8695          10.318        0.997435 
        4.88521         10.2402        0.989605 
        4.90093         10.1396         0.98186 
        4.91663         10.0657        0.974205 
        4.93234         10.0048        0.966624 
        4.94807         9.91826         0.95912 
        4.96377         9.83291         0.95171 
        4.97943         9.75021        0.944395 
        4.99514          9.6945        0.937138 
        5.01086         9.62192        0.929954 
        5.02654         9.55192        0.922863 
        5.04227         9.48557        0.915826 
          5.058          9.3793        0.908861 
        5.07371         9.33967        0.901982 
        5.08942         9.28059        0.895173 
        5.10513         9.20011        0.888436 
        5.12084         9.13739        0.881764 
        5.13656         9.06826        0.875164 
        5.15225         8.98772        0.868643 
        5.16796         8.92644        0.862178 
        5.18369         8.87367        0.855774 
         5.1994         8.79006        0.849447 
        5.21509         8.72009        0.843191 
        5.23079         8.67208        0.836991 
        5.24649         8.60532        0.830858 
        5.26217         8.53899        0.824792 
        5.27788         8.46793        0.818779 
        5.29359         8.41153        0.812825 
        5.30933         8.36261        0.806922 
        5.32504         8.30238        0.801088 
        5.34073          8.2298        0.795319 
        5.35646         8.17913        0.789596 
        5.37218         8.12233        0.783928 
        5.38789         8.06396        0.778326 
        5.40357         8.01252        0.772786 
        5.41929         7.95407        0.767287 
        5.43502         7.89428        0.761842 
         5.4507         7.83085        0.756464 
        5.46639         7.78425        0.751137 
        5.48212         7.72801        0.745849 
        5.49786         7.70222        0.740607 
        5.51353         7.61028        0.735441 
        5.52921         7.57678         0.73032 
        5.54495         7.50108        0.725234 
        5.56066         7.45015        0.720201 
        5.57637         7.39798        0.715218 
        5.59207         7.36754        0.710286 
        5.60778         7.27877          0.7054 
        5.62346         7.24517        0.700567 
        5.63916         7.20544        0.695775 
        5.65487          7.1546        0.691026 
         5.6706         7.09983        0.686316 
        5.68633         7.04825        0.681648 
        5.70203         7.00544        0.677034 
        5.71773         6.96674        0.672464 
        5.73344         6.91062        0.667934 
        5.74916         6.86272        0.663442 
        5.76486          6.8328        0.658998 
        5.78054         6.77927        0.654602 
        5.79626         6.72489        0.650234 
          5.812         6.67518        0.645902 
         5.8277          6.6297        0.641623 
        5.84339         6.59079        0.637382 
        5.85911         6.54085        0.633172 
        5.87484         6.50622        0.629002 
        5.89053         6.45369        0.624877 
        5.90623         6.41006        0.620788 
        5.92195         6.37111        0.616729 
        5.93767         6.33903        0.612709 
        5.95336         6.27744        0.608731 
        5.96905         6.25477        0.604791 
        5.98476         6.21589         0.60088 
        6.00048         6.15946        0.597003 
        6.01617         6.12568        0.593166 
        6.03185         6.08282        0.589367 
        6.04756         6.04687        0.585593 
        6.06331         5.99482        0.581844 
        6.07903         5.96975        0.578136 
        6.09473         5.92909        0.574465 
        6.11044         5.89003        0.570822 
        6.12616         5.85478        0.567211 
        6.14186          5.8114        0.563636 
        6.15755          5.7759        0.560092 
        6.17326          5.7383        0.556576 
        6.18898           5.702        0.553089 
        6.20467         5.65899        0.549639 
        6.22036         5.62911        0.546218 
         6.2361         5.59242        0.542818 
         6.2518         5.56245        0.539452 
        6.26748         5.51816        0.536122 
        6.28319         5.47949        0.532812 
        6.29893         5.44865        0.529527 
        6.31463         5.42495        0.526276 
        6.33033         5.37965        0.523053 
        6.34604         5.35172        0.519855 
        6.36177         5.31748        0.516681 
        6.37747         5.29122         0.51354 
