# k  (h/Mpc)    Pcb(k)  (Mpc/h)^3    Pcb_linear(k) (Mpc/h)^3   ShotnoiseSubtracted = true
      0.0200456          1573.4          1598.9 
      0.0350414         1204.61         1215.52 
      0.0492313         908.596         906.784 
      0.0637834         779.494         772.859 
      0.0800726         631.374         627.184 
       0.096163         458.389         461.088 
       0.111083         367.388         371.658 
       0.126058         335.312         333.877 
       0.142273          289.62         286.672 
       0.158546         232.605         228.207 
        0.17375         193.286         193.409 
       0.188953         179.675         176.692 
       0.204907         165.937         157.878 
       0.220756         139.271         134.393 
        0.23588         121.858         117.398 
         0.2514         109.772          107.31 
       0.267535         101.335         97.8179 
       0.283568         90.9151         86.7395 
       0.299022         82.4744         77.5729 
       0.314451         74.1855         71.2059 
       0.330372         69.2573         65.6888 
       0.346141          63.168         59.9029 
       0.361624         58.5154         54.6409 
       0.377134         54.9944         50.4554 
       0.392932          49.045          46.881 
       0.408854         47.2822         43.3942 
       0.424564         44.2904         40.1333 
       0.440253         40.9085         37.3258 
       0.455999         38.7407         34.8936 
       0.471626         36.4252          32.653 
        0.48727         34.4781         30.5366 
       0.502856         32.2901         28.6282 
       0.518488         30.9339         26.9257 
       0.534347         29.6608         25.3403 
       0.550082         27.1939         23.8725 
       0.565732         25.2884         22.5231 
       0.581496         24.8487          21.285 
       0.597222         23.9664         20.1476 
       0.612804          22.366         19.0985 
       0.628434         21.5821         18.1179 
       0.644267            20.9         17.1976 
       0.660051         19.7844         16.3485 
       0.675724         18.8102          15.563 
       0.691403         18.2225         14.8289 
       0.707174          17.477         14.1384 
       0.722871         16.7966          13.495 
        0.73838         16.2068          12.899 
       0.754018         15.6399         12.3348 
       0.769845         14.9948         11.7985 
        0.78569         14.5458          11.294 
       0.801365          13.977         10.8244 
       0.817031         13.5817         10.3822 
       0.832809         13.2384         9.96236 
       0.848511         12.4613           9.568 
       0.864097         12.1603         9.19807 
       0.879701         11.8051         8.84768 
       0.895507         11.3359         8.51171 
       0.911279         11.1637         8.19418 
        0.92691         10.8031         7.89575 
       0.942635         10.3403         7.61078 
       0.958396         10.0551          7.3395 
       0.974128         9.81538         7.08215 
       0.989692          9.6967         6.83988 
        1.00528         9.33199         6.60876 
        1.02113         8.97884         6.38485 
        1.03692         8.82459         6.17231 
        1.05264         8.57351         5.97057 
        1.06832         8.39218          5.7783 
        1.08405         8.07482         5.59411 
        1.09979         7.90782         5.41797 
        1.11537           7.769         5.25127 
        1.13105          7.5647          5.0907 
        1.14679         7.40754         4.93632 
        1.16256         7.19085         4.78813 
        1.17828         7.08499         4.64661 
        1.19395         6.87238         4.51138 
         1.2097         6.67251         4.38091 
        1.22537         6.52441         4.25631 
          1.241         6.41857         4.13701 
        1.25666         6.36355         4.02205 
        1.27241         6.14304         3.91099 
        1.28819         5.99714         3.80399 
        1.30392         5.91221         3.70136 
        1.31957         5.79206         3.60303 
        1.33529         5.67416         3.50797 
        1.35108         5.53685         3.41601 
        1.36674         5.48156         3.32805 
         1.3824         5.28221         3.24331 
        1.39811         5.21919         3.16128 
        1.41389         5.13873         3.08182 
        1.42964         5.04217         3.00526 
        1.44531         4.95544         2.93171 
        1.46101         4.86083          2.8605 
        1.47667           4.743         2.79191 
        1.49229         4.70449         2.72577 
        1.50793         4.57684         2.66174 
        1.52367         4.55214         2.59937 
        1.53953         4.42826         2.53862 
        1.55526         4.34757         2.48031 
        1.57092         4.30459         2.42411 
        1.58662         4.20919         2.36953 
        1.60235         4.14485         2.31656 
        1.61809         4.07912         2.26519 
        1.63369         4.01667         2.21587 
        1.64941         3.94916         2.16767 
        1.66519         3.90001         2.12076 
        1.68085         3.81195         2.07559 
        1.69652         3.75578         2.03173 
        1.71228         3.70687         1.98892 
        1.72806         3.63909         1.94731 
        1.74368         3.58717         1.90733 
        1.75933         3.53429         1.86841 
        1.77505         3.48545         1.83041 
        1.79081         3.42218         1.79341 
         1.8065         3.38117          1.7576 
        1.82218         3.34521         1.72282 
        1.83797         3.31181         1.68875 
        1.85367         3.25767          1.6558 
        1.86928         3.21113         1.62394 
        1.88497         3.15115         1.59276 
        1.90073          3.1055         1.56228 
        1.91647         3.06591         1.53265 
        1.93218         3.04391         1.50385 
        1.94787         2.99823         1.47585 
        1.96363         2.95088         1.44846 
        1.97935         2.90716         1.42182 
        1.99499           2.854         1.39602 
        2.01064         2.83456         1.37083 
         2.0264          2.8144         1.34611 
        2.04216         2.77306         1.32201 
        2.05781         2.73098         1.29867 
        2.07353         2.70345         1.27581 
        2.08928         2.67172         1.25346 
        2.10499         2.63744         1.23172 
        2.12065         2.62099         1.21056 
        2.13633         2.57349         1.18988 
        2.15211         2.54172         1.16956 
        2.16785          2.5148         1.14978 
        2.18349         2.49209         1.13058 
        2.19916         2.44054         1.11179 
        2.21489         2.42282         1.09337 
        2.23063         2.39334         1.07535 
         2.2463         2.37518         1.05783 
        2.26194         2.33721         1.04075 
        2.27765         2.31545         1.02396 
        2.29341         2.29515         1.00751 
        2.30914         2.27181        0.991448 
        2.32486          2.2523        0.975754 
        2.34061         2.21636        0.960377 
        2.35635         2.18496        0.945349 
        2.37203         2.17763        0.930699 
        2.38768         2.15534        0.916393 
        2.40339         2.13615        0.902339 
        2.41914          2.1072        0.888551 
        2.43483         2.08717        0.875103 
         2.4505         2.05644        0.861959 
        2.46622         2.04532        0.849043 
        2.48195         2.02563        0.836394 
        2.49759         2.00397        0.824073 
        2.51328         1.97817        0.811971 
        2.52906         1.96735        0.800039 
        2.54479          1.9456        0.788393 
        2.56049         1.92448        0.777004 
        2.57618         1.91044        0.765853 
        2.59189         1.89693        0.754906 
        2.60758         1.86854        0.744193 
        2.62325         1.85642        0.733703 
        2.63898         1.83667        0.723381 
        2.65468          1.8208        0.713282 
        2.67044         1.80804        0.703334 
        2.68618          1.7822        0.693601 
        2.70184         1.76851        0.684093 
        2.71755         1.75314        0.674742 
        2.73329         1.73844        0.665553 
        2.74897         1.72418        0.656567 
        2.76462         1.70662        0.647769 
        2.78034          1.6997        0.639098 
        2.79607         1.67635        0.630577 
        2.81179         1.66068        0.622224 
        2.82749         1.65229        0.614033 
        2.84321         1.63837        0.605982 
        2.85893         1.62092        0.598079 
        2.87462         1.61176        0.590333 
        2.89033         1.58892        0.582717 
        2.90605         1.57958        0.575232 
        2.92176         1.56851        0.567883 
        2.93747         1.55689        0.560667 
        2.95318         1.54354        0.553577 
        2.96891         1.53009        0.546607 
        2.98456         1.52259         0.53979 
        3.00023         1.50671         0.53308 
        3.01596         1.49962        0.526464 
        3.03164         1.48794        0.519981 
        3.04738         1.46493         0.51359 
         3.0631         1.45829        0.507309 
        3.07883         1.44978        0.501134 
        3.09456         1.44117        0.495064 
        3.11026         1.42727        0.489105 
        3.12596         1.41723        0.483245 
        3.14163         1.40603        0.477496 
        3.15734         1.39832        0.471829 
        3.17308         1.38525         0.46624 
        3.18879         1.37632        0.460759 
        3.20447         1.36355        0.455374 
         3.2202         1.35547         0.45006 
         3.2359         1.34806        0.444841 
        3.25157         1.33494        0.439718 
        3.26729         1.32785        0.434661 
        3.28304         1.31683        0.429674 
        3.29877         1.30519        0.424773 
        3.31446         1.29824         0.41996 
        3.33014         1.29385        0.415227 
        3.34585         1.28201         0.41056 
        3.36158         1.26786        0.405959 
        3.37727         1.26672        0.401443 
        3.39294         1.25693        0.397001 
        3.40867         1.24765         0.39261 
        3.42439         1.23695         0.38829 
        3.44008         1.23078        0.384043 
        3.45578         1.22403        0.379857 
        3.47153           1.213        0.375726 
        3.48724         1.20671        0.371663 
        3.50292         1.20292        0.367671 
        3.51859         1.19337         0.36374 
        3.53431         1.18604        0.359855 
        3.55007         1.18076        0.356017 
        3.56577         1.17142        0.352252 
        3.58146         1.16223        0.348542 
        3.59719         1.15695        0.344879 
        3.61292         1.15149         0.34127 
        3.62859         1.13919        0.337726 
        3.64429         1.13711        0.334227 
        3.66003         1.12779        0.330767 
        3.67578         1.11968        0.327358 
        3.69146         1.11519         0.32401 
        3.70712         1.10425        0.320715 
        3.72284         1.10355        0.317455 
        3.73853         1.09204        0.314246 
        3.75422         1.08585        0.311081 
        3.76993         1.08412        0.307957 
        3.78564         1.07653        0.304877 
        3.80137         1.06696        0.301836 
        3.81707         1.06444        0.298842 
        3.83279         1.05513        0.295887 
        3.84853         1.04849        0.292968 
        3.86424         1.04529        0.290094 
        3.87992         1.03935        0.287263 
        3.89561         1.03288        0.284471 
        3.91134          1.0261         0.28171 
        3.92704         1.01841        0.278989 
        3.94273          1.0155        0.276308 
        3.95845         1.00912        0.273657 
        3.97418         1.00233         0.27104 
        3.98988         0.99545        0.268462 
        4.00554        0.991775        0.265925 
        4.02125        0.982999        0.263413 
        4.03698        0.972232        0.260931 
        4.05268        0.966072        0.258486 
        4.06839        0.958213        0.256071 
         4.0841        0.954065        0.253688 
        4.09983        0.947598        0.251333 
        4.11555        0.941007        0.249008 
        4.13124        0.933854         0.24672 
        4.14693        0.926984        0.244459 
        4.16266        0.921159        0.242221 
        4.17839        0.916819        0.240013 
        4.19408        0.910061        0.237837 
        4.20977        0.904175        0.235688 
        4.22551        0.898762        0.233561 
        4.24123        0.891497        0.231462 
        4.25691        0.887454        0.229395 
        4.27259        0.881268        0.227353 
        4.28831        0.875546        0.225332 
        4.30404        0.871394        0.223334 
        4.31974        0.864248        0.221364 
        4.33543        0.860778         0.21942 
        4.35116        0.856579        0.217495 
        4.36688        0.850206        0.215593 
        4.38255        0.847627        0.213722 
        4.39825        0.843409        0.211869 
        4.41398        0.836597        0.210035 
         4.4297        0.831435        0.208224 
        4.44541         0.82849        0.206436 
        4.46111        0.826132         0.20467 
        4.47683        0.820566        0.202923 
        4.49251        0.817078        0.201201 
        4.50819        0.812317        0.199499 
         4.5239        0.809841        0.197815 
        4.53962        0.806063        0.196148 
        4.55535        0.802958          0.1945 
        4.57106        0.798011        0.192874 
        4.58678        0.794252        0.191266 
         4.6025        0.791006        0.189676 
        4.61821        0.788635        0.188104 
        4.63391        0.782482        0.186553 
         4.6496        0.779391        0.185019 
        4.66532        0.778326        0.183501 
        4.68103        0.774092        0.182001 
        4.69673        0.772012        0.180519 
        4.71241        0.766132        0.179055 
        4.72811        0.766545        0.177606 
        4.74384        0.761795         0.17617 
        4.75955        0.759349        0.174753 
        4.77525        0.755724        0.173352 
        4.79096         0.75463        0.171965 
        4.80669        0.751076        0.170593 
         4.8224        0.749934        0.169238 
        4.83809        0.745936        0.167898 
        4.85379        0.745501        0.166573 
         4.8695        0.742685        0.165261 
        4.88521        0.738243        0.163964 
        4.90093        0.737552         0.16268 
        4.91663        0.733762        0.161412 
        4.93234        0.731628        0.160156 
        4.94807        0.730645        0.158913 
        4.96377        0.728699        0.157685 
        4.97943         0.72698        0.156473 
        4.99514        0.722628        0.155271 
        5.01086        0.722921         0.15408 
        5.02654         0.72061        0.152905 
        5.04227        0.718777         0.15174 
          5.058        0.716123        0.150585 
        5.07371        0.714291        0.149446 
        5.08942        0.713536        0.148318 
        5.10513        0.711286        0.147201 
        5.12084        0.710085        0.146096 
        5.13656        0.708319        0.145002 
        5.15225        0.707521        0.143922 
        5.16796        0.704515        0.142851 
        5.18369        0.704938         0.14179 
         5.1994        0.704219        0.140742 
        5.21509        0.701706        0.139705 
        5.23079        0.700616        0.138678 
        5.24649        0.699604        0.137662 
        5.26217        0.697139        0.136657 
        5.27788        0.697328         0.13566 
        5.29359        0.696501        0.134674 
        5.30933        0.694861        0.133696 
        5.32504        0.694253        0.132729 
        5.34073        0.692378        0.131773 
        5.35646        0.692202        0.130825 
        5.37218        0.691617        0.129886 
        5.38789        0.689354        0.128958 
        5.40357         0.68957         0.12804 
        5.41929        0.689598        0.127129 
        5.43502        0.687851        0.126227 
         5.4507        0.688092        0.125335 
        5.46639        0.686635        0.124453 
        5.48212        0.683671        0.123577 
        5.49786        0.684078        0.122708 
        5.51353        0.683609        0.121852 
        5.52921        0.682087        0.121004 
        5.54495        0.682311        0.120161 
        5.56066        0.681469        0.119327 
        5.57637         0.68031        0.118502 
        5.59207        0.680961        0.117684 
        5.60778        0.680607        0.116875 
        5.62346        0.678677        0.116074 
        5.63916        0.678908         0.11528 
        5.65487        0.678429        0.114493 
         5.6706        0.679206        0.113713 
        5.68633        0.677372         0.11294 
        5.70203        0.677209        0.112175 
        5.71773        0.676101        0.111418 
        5.73344        0.674811        0.110667 
        5.74916        0.676301        0.109923 
        5.76486        0.675619        0.109187 
        5.78054        0.674903        0.108458 
        5.79626        0.674647        0.107735 
          5.812         0.67508        0.107017 
         5.8277        0.673829        0.106308 
        5.84339        0.673129        0.105605 
        5.85911        0.672697        0.104908 
        5.87484        0.672382        0.104217 
        5.89053        0.671317        0.103533 
        5.90623        0.671565        0.102856 
        5.92195         0.67123        0.102183 
        5.93767        0.671257        0.101517 
        5.95336        0.670335        0.100858 
        5.96905        0.669413        0.100205 
        5.98476        0.669546       0.0995574 
        6.00048        0.670977        0.098915 
        6.01617        0.669928       0.0982792 
        6.03185        0.669157       0.0976499 
        6.04756        0.668576       0.0970245 
        6.06331        0.669617       0.0964034 
        6.07903        0.669431       0.0957891 
        6.09473         0.67033       0.0951807 
        6.11044        0.668642       0.0945772 
        6.12616        0.668595        0.093979 
        6.14186        0.667381       0.0933866 
        6.15755        0.667778       0.0927994 
        6.17326        0.668022       0.0922169 
        6.18898        0.666933       0.0916391 
        6.20467         0.66865       0.0910674 
        6.22036         0.66587       0.0905007 
         6.2361        0.666462       0.0899373 
         6.2518        0.665654       0.0893796 
        6.26748        0.666103       0.0888279 
        6.28319        0.668192       0.0882795 
        6.29893        0.665901       0.0877352 
        6.31463        0.666168       0.0871965 
        6.33033        0.665209       0.0866625 
        6.34604        0.664851       0.0861327 
        6.36177        0.664658       0.0856068 
        6.37747        0.666242       0.0850863 
