# k  (h/Mpc)    Pcb(k)  (Mpc/h)^3    Pcb_linear(k) (Mpc/h)^3   ShotnoiseSubtracted = true
      0.0200456         8479.07         8650.56 
      0.0350414         6396.13         6576.39 
      0.0492313         4865.47            4906 
      0.0637834          4239.3         4181.42 
      0.0800726         3424.29         3393.28 
       0.096163          2434.2         2494.64 
       0.111083         1948.92          2010.8 
       0.126058         1814.51         1806.39 
       0.142273         1579.41         1550.99 
       0.158546         1316.04         1234.67 
        0.17375         1066.74         1046.41 
       0.188953            1029         955.962 
       0.204907         972.217         854.175 
       0.220756         825.993          727.11 
        0.23588         727.743         635.164 
         0.2514         641.204         580.582 
       0.267535         621.606         529.227 
       0.283568         565.908          469.29 
       0.299022         525.859         419.695 
       0.314451         491.428         385.248 
       0.330372         455.405         355.398 
       0.346141         413.596         324.094 
       0.361624         396.691         295.625 
       0.377134         371.906         272.981 
       0.392932         349.276         253.642 
       0.408854         335.826         234.777 
       0.424564         321.582         217.134 
       0.440253         307.722         201.945 
       0.455999         290.509         188.786 
       0.471626         269.386         176.663 
        0.48727         263.367         165.213 
       0.502856         253.885         154.888 
       0.518488          249.93         145.677 
       0.534347         236.677         137.099 
       0.550082         221.661         129.158 
       0.565732         217.411         121.858 
       0.581496         207.282         115.159 
       0.597222         201.679         109.005 
       0.612804         193.634         103.329 
       0.628434         188.625         98.0237 
       0.644267          182.37         93.0449 
       0.660051         179.923         88.4509 
       0.675724         175.828         84.2009 
       0.691403         170.658         80.2291 
       0.707174          163.41         76.4933 
       0.722871          161.96         73.0125 
        0.73838         158.796         69.7877 
       0.754018         152.902         66.7352 
       0.769845         149.674         63.8339 
        0.78569         146.691         61.1045 
       0.801365         143.029         58.5637 
       0.817031         138.062         56.1713 
       0.832809         136.118         53.8997 
       0.848511         132.654         51.7661 
       0.864097         129.388         49.7646 
       0.879701         127.608         47.8689 
       0.895507         124.399         46.0512 
       0.911279         122.922         44.3333 
        0.92691         120.369         42.7187 
       0.942635         117.804         41.1769 
       0.958396         117.323         39.7091 
       0.974128         114.046         38.3168 
       0.989692         111.224          37.006 
        1.00528         109.197         35.7556 
        1.02113         108.002         34.5442 
        1.03692          104.44         33.3943 
        1.05264         104.196         32.3028 
        1.06832         101.589         31.2625 
        1.08405          100.37          30.266 
        1.09979          99.618          29.313 
        1.11537         96.2774         28.4111 
        1.13105         96.4773         27.5424 
        1.14679         95.0607         26.7071 
        1.16256         93.5522         25.9054 
        1.17828         91.0228         25.1397 
        1.19395         90.4917          24.408 
         1.2097         87.9816         23.7022 
        1.22537         88.2248         23.0281 
          1.241         86.0599         22.3826 
        1.25666         84.4992         21.7606 
        1.27241         83.6927         21.1597 
        1.28819         82.2899         20.5808 
        1.30392         81.0211         20.0256 
        1.31957         80.1261         19.4936 
        1.33529         78.8913         18.9793 
        1.35108         78.3575         18.4817 
        1.36674         77.3154         18.0059 
         1.3824         75.7959         17.5474 
        1.39811         75.2385         17.1036 
        1.41389         74.0174         16.6737 
        1.42964         73.1558         16.2595 
        1.44531          71.899         15.8615 
        1.46101         70.8195         15.4763 
        1.47667         70.5786         15.1051 
        1.49229          69.431         14.7473 
        1.50793          68.674         14.4009 
        1.52367         67.6935         14.0635 
        1.53953         66.9979         13.7348 
        1.55526         66.1532         13.4193 
        1.57092         65.8555         13.1152 
        1.58662         64.7137           12.82 
        1.60235         64.1103         12.5333 
        1.61809         63.1362         12.2555 
        1.63369         62.0698         11.9886 
        1.64941         61.4533         11.7278 
        1.66519         60.5534          11.474 
        1.68085         59.9721         11.2296 
        1.69652         59.1936         10.9924 
        1.71228         58.7457         10.7607 
        1.72806         58.3095         10.5356 
        1.74368         57.4218         10.3193 
        1.75933         56.8681         10.1087 
        1.77505         56.2504         9.90312 
        1.79081         55.4895         9.70293 
         1.8065         54.9862         9.50921 
        1.82218         54.1996         9.32102 
        1.83797          53.663         9.13669 
        1.85367         52.8519         8.95843 
        1.86928         52.4901         8.78606 
        1.88497         51.9354         8.61734 
        1.90073         51.4577         8.45248 
        1.91647         50.8922         8.29214 
        1.93218         50.1008         8.13634 
        1.94787         49.8024         7.98484 
        1.96363         49.1252         7.83663 
        1.97935         48.6331         7.69254 
        1.99499         47.9925         7.55294 
        2.01064          47.751         7.41663 
         2.0264         46.9068         7.28288 
        2.04216         46.3748         7.15253 
        2.05781         45.8341         7.02623 
        2.07353         45.3606         6.90257 
        2.08928          45.059         6.78166 
        2.10499         44.5714           6.664 
        2.12065         44.0925         6.54951 
        2.13633         43.9125         6.43765 
        2.15211         43.1403         6.32771 
        2.16785         42.4648         6.22068 
        2.18349         42.2365         6.11683 
        2.19916         41.9032         6.01515 
        2.21489         41.2306         5.91548 
        2.23063         40.8945         5.81803 
         2.2463         40.4337         5.72323 
        2.26194         39.9616         5.63081 
        2.27765         39.5591         5.53998 
        2.29341         39.1873         5.45094 
        2.30914         38.8418         5.36406 
        2.32486         38.2969         5.27915 
        2.34061         38.0325         5.19596 
        2.35635         37.6354         5.11465 
        2.37203         37.2968         5.03539 
        2.38768         36.8598         4.95799 
        2.40339         36.6551         4.88196 
        2.41914         36.2902         4.80736 
        2.43483         35.6719          4.7346 
         2.4505         35.4199         4.66349 
        2.46622         35.1594         4.59361 
        2.48195         34.8114         4.52517 
        2.49759         34.3747         4.45851 
        2.51328         33.9664         4.39304 
        2.52906          33.816         4.32848 
        2.54479         33.3614         4.26547 
        2.56049         32.9934         4.20385 
        2.57618         32.5905         4.14352 
        2.59189         32.4102         4.08429 
        2.60758         32.1957         4.02633 
        2.62325         31.6701         3.96958 
        2.63898         31.5422         3.91373 
        2.65468         31.0475         3.85909 
        2.67044         30.8463         3.80527 
        2.68618         30.5032         3.75261 
        2.70184         30.2185         3.70117 
        2.71755         30.0409         3.65058 
        2.73329         29.6893         3.60086 
        2.74897         29.3432         3.55225 
        2.76462         29.1065         3.50465 
        2.78034         28.8851         3.45773 
        2.79607         28.5353         3.41163 
        2.81179         28.3607         3.36644 
        2.82749         28.0438         3.32212 
        2.84321         27.6779         3.27856 
        2.85893         27.4386         3.23581 
        2.87462         27.1839          3.1939 
        2.89033         27.0141          3.1527 
        2.90605         26.7916         3.11219 
        2.92176          26.524         3.07243 
        2.93747         26.2702          3.0334 
        2.95318          25.882         2.99503 
        2.96891         25.7595         2.95733 
        2.98456         25.3659         2.92044 
        3.00023         25.2546         2.88414 
        3.01596         24.9812         2.84835 
        3.03164            24.7         2.81327 
        3.04738         24.5354         2.77869 
         3.0631         24.3031         2.74471 
        3.07883         24.0697          2.7113 
        3.09456         23.8513         2.67846 
        3.11026         23.6345         2.64622 
        3.12596         23.4046         2.61452 
        3.14163         23.2964         2.58341 
        3.15734         23.0106         2.55275 
        3.17308         22.8276         2.52252 
        3.18879         22.5807         2.49286 
        3.20447          22.361         2.46373 
         3.2202         22.1496         2.43497 
         3.2359         21.9379         2.40674 
        3.25157         21.8808         2.37902 
        3.26729         21.6817         2.35166 
        3.28304         21.4013         2.32468 
        3.29877          21.082         2.29817 
        3.31446         21.0167         2.27213 
        3.33014         20.8074         2.24652 
        3.34585         20.5132         2.22127 
        3.36158          20.468         2.19637 
        3.37727         20.2005         2.17194 
        3.39294         19.9774         2.14791 
        3.40867         19.8559         2.12415 
        3.42439         19.6411         2.10078 
        3.44008         19.4305          2.0778 
        3.45578         19.2951         2.05516 
        3.47153         19.1459          2.0328 
        3.48724         18.9646         2.01082 
        3.50292         18.8065         1.98922 
        3.51859         18.6236         1.96795 
        3.53431         18.4511         1.94693 
        3.55007         18.3043         1.92617 
        3.56577         18.1478          1.9058 
        3.58146         17.9997         1.88573 
        3.59719         17.7988         1.86591 
        3.61292         17.6569         1.84638 
        3.62859         17.4669         1.82721 
        3.64429         17.3314         1.80828 
        3.66003         17.1972         1.78956 
        3.67578         17.0732         1.77111 
        3.69146         16.8797           1.753 
        3.70712         16.7445         1.73518 
        3.72284         16.6508         1.71754 
        3.73853          16.521         1.70018 
        3.75422         16.2652         1.68305 
        3.76993         16.1617         1.66615 
        3.78564         16.0241         1.64949 
        3.80137         15.8788         1.63303 
        3.81707          15.748         1.61684 
        3.83279          15.552         1.60085 
        3.84853         15.4897         1.58505 
        3.86424         15.3149         1.56951 
        3.87992         15.1934         1.55419 
        3.89561         15.0983         1.53908 
        3.91134         14.9591         1.52414 
        3.92704         14.7878         1.50943 
        3.94273         14.7038         1.49492 
        3.95845          14.583         1.48057 
        3.97418         14.4773         1.46642 
        3.98988         14.3319         1.45247 
        4.00554         14.1784         1.43874 
        4.02125         14.0265         1.42515 
        4.03698         13.9964         1.41172 
        4.05268         13.8443          1.3985 
        4.06839         13.7402         1.38543 
         4.0841         13.6272         1.37254 
        4.09983         13.4917         1.35979 
        4.11555         13.3723         1.34722 
        4.13124         13.2476         1.33484 
        4.14693         13.1754          1.3226 
        4.16266         13.0702          1.3105 
        4.17839         12.9393         1.29855 
        4.19408         12.8442         1.28678 
        4.20977         12.7275         1.27515 
        4.22551         12.6469         1.26364 
        4.24123         12.5366         1.25229 
        4.25691         12.4069          1.2411 
        4.27259         12.3329         1.23006 
        4.28831         12.2125         1.21912 
        4.30404         12.1061         1.20831 
        4.31974         12.0123         1.19765 
        4.33543         11.9167         1.18714 
        4.35116          11.813         1.17672 
        4.36688          11.697         1.16643 
        4.38255         11.6515         1.15631 
        4.39825          11.558         1.14628 
        4.41398          11.446         1.13636 
         4.4297         11.3404         1.12656 
        4.44541         11.2327         1.11689 
        4.46111         11.1676         1.10733 
        4.47683          11.091         1.09788 
        4.49251         10.9991         1.08856 
        4.50819         10.9142         1.07936 
         4.5239         10.8385         1.07025 
        4.53962         10.7525         1.06123 
        4.55535          10.635         1.05231 
        4.57106         10.5523         1.04351 
        4.58678         10.4569         1.03481 
         4.6025         10.3941         1.02621 
        4.61821         10.3147         1.01771 
        4.63391         10.2212         1.00931 
         4.6496         10.1617         1.00102 
        4.66532         10.0603        0.992803 
        4.68103         9.98687        0.984686 
        4.69673          9.9073        0.976668 
        4.71241         9.82078        0.968749 
        4.72811         9.76082        0.960905 
        4.74384          9.6806        0.953139 
        4.75955         9.61199        0.945472 
        4.77525         9.53708        0.937893 
        4.79096          9.4846         0.93039 
        4.80669         9.41072        0.922966 
         4.8224         9.34887        0.915632 
        4.83809         9.25553        0.908386 
        4.85379         9.16111        0.901215 
         4.8695          9.1273        0.894117 
        4.88521         9.04239        0.887098 
        4.90093         8.99257        0.880155 
        4.91663         8.90309        0.873293 
        4.93234         8.84632        0.866497 
        4.94807         8.76396         0.85977 
        4.96377          8.7146        0.853128 
        4.97943         8.65141        0.846571 
        4.99514         8.59069        0.840066 
        5.01086         8.51165        0.833626 
        5.02654         8.43146         0.82727 
        5.04227         8.40574        0.820962 
          5.058         8.33126        0.814717 
        5.07371         8.28978        0.808551 
        5.08942         8.20581        0.802448 
        5.10513         8.13434        0.796408 
        5.12084         8.09356        0.790428 
        5.13656         8.03624        0.784511 
        5.15225         7.95937        0.778665 
        5.16796         7.90868         0.77287 
        5.18369         7.85269         0.76713 
         5.1994         7.77927        0.761458 
        5.21509         7.72104         0.75585 
        5.23079         7.66839        0.750292 
        5.24649         7.61271        0.744795 
        5.26217         7.57016        0.739357 
        5.27788         7.50627        0.733967 
        5.29359         7.46266        0.728629 
        5.30933         7.43005        0.723338 
        5.32504         7.36087        0.718109 
        5.34073         7.29793        0.712937 
        5.35646         7.25281        0.707807 
        5.37218         7.18437        0.702726 
        5.38789         7.15818        0.697704 
        5.40357         7.09776        0.692738 
        5.41929         7.04284        0.687809 
        5.43502         6.98851        0.682928 
         5.4507         6.95407        0.678106 
        5.46639         6.89807        0.673331 
        5.48212         6.86807        0.668592 
        5.49786         6.81288        0.663892 
        5.51353          6.7604        0.659262 
        5.52921         6.71755        0.654671 
        5.54495         6.66564        0.650111 
        5.56066         6.61733          0.6456 
        5.57637         6.56862        0.641133 
        5.59207         6.52519        0.636712 
        5.60778         6.47619        0.632332 
        5.62346          6.4348        0.627999 
        5.63916         6.39016        0.623704 
        5.65487         6.35154        0.619447 
         5.6706         6.31613        0.615225 
        5.68633         6.26705        0.611041 
        5.70203         6.22032        0.606905 
        5.71773          6.1937        0.602808 
        5.73344         6.13679        0.598747 
        5.74916          6.0918        0.594721 
        5.76486         6.05718        0.590737 
        5.78054         6.02105        0.586796 
        5.79626         5.97703        0.582881 
          5.812         5.93445        0.578997 
         5.8277         5.88763        0.575161 
        5.84339         5.86449         0.57136 
        5.85911         5.81683        0.567586 
        5.87484         5.78123        0.563847 
        5.89053         5.73495         0.56015 
        5.90623         5.70979        0.556485 
        5.92195         5.66677        0.552846 
        5.93767         5.61216        0.549242 
        5.95336         5.59001        0.545676 
        5.96905         5.55417        0.542144 
        5.98476         5.52666        0.538639 
        6.00048         5.48863        0.535163 
        6.01617         5.44325        0.531723 
        6.03185         5.41549        0.528318 
        6.04756         5.37924        0.524935 
        6.06331         5.35081        0.521575 
        6.07903         5.30729        0.518251 
        6.09473         5.26217        0.514959 
        6.11044         5.24127        0.511694 
        6.12616         5.20767        0.508458 
        6.14186         5.16657        0.505253 
        6.15755         5.14524        0.502076 
        6.17326         5.10173        0.498924 
        6.18898         5.07353        0.495798 
        6.20467         5.04589        0.492705 
        6.22036         5.00699        0.489639 
         6.2361         4.97842         0.48659 
         6.2518         4.94616        0.483573 
        6.26748         4.90631        0.480589 
        6.28319         4.88585        0.477621 
        6.29893         4.86283        0.474677 
        6.31463         4.82193        0.471762 
        6.33033         4.80047        0.468873 
        6.34604         4.76734        0.466006 
        6.36177         4.74482        0.463161 
        6.37747         4.70423        0.460345 
