# k  (h/Mpc)    Pcb(k)  (Mpc/h)^3    Pcb_linear(k) (Mpc/h)^3   ShotnoiseSubtracted = true
      0.0200456         5288.42         5367.84 
      0.0350414         4156.24         4080.77 
      0.0492313            3034         3044.27 
      0.0637834         2527.43         2594.65 
      0.0800726         2039.81         2105.59 
       0.096163         1581.86         1547.97 
       0.111083         1293.85         1247.74 
       0.126058         1105.65          1120.9 
       0.142273         953.443         962.421 
       0.158546         783.135         766.138 
        0.17375         680.889         649.316 
       0.188953         623.577         593.192 
       0.204907         535.299         530.032 
       0.220756          478.49         451.186 
        0.23588         423.082         394.131 
         0.2514         382.539         360.262 
       0.267535         365.356         328.396 
       0.283568         320.401         291.203 
       0.299022         300.633         260.429 
       0.314451         292.466         239.054 
       0.330372         256.151         220.531 
       0.346141          237.45         201.107 
       0.361624         223.746         183.441 
       0.377134         205.136          169.39 
       0.392932         200.765         157.389 
       0.408854         188.652         145.683 
       0.424564         180.571         134.736 
       0.440253         163.991         125.311 
       0.455999         153.807         117.145 
       0.471626          148.82         109.623 
        0.48727         144.411         102.518 
       0.502856         132.762          96.111 
       0.518488         129.603         90.3953 
       0.534347         122.148         85.0727 
       0.550082         118.883         80.1452 
       0.565732         116.035          75.615 
       0.581496          107.56         71.4584 
       0.597222         104.531         67.6399 
       0.612804         101.561         64.1177 
       0.628434         98.9718         60.8255 
       0.644267         93.9422         57.7361 
       0.660051          90.679         54.8854 
       0.675724         88.6114         52.2483 
       0.691403         87.0163         49.7836 
       0.707174         84.2558         47.4655 
       0.722871         82.0898         45.3056 
        0.73838          79.195         43.3046 
       0.754018         75.1402         41.4104 
       0.769845         74.4767         39.6101 
        0.78569         71.9639         37.9165 
       0.801365         70.2392         36.3399 
       0.817031         67.7424         34.8554 
       0.832809         66.7636         33.4458 
       0.848511         64.9073         32.1218 
       0.864097         63.8081         30.8799 
       0.879701         62.5566         29.7036 
       0.895507         60.3967         28.5756 
       0.911279         59.3343         27.5096 
        0.92691         57.7115         26.5077 
       0.942635         56.7305          25.551 
       0.958396         56.2526         24.6403 
       0.974128         54.8004         23.7763 
       0.989692         53.3302         22.9629 
        1.00528         52.5503          22.187 
        1.02113         51.4648         21.4353 
        1.03692         50.9073         20.7218 
        1.05264          49.751         20.0445 
        1.06832          48.775          19.399 
        1.08405         47.6959         18.7806 
        1.09979         47.5381         18.1893 
        1.11537         46.1569         17.6296 
        1.13105         45.1642         17.0906 
        1.14679         44.4864         16.5723 
        1.16256         43.9372         16.0748 
        1.17828         43.3146         15.5997 
        1.19395         42.4618         15.1457 
         1.2097         41.9558         14.7077 
        1.22537         41.2143         14.2894 
          1.241         40.4838         13.8888 
        1.25666          39.972         13.5029 
        1.27241         39.5577           13.13 
        1.28819         38.2165         12.7708 
        1.30392         38.5195         12.4263 
        1.31957         37.7517         12.0962 
        1.33529         37.0223          11.777 
        1.35108         36.5539         11.4683 
        1.36674         36.2514          11.173 
         1.3824         35.5738         10.8885 
        1.39811         34.8059         10.6131 
        1.41389         34.5146         10.3463 
        1.42964         34.1863         10.0893 
        1.44531         33.5316         9.84239 
        1.46101         33.2868         9.60332 
        1.47667         32.8889         9.37302 
        1.49229         32.3003           9.151 
        1.50793         31.9545         8.93602 
        1.52367         31.5115         8.72665 
        1.53953         31.2519         8.52268 
        1.55526         30.7325         8.32694 
        1.57092         30.5473         8.13825 
        1.58662         30.0903         7.95503 
        1.60235         29.6409         7.77717 
        1.61809         29.4116         7.60474 
        1.63369         29.1221         7.43914 
        1.64941         28.7779         7.27735 
        1.66519         28.2064         7.11985 
        1.68085          27.805         6.96819 
        1.69652         27.7828         6.82097 
        1.71228         27.3699         6.67722 
        1.72806         26.9787         6.53755 
        1.74368         26.7248         6.40333 
        1.75933         26.4513         6.27266 
        1.77505         26.2027         6.14507 
        1.79081          25.926         6.02085 
         1.8065          25.587         5.90064 
        1.82218         25.3416         5.78387 
        1.83797         25.1936         5.66949 
        1.85367         24.9933         5.55887 
        1.86928         24.7326         5.45191 
        1.88497         24.3869         5.34722 
        1.90073         24.1007         5.24492 
        1.91647         23.7703         5.14543 
        1.93218         23.8668         5.04875 
        1.94787         23.4105         4.95474 
        1.96363         23.3053         4.86278 
        1.97935         22.8883         4.77337 
        1.99499         22.6664         4.68674 
        2.01064         22.5085         4.60216 
         2.0264          22.234         4.51916 
        2.04216         22.1223         4.43828 
        2.05781         21.8864         4.35991 
        2.07353         21.6633         4.28318 
        2.08928         21.3491         4.20815 
        2.10499         21.1608         4.13513 
        2.12065         20.9996          4.0641 
        2.13633         20.8584         3.99468 
        2.15211         20.5649         3.92647 
        2.16785         20.5014         3.86005 
        2.18349         20.2037         3.79561 
        2.19916         20.0172         3.73251 
        2.21489         19.8298         3.67067 
        2.23063         19.7278         3.61019 
         2.2463          19.446         3.55137 
        2.26194         19.2976         3.49402 
        2.27765         19.0067         3.43766 
        2.29341         18.9108         3.38241 
        2.30914         18.7114          3.3285 
        2.32486         18.6555         3.27581 
        2.34061         18.4548         3.22419 
        2.35635         18.2515         3.17374 
        2.37203         18.0854         3.12456 
        2.38768         17.8823         3.07653 
        2.40339         17.8039         3.02935 
        2.41914         17.5749         2.98306 
        2.43483         17.4022         2.93791 
         2.4505         17.2335         2.89378 
        2.46622         17.1606         2.85042 
        2.48195         17.0046         2.80795 
        2.49759         16.7303         2.76659 
        2.51328           16.76         2.72596 
        2.52906         16.5412          2.6859 
        2.54479         16.3668          2.6468 
        2.56049         16.1942         2.60857 
        2.57618         16.1503         2.57113 
        2.59189         16.0251         2.53438 
        2.60758         15.7888         2.49842 
        2.62325         15.6765          2.4632 
        2.63898          15.591         2.42855 
        2.65468         15.3467         2.39464 
        2.67044         15.3104         2.36124 
        2.68618         15.2022         2.32857 
        2.70184         15.0178         2.29665 
        2.71755         14.9263         2.26525 
        2.73329         14.7325          2.2344 
        2.74897         14.6763         2.20424 
        2.76462         14.5519          2.1747 
        2.78034         14.4013         2.14559 
        2.79607         14.2953         2.11698 
        2.81179         14.1449         2.08894 
        2.82749         14.0452         2.06144 
        2.84321          13.944         2.03441 
        2.85893         13.8087         2.00788 
        2.87462         13.7483         1.98187 
        2.89033         13.5922         1.95631 
        2.90605         13.4921         1.93118 
        2.92176         13.3446          1.9065 
        2.93747         13.2595         1.88228 
        2.95318         13.1375         1.85847 
        2.96891         13.0669         1.83508 
        2.98456          12.945         1.81219 
        3.00023         12.8611         1.78966 
        3.01596         12.7138         1.76745 
        3.03164         12.6894         1.74569 
        3.04738         12.5351         1.72423 
         3.0631         12.3719         1.70314 
        3.07883         12.3043         1.68241 
        3.09456         12.2558         1.66203 
        3.11026         12.1783         1.64203 
        3.12596         12.0384         1.62236 
        3.14163         11.9859         1.60306 
        3.15734         11.8257         1.58403 
        3.17308         11.7627         1.56527 
        3.18879         11.6698         1.54687 
        3.20447         11.5489         1.52879 
         3.2202         11.4749         1.51095 
         3.2359         11.3585         1.49343 
        3.25157         11.3237         1.47623 
        3.26729         11.2082         1.45925 
        3.28304         11.1052         1.44251 
        3.29877         11.0328         1.42605 
        3.31446          10.945          1.4099 
        3.33014         10.8591         1.39401 
        3.34585         10.8102         1.37834 
        3.36158         10.7091         1.36289 
        3.37727          10.636         1.34773 
        3.39294         10.5302         1.33282 
        3.40867         10.4724         1.31808 
        3.42439         10.3836         1.30357 
        3.44008         10.2802         1.28931 
        3.45578         10.2108         1.27526 
        3.47153         10.1099         1.26139 
        3.48724         10.0592         1.24775 
        3.50292         9.95058         1.23435 
        3.51859         9.91084         1.22115 
        3.53431         9.79384         1.20811 
        3.55007         9.74177         1.19523 
        3.56577         9.62971         1.18258 
        3.58146         9.60581         1.17013 
        3.59719         9.52187         1.15783 
        3.61292         9.46368         1.14571 
        3.62859         9.39296         1.13382 
        3.64429         9.31159         1.12207 
        3.66003         9.25903         1.11045 
        3.67578         9.15514         1.09901 
        3.69146          9.1214         1.08777 
        3.70712         9.05215         1.07671 
        3.72284         8.93401         1.06576 
        3.73853         8.89331         1.05499 
        3.75422         8.82349         1.04436 
        3.76993         8.74384         1.03388 
        3.78564         8.68537         1.02354 
        3.80137          8.6587         1.01333 
        3.81707         8.54876         1.00328 
        3.83279         8.49556        0.993356 
        3.84853         8.43672        0.983556 
        3.86424         8.38586        0.973908 
        3.87992         8.31678        0.964405 
        3.89561         8.24638        0.955029 
        3.91134         8.16875        0.945761 
        3.92704         8.12334        0.936627 
        3.94273          8.0523        0.927624 
        3.95845          8.0238        0.918724 
        3.97418         7.94554        0.909941 
        3.98988         7.90326        0.901285 
        4.00554         7.83185        0.892767 
        4.02125         7.77786        0.884335 
        4.03698         7.72252           0.876 
        4.05268         7.64241        0.867793 
        4.06839         7.58349        0.859686 
         4.0841         7.54438        0.851686 
        4.09983         7.47614        0.843778 
        4.11555         7.39922        0.835974 
        4.13124         7.35726        0.828292 
        4.14693         7.30766          0.8207 
        4.16266         7.26308        0.813187 
        4.17839         7.21151        0.805774 
        4.19408         7.15949        0.798471 
        4.20977         7.09963        0.791255 
        4.22551         7.05974        0.784113 
        4.24123          6.9929        0.777067 
        4.25691         6.95003        0.770128 
        4.27259         6.89184        0.763272 
        4.28831         6.83938        0.756487 
        4.30404         6.77877        0.749779 
        4.31974         6.73842        0.743167 
        4.33543         6.70092         0.73664 
        4.35116         6.63536        0.730176 
        4.36688         6.58967        0.723793 
        4.38255         6.54397         0.71751 
        4.39825         6.49621         0.71129 
        4.41398         6.45364        0.705132 
         4.4297         6.41917        0.699053 
        4.44541         6.35447        0.693049 
        4.46111          6.3293         0.68712 
        4.47683          6.2638        0.681257 
        4.49251         6.23797        0.675474 
        4.50819         6.19013        0.669762 
         4.5239         6.14722        0.664107 
        4.53962         6.08478        0.658512 
        4.55535         6.05515        0.652979 
        4.57106          6.0115        0.647518 
        4.58678         5.96525        0.642119 
         4.6025         5.93331        0.636781 
        4.61821         5.88885        0.631505 
        4.63391         5.82692        0.626297 
         4.6496         5.80132         0.62115 
        4.66532         5.75582        0.616053 
        4.68103         5.71907        0.611016 
        4.69673         5.69139        0.606041 
        4.71241         5.64698        0.601127 
        4.72811         5.61272         0.59626 
        4.74384         5.56984        0.591441 
        4.75955         5.52901        0.586683 
        4.77525         5.47959        0.581981 
        4.79096         5.45655        0.577324 
        4.80669         5.41978        0.572718 
         4.8224         5.36623        0.568167 
        4.83809         5.33476        0.563671 
        4.85379         5.29113        0.559221 
         4.8695         5.27032        0.554816 
        4.88521         5.23713        0.550461 
        4.90093         5.19262        0.546153 
        4.91663         5.17229        0.541895 
        4.93234         5.12093        0.537678 
        4.94807         5.09365        0.533504 
        4.96377         5.05646        0.529382 
        4.97943         5.03037        0.525313 
        4.99514         4.99142        0.521277 
        5.01086         4.95958         0.51728 
        5.02654         4.91859        0.513336 
        5.04227          4.8874        0.509422 
          5.058         4.85371        0.505547 
        5.07371         4.82196        0.501721 
        5.08942         4.78713        0.497934 
        5.10513         4.74839        0.494186 
        5.12084         4.73524        0.490475 
        5.13656         4.70519        0.486804 
        5.15225         4.66439        0.483176 
        5.16796          4.6431        0.479581 
        5.18369         4.59518        0.476018 
         5.1994         4.58053        0.472499 
        5.21509         4.53292        0.469019 
        5.23079         4.50826         0.46557 
        5.24649         4.48511        0.462159 
        5.26217         4.44705        0.458785 
        5.27788         4.42521         0.45544 
        5.29359         4.39641        0.452128 
        5.30933         4.37243        0.448845 
        5.32504         4.34925          0.4456 
        5.34073         4.32062        0.442391 
        5.35646         4.28412        0.439207 
        5.37218         4.26437        0.436055 
        5.38789         4.23745        0.432939 
        5.40357           4.204        0.429857 
        5.41929         4.17507        0.426798 
        5.43502         4.15003         0.42377 
         5.4507         4.12863        0.420778 
        5.46639         4.08707        0.417815 
        5.48212         4.07953        0.414874 
        5.49786         4.05168        0.411958 
        5.51353         4.02663        0.409084 
        5.52921         3.99677        0.406236 
        5.54495         3.97114        0.403406 
        5.56066         3.95082        0.400607 
        5.57637         3.91399        0.397835 
        5.59207         3.89996        0.395092 
        5.60778         3.87676        0.392374 
        5.62346         3.85065        0.389685 
        5.63916         3.82742         0.38702 
        5.65487         3.80557        0.384378 
         5.6706         3.77184        0.381758 
        5.68633         3.76149        0.379162 
        5.70203         3.74109        0.376596 
        5.71773         3.70898        0.374054 
        5.73344         3.68213        0.371534 
        5.74916         3.66629        0.369035 
        5.76486         3.64102        0.366563 
        5.78054         3.61892        0.364118 
        5.79626         3.59735        0.361688 
          5.812         3.57096        0.359279 
         5.8277         3.55028        0.356898 
        5.84339         3.53397         0.35454 
        5.85911         3.50965        0.352198 
        5.87484         3.49003        0.349878 
        5.89053         3.47063        0.347584 
        5.90623         3.45289        0.345309 
        5.92195         3.43284        0.343051 
        5.93767         3.40954        0.340815 
        5.95336         3.38743        0.338602 
        5.96905         3.36581        0.336411 
        5.98476         3.34411        0.334235 
        6.00048         3.32655        0.332079 
        6.01617          3.3044        0.329944 
        6.03185         3.28753        0.327831 
        6.04756         3.26284        0.325732 
        6.06331         3.25165        0.323647 
        6.07903         3.23093        0.321584 
        6.09473         3.20975        0.319542 
        6.11044         3.19154        0.317516 
        6.12616         3.16901        0.315507 
        6.14186         3.15422        0.313519 
        6.15755         3.13603        0.311547 
        6.17326         3.12065        0.309592 
        6.18898         3.09367        0.307652 
        6.20467         3.08273        0.305733 
        6.22036         3.07095         0.30383 
         6.2361          3.0421        0.301939 
         6.2518          3.0287        0.300066 
        6.26748          3.0123        0.298214 
        6.28319         2.99823        0.296373 
        6.29893          2.9779        0.294546 
        6.31463         2.96665        0.292737 
        6.33033         2.94861        0.290945 
        6.34604         2.92553        0.289166 
        6.36177         2.91388          0.2874 
        6.37747         2.89919        0.285653 
