# k  (h/Mpc)    Pcb(k)  (Mpc/h)^3    Pcb_linear(k) (Mpc/h)^3   ShotnoiseSubtracted = true
      0.0200456         235.093         238.477 
      0.0350414         182.472         181.297 
      0.0492313         135.772         135.248 
      0.0637834         114.635         115.273 
      0.0800726         92.8302         93.5453 
       0.096163         69.4348         68.7719 
       0.111083         56.1361         55.4333 
       0.126058         49.5851         49.7982 
       0.142273         42.4567         42.7575 
       0.158546         34.1299         34.0373 
        0.17375          29.105         28.8472 
       0.188953         26.3699         26.3538 
       0.204907         23.2188         23.5478 
       0.220756         20.0531         20.0449 
        0.23588         17.5291         17.5101 
         0.2514         16.0103         16.0054 
       0.267535          14.612         14.5897 
       0.283568         12.9584         12.9373 
       0.299022         11.6141         11.5701 
       0.314451         10.7625         10.6205 
       0.330372         9.84728         9.79756 
       0.346141         8.98597         8.93458 
       0.361624         8.18242         8.14976 
       0.377134          7.5332         7.52549 
       0.392932         7.13453         6.99235 
       0.408854         6.49848         6.47229 
       0.424564         6.09706         5.98593 
       0.440253         5.62471         5.56719 
       0.455999         5.20895         5.20442 
       0.471626         4.88007         4.87023 
        0.48727         4.63014         4.55457 
       0.502856         4.34321         4.26993 
       0.518488         4.02816           4.016 
       0.534347         3.77353         3.77953 
       0.550082         3.60425         3.56062 
       0.565732         3.43371         3.35935 
       0.581496         3.22041         3.17469 
       0.597222         3.04273         3.00504 
       0.612804         2.87914         2.84856 
       0.628434         2.73589          2.7023 
       0.644267         2.60946         2.56505 
       0.660051         2.48203          2.4384 
       0.675724         2.34564         2.32124 
       0.691403         2.23938         2.21174 
       0.707174         2.13531         2.10875 
       0.722871         2.07407          2.0128 
        0.73838         1.94425          1.9239 
       0.754018         1.86002         1.83975 
       0.769845          1.7644         1.75976 
        0.78569         1.70754         1.68452 
       0.801365         1.64122         1.61447 
       0.817031         1.57874         1.54852 
       0.832809         1.50116          1.4859 
       0.848511         1.44926         1.42708 
       0.864097         1.39929          1.3719 
       0.879701         1.35296         1.31964 
       0.895507         1.28543         1.26953 
       0.911279         1.24763         1.22217 
        0.92691          1.2111         1.17766 
       0.942635         1.15121         1.13516 
       0.958396         1.11467          1.0947 
       0.974128         1.07677         1.05631 
       0.989692         1.03948         1.02018 
        1.00528         1.00025        0.985704 
        1.02113        0.976594        0.952308 
        1.03692        0.945895        0.920608 
        1.05264        0.905865        0.890518 
        1.06832          0.8808         0.86184 
        1.08405        0.847711        0.834369 
        1.09979        0.825945        0.808096 
        1.11537        0.795372        0.783233 
        1.13105        0.767298        0.759283 
        1.14679        0.749453        0.736257 
        1.16256        0.728417        0.714156 
        1.17828        0.708811        0.693048 
        1.19395        0.686886        0.672877 
         1.2097        0.664907        0.653418 
        1.22537        0.643614        0.634834 
          1.241        0.626781         0.61704 
        1.25666        0.613869        0.599894 
        1.27241        0.593776        0.583328 
        1.28819        0.575672        0.567369 
        1.30392        0.562498        0.552063 
        1.31957        0.546471        0.537397 
        1.33529        0.532769        0.523218 
        1.35108        0.516784        0.509502 
        1.36674        0.503257        0.496382 
         1.3824        0.492761        0.483744 
        1.39811        0.477179        0.471509 
        1.41389        0.467992        0.459657 
        1.42964        0.455366        0.448238 
        1.44531        0.443094        0.437269 
        1.46101         0.43064        0.426648 
        1.47667        0.421734        0.416416 
        1.49229        0.410318        0.406552 
        1.50793        0.402423        0.397001 
        1.52367         0.39059          0.3877 
        1.53953        0.381158        0.378638 
        1.55526        0.373252        0.369942 
        1.57092        0.367471        0.361559 
        1.58662        0.358166        0.353419 
        1.60235        0.349347        0.345517 
        1.61809        0.340198        0.337856 
        1.63369         0.33224        0.330499 
        1.64941        0.326142        0.323311 
        1.66519        0.319413        0.316314 
        1.68085        0.311006        0.309576 
        1.69652        0.305052        0.303036 
        1.71228        0.297393        0.296649 
        1.72806        0.292388        0.290444 
        1.74368        0.285664        0.284481 
        1.75933        0.280278        0.278676 
        1.77505        0.275133        0.273008 
        1.79081        0.267303        0.267489 
         1.8065        0.263487        0.262148 
        1.82218        0.256423         0.25696 
        1.83797         0.25086        0.251879 
        1.85367        0.246598        0.246965 
        1.86928        0.240907        0.242213 
        1.88497        0.236003        0.237561 
        1.90073        0.231379        0.233017 
        1.91647        0.228232        0.228596 
        1.93218        0.224647        0.224301 
        1.94787         0.21813        0.220125 
        1.96363        0.214606        0.216039 
        1.97935        0.210463        0.212067 
        1.99499        0.206037        0.208218 
        2.01064        0.202738        0.204461 
         2.0264        0.199152        0.200773 
        2.04216        0.194413         0.19718 
        2.05781        0.190933        0.193698 
        2.07353        0.188018        0.190289 
        2.08928        0.184964        0.186956 
        2.10499         0.18067        0.183712 
        2.12065        0.177956        0.180556 
        2.13633        0.174838        0.177472 
        2.15211        0.172039        0.174441 
        2.16785        0.168107        0.171491 
        2.18349        0.165602        0.168628 
        2.19916        0.162044        0.165825 
        2.21489        0.159139        0.163077 
        2.23063        0.156874         0.16039 
         2.2463        0.154262        0.157777 
        2.26194        0.151812        0.155229 
        2.27765         0.14905        0.152725 
        2.29341        0.146111        0.150271 
        2.30914        0.143509        0.147876 
        2.32486        0.141231        0.145535 
        2.34061        0.138784        0.143241 
        2.35635        0.136642           0.141 
        2.37203        0.135626        0.138815 
        2.38768        0.132405        0.136681 
        2.40339        0.130383        0.134585 
        2.41914        0.128024        0.132528 
        2.43483        0.126439        0.130523 
         2.4505        0.123972        0.128562 
        2.46622        0.122139        0.126636 
        2.48195        0.120212        0.124749 
        2.49759        0.118354        0.122912 
        2.51328        0.115616        0.121107 
        2.52906        0.114637        0.119327 
        2.54479        0.112838         0.11759 
        2.56049        0.110685        0.115891 
        2.57618        0.109639        0.114228 
        2.59189        0.107205        0.112595 
        2.60758         0.10624        0.110997 
        2.62325        0.104245        0.109433 
        2.63898        0.103074        0.107893 
        2.65468         0.10112        0.106387 
        2.67044       0.0996998        0.104903 
        2.68618        0.098165        0.103451 
        2.70184       0.0970329        0.102033 
        2.71755       0.0953451        0.100639 
        2.73329       0.0940805       0.0992681 
        2.74897       0.0928782       0.0979278 
        2.76462       0.0911371       0.0966155 
        2.78034       0.0900692       0.0953222 
        2.79607       0.0889786       0.0940514 
        2.81179       0.0873047       0.0928055 
        2.82749       0.0864247       0.0915838 
        2.84321       0.0849847       0.0903829 
        2.85893       0.0836598       0.0892042 
        2.87462       0.0828284       0.0880488 
        2.89033       0.0814197        0.086913 
        2.90605       0.0805292       0.0857965 
        2.92176       0.0795211       0.0847004 
        2.93747       0.0782259       0.0836242 
        2.95318       0.0775398       0.0825666 
        2.96891       0.0762812       0.0815271 
        2.98456       0.0752374       0.0805103 
        3.00023       0.0745441       0.0795095 
        3.01596       0.0730484       0.0785228 
        3.03164       0.0722118       0.0775558 
        3.04738        0.071329       0.0766025 
         3.0631       0.0700766       0.0756657 
        3.07883       0.0694969       0.0747447 
        3.09456       0.0687238       0.0738394 
        3.11026       0.0676374       0.0729505 
        3.12596       0.0671802       0.0720766 
        3.14163       0.0660001       0.0712192 
        3.15734       0.0654739       0.0703738 
        3.17308       0.0644824       0.0695403 
        3.18879       0.0636345       0.0687227 
        3.20447       0.0626567       0.0679196 
         3.2202       0.0621308        0.067127 
         3.2359       0.0614141       0.0663485 
        3.25157       0.0607246       0.0655844 
        3.26729       0.0599461       0.0648302 
        3.28304       0.0594264       0.0640864 
        3.29877        0.058476       0.0633555 
        3.31446       0.0577877       0.0626376 
        3.33014       0.0573372       0.0619316 
        3.34585       0.0565729       0.0612355 
        3.36158       0.0560043       0.0605492 
        3.37727       0.0552657       0.0598757 
        3.39294       0.0546919       0.0592131 
        3.40867       0.0541727       0.0585583 
        3.42439       0.0535511       0.0579139 
        3.44008       0.0530435       0.0572805 
        3.45578       0.0525153       0.0566562 
        3.47153       0.0520079       0.0560399 
        3.48724       0.0513465        0.055434 
        3.50292       0.0510807       0.0548386 
        3.51859         0.05032       0.0542522 
        3.53431       0.0497552       0.0536727 
        3.55007       0.0493314       0.0531004 
        3.56577       0.0488593       0.0525387 
        3.58146       0.0483556       0.0519855 
        3.59719       0.0479175       0.0514391 
        3.61292       0.0472807       0.0509008 
        3.62859       0.0468716       0.0503723 
        3.64429       0.0465217       0.0498503 
        3.66003       0.0461547       0.0493343 
        3.67578       0.0458054       0.0488258 
        3.69146       0.0453919       0.0483264 
        3.70712       0.0449057       0.0478351 
        3.72284       0.0443579       0.0473488 
        3.73853       0.0441963       0.0468702 
        3.75422       0.0436104       0.0463981 
        3.76993        0.043299       0.0459321 
        3.78564       0.0428751       0.0454728 
        3.80137       0.0426454       0.0450192 
        3.81707       0.0421409       0.0445727 
        3.83279        0.041718       0.0441319 
        3.84853       0.0413842       0.0436965 
        3.86424       0.0412158       0.0432679 
        3.87992       0.0408466       0.0428457 
        3.89561       0.0403019       0.0424292 
        3.91134       0.0400573       0.0420174 
        3.92704       0.0396513       0.0416116 
        3.94273       0.0393655       0.0412116 
        3.95845       0.0389685       0.0408162 
        3.97418       0.0385676        0.040426 
        3.98988       0.0381399       0.0400415 
        4.00554       0.0379291        0.039663 
        4.02125       0.0374378       0.0392884 
        4.03698       0.0369021       0.0389181 
        4.05268       0.0366112       0.0385535 
        4.06839       0.0359975       0.0381933 
         4.0841       0.0354782       0.0378379 
        4.09983       0.0349316       0.0374866 
        4.11555       0.0345005       0.0371399 
        4.13124       0.0339996       0.0367986 
        4.14693       0.0336136       0.0364613 
        4.16266       0.0330883       0.0361275 
        4.17839       0.0327182       0.0357982 
        4.19408       0.0322791       0.0354737 
        4.20977       0.0319109       0.0351532 
        4.22551       0.0315533       0.0348359 
        4.24123       0.0312104       0.0345228 
        4.25691       0.0308929       0.0342146 
        4.27259       0.0305469         0.03391 
        4.28831       0.0303138       0.0336085 
        4.30404       0.0298953       0.0333105 
        4.31974       0.0296651       0.0330167 
        4.33543       0.0293892       0.0327268 
        4.35116       0.0290596       0.0324396 
        4.36688       0.0289581        0.032156 
        4.38255       0.0286107       0.0318769 
        4.39825       0.0285094       0.0316005 
        4.41398        0.028295       0.0313269 
         4.4297       0.0281166       0.0310569 
        4.44541       0.0278746       0.0307901 
        4.46111       0.0276625       0.0305267 
        4.47683        0.027636       0.0302662 
        4.49251       0.0274551       0.0300094 
        4.50819       0.0273923       0.0297556 
         4.5239       0.0272326       0.0295044 
        4.53962       0.0271898       0.0292558 
        4.55535       0.0270462         0.02901 
        4.57106       0.0270316       0.0287673 
        4.58678       0.0268669       0.0285275 
         4.6025       0.0268383       0.0282903 
        4.61821       0.0268489       0.0280559 
        4.63391       0.0268053       0.0278245 
         4.6496       0.0267203       0.0275959 
        4.66532       0.0267056       0.0273694 
        4.68103       0.0268454       0.0271457 
        4.69673       0.0268117       0.0269246 
        4.71241       0.0269119       0.0267063 
        4.72811       0.0267958       0.0264901 
        4.74384       0.0268842        0.026276 
        4.75955       0.0270294       0.0260646 
        4.77525        0.027051       0.0258557 
        4.79096        0.027144       0.0256488 
        4.80669       0.0272663       0.0254442 
         4.8224       0.0273789        0.025242 
        4.83809        0.027467       0.0250422 
        4.85379       0.0277378       0.0248446 
         4.8695       0.0278671       0.0246489 
        4.88521       0.0279084       0.0244554 
        4.90093       0.0280914        0.024264 
        4.91663       0.0282456       0.0240748 
        4.93234       0.0284523       0.0238875 
        4.94807       0.0287263        0.023702 
        4.96377       0.0288977       0.0235189 
        4.97943       0.0293246       0.0233381 
        4.99514        0.029383       0.0231588 
        5.01086       0.0296577       0.0229813 
        5.02654       0.0299653        0.022806 
        5.04227       0.0302029       0.0226321 
          5.058       0.0304594         0.02246 
        5.07371       0.0307008         0.02229 
        5.08942       0.0310842       0.0221218 
        5.10513        0.031512       0.0219553 
        5.12084        0.031852       0.0217904 
        5.13656        0.032291       0.0216273 
        5.15225       0.0325771       0.0214661 
        5.16796       0.0330612       0.0213064 
        5.18369        0.033396       0.0211481 
         5.1994       0.0338503       0.0209918 
        5.21509        0.034336       0.0208372 
        5.23079        0.034762       0.0206839 
        5.24649       0.0352123       0.0205324 
        5.26217       0.0357091       0.0203825 
        5.27788        0.036209       0.0202339 
        5.29359       0.0366864       0.0200867 
        5.30933       0.0373305       0.0199409 
        5.32504       0.0378959       0.0197967 
        5.34073       0.0385762       0.0196541 
        5.35646       0.0389951       0.0195127 
        5.37218       0.0396189       0.0193726 
        5.38789       0.0400711       0.0192342 
        5.40357       0.0410883       0.0190973 
        5.41929       0.0417921       0.0189614 
        5.43502       0.0423305       0.0188268 
         5.4507         0.04305       0.0186939 
        5.46639       0.0438074       0.0185623 
        5.48212       0.0445996       0.0184316 
        5.49786       0.0453853       0.0183021 
        5.51353        0.046405       0.0181744 
        5.52921          0.0469       0.0180479 
        5.54495       0.0478938       0.0179222 
        5.56066       0.0488472       0.0177978 
        5.57637       0.0497736       0.0176746 
        5.59207       0.0506316       0.0175528 
        5.60778       0.0514289        0.017432 
        5.62346       0.0524659       0.0173126 
        5.63916       0.0535357       0.0171942 
        5.65487        0.054615       0.0170768 
         5.6706       0.0555046       0.0169604 
        5.68633       0.0566683       0.0168451 
        5.70203       0.0576776        0.016731 
        5.71773       0.0592512       0.0166181 
        5.73344       0.0602054       0.0165062 
        5.74916       0.0614874       0.0163952 
        5.76486       0.0631548       0.0162853 
        5.78054       0.0646238       0.0161767 
        5.79626       0.0653423       0.0160688 
          5.812       0.0672077       0.0159617 
         5.8277       0.0682605       0.0158559 
        5.84339         0.06986       0.0157512 
        5.85911       0.0713489       0.0156471 
        5.87484       0.0724547       0.0155441 
        5.89053       0.0747533       0.0154421 
        5.90623       0.0760425       0.0153411 
        5.92195       0.0778132       0.0152408 
        5.93767       0.0797491       0.0151414 
        5.95336       0.0808152       0.0150431 
        5.96905       0.0828315       0.0149457 
        5.98476       0.0841424       0.0148491 
        6.00048       0.0866078       0.0147533 
        6.01617       0.0887486       0.0146585 
        6.03185       0.0904213       0.0145646 
        6.04756       0.0926116       0.0144713 
        6.06331       0.0952176       0.0143787 
        6.07903       0.0969467       0.0142871 
        6.09473       0.0988008       0.0141963 
        6.11044        0.101465       0.0141063 
        6.12616        0.103461       0.0140171 
        6.14186        0.106262       0.0139287 
        6.15755        0.108609       0.0138411 
        6.17326         0.11112       0.0137543 
        6.18898        0.114246       0.0136681 
        6.20467        0.116417       0.0135828 
        6.22036        0.119774       0.0134983 
         6.2361        0.122238       0.0134142 
         6.2518        0.125238       0.0133311 
        6.26748        0.126786       0.0132488 
        6.28319        0.130947        0.013167 
        6.29893        0.133504       0.0130858 
        6.31463        0.137343       0.0130055 
        6.33033        0.140164       0.0129258 
        6.34604        0.144178       0.0128468 
        6.36177        0.146666       0.0127684 
        6.37747        0.149761       0.0126907 
