# k  (h/Mpc)    Pcb(k)  (Mpc/h)^3    Pcb_linear(k) (Mpc/h)^3   ShotnoiseSubtracted = true
      0.0200456         7521.27          7669.5 
      0.0350414         5682.68         5830.56 
      0.0492313         4319.92         4349.61 
      0.0637834          3758.2         3707.21 
      0.0800726         3037.04         3008.44 
       0.096163         2162.82         2211.72 
       0.111083         1731.02         1782.75 
       0.126058          1609.8         1601.52 
       0.142273         1400.73         1375.09 
       0.158546         1161.14         1094.65 
        0.17375         943.075         927.735 
       0.188953         906.828         847.546 
       0.204907          855.97         757.302 
       0.220756         725.345         644.648 
        0.23588          638.41         563.129 
         0.2514         563.742         514.738 
       0.267535         543.543         469.207 
       0.283568         494.658         416.067 
       0.299022         458.589         372.097 
       0.314451         426.335         341.557 
       0.330372         395.582         315.092 
       0.346141         358.583         287.339 
       0.361624         343.213         262.098 
       0.377134         322.484         242.022 
       0.392932           300.5         224.876 
       0.408854         288.998         208.151 
       0.424564         277.288         192.509 
       0.440253          263.76         179.042 
       0.455999          249.14         167.376 
       0.471626         230.603         156.628 
        0.48727         225.399         146.476 
       0.502856         216.823         137.322 
       0.518488           212.7         129.156 
       0.534347         202.123         121.551 
       0.550082         188.737          114.51 
       0.565732         184.169         108.038 
       0.581496         175.979         102.099 
       0.597222         170.971         96.6431 
       0.612804         163.667         91.6106 
       0.628434         160.027         86.9067 
       0.644267         154.697         82.4926 
       0.660051         152.125         78.4196 
       0.675724         148.237         74.6517 
       0.691403          143.81         71.1302 
       0.707174         137.989         67.8181 
       0.722871         136.341         64.7321 
        0.73838         133.815          61.873 
       0.754018         128.188         59.1667 
       0.769845         125.791         56.5945 
        0.78569         122.932         54.1746 
       0.801365          119.71         51.9219 
       0.817031         115.594         49.8009 
       0.832809         114.173         47.7869 
       0.848511         110.667         45.8952 
       0.864097         107.668         44.1208 
       0.879701         106.636         42.4401 
       0.895507         104.063         40.8285 
       0.911279         102.865         39.3054 
        0.92691         100.246         37.8739 
       0.942635         97.8878          36.507 
       0.958396          97.449         35.2057 
       0.974128         94.8957         33.9712 
       0.989692         92.5966         32.8091 
        1.00528         90.9136         31.7005 
        1.02113          89.453         30.6265 
        1.03692         86.9421          29.607 
        1.05264         86.5491         28.6393 
        1.06832         84.4707          27.717 
        1.08405          83.467         26.8335 
        1.09979         82.6505         25.9886 
        1.11537         79.7348          25.189 
        1.13105          80.129         24.4188 
        1.14679         78.7049         23.6782 
        1.16256         77.3747         22.9675 
        1.17828         75.3598         22.2886 
        1.19395         74.9706         21.6399 
         1.2097         72.9739         21.0141 
        1.22537         73.0475         20.4165 
          1.241         71.2641         19.8442 
        1.25666         69.9948         19.2928 
        1.27241         69.4605           18.76 
        1.28819         68.0567         18.2467 
        1.30392          66.937         17.7545 
        1.31957          66.455         17.2828 
        1.33529         65.4863         16.8268 
        1.35108         65.0169         16.3857 
        1.36674         64.0564         15.9638 
         1.3824         62.6179         15.5573 
        1.39811         62.3505         15.1639 
        1.41389         61.2645         14.7827 
        1.42964         60.4362         14.4155 
        1.44531          59.683         14.0627 
        1.46101         58.5302         13.7211 
        1.47667         58.4133         13.3921 
        1.49229         57.6999         13.0748 
        1.50793           56.75         12.7677 
        1.52367         56.0059         12.4685 
        1.53953         55.5484         12.1771 
        1.55526         54.7084         11.8974 
        1.57092         54.3621         11.6278 
        1.58662         53.5976          11.366 
        1.60235         52.9916         11.1119 
        1.61809         52.1227         10.8656 
        1.63369          51.349         10.6289 
        1.64941         50.7184         10.3978 
        1.66519         50.0783         10.1727 
        1.68085         49.6634         9.95606 
        1.69652         49.0538         9.74571 
        1.71228         48.7666         9.54032 
        1.72806         48.1425         9.34076 
        1.74368         47.5137           9.149 
        1.75933         46.9821          8.9623 
        1.77505          46.562            8.78 
        1.79081         45.8782         8.60252 
         1.8065         45.4086         8.43077 
        1.82218         44.9233         8.26391 
        1.83797         44.4014         8.10049 
        1.85367         43.7239         7.94245 
        1.86928         43.4641         7.78962 
        1.88497         42.9196         7.64004 
        1.90073          42.607         7.49388 
        1.91647         42.1081         7.35172 
        1.93218         41.5651          7.2136 
        1.94787         41.1791         7.07927 
        1.96363         40.7758         6.94788 
        1.97935         40.3214         6.82013 
        1.99499         39.8013         6.69635 
        2.01064         39.4968         6.57551 
         2.0264          38.929         6.45692 
        2.04216         38.3992         6.34136 
        2.05781         38.0628         6.22939 
        2.07353         37.6824         6.11975 
        2.08928         37.5721         6.01255 
        2.10499         37.0959         5.90823 
        2.12065         36.5697         5.80673 
        2.13633         36.3876         5.70755 
        2.15211         35.6954         5.61009 
        2.16785         35.3138         5.51519 
        2.18349         35.1817         5.42311 
        2.19916         34.8571         5.33297 
        2.21489         34.2659          5.2446 
        2.23063         34.0728          5.1582 
         2.2463         33.8041         5.07416 
        2.26194         33.3863         4.99222 
        2.27765         33.0727         4.91169 
        2.29341         32.7084         4.83275 
        2.30914         32.5408         4.75572 
        2.32486         32.0368         4.68044 
        2.34061         31.8304         4.60668 
        2.35635         31.4614          4.5346 
        2.37203         31.1802         4.46432 
        2.38768         30.8711          4.3957 
        2.40339         30.7511         4.32829 
        2.41914         30.3322         4.26215 
        2.43483         29.9224         4.19765 
         2.4505         29.6876          4.1346 
        2.46622         29.4202         4.07264 
        2.48195         29.1379         4.01197 
        2.49759         28.8447         3.95287 
        2.51328         28.5576         3.89482 
        2.52906         28.3571         3.83758 
        2.54479         27.9796         3.78172 
        2.56049         27.6367         3.72709 
        2.57618         27.3831          3.6736 
        2.59189         27.1916         3.62109 
        2.60758         27.0563          3.5697 
        2.62325         26.6259         3.51939 
        2.63898         26.5463         3.46988 
        2.65468         26.1814         3.42143 
        2.67044         25.9319         3.37371 
        2.68618         25.6829         3.32703 
        2.70184         25.4913         3.28142 
        2.71755         25.2588         3.23657 
        2.73329         25.0104         3.19249 
        2.74897         24.6706         3.14939 
        2.76462         24.6361         3.10718 
        2.78034          24.361         3.06559 
        2.79607         24.0957         3.02472 
        2.81179         23.9049         2.98465 
        2.82749         23.6695         2.94536 
        2.84321         23.4706         2.90674 
        2.85893         23.2083         2.86883 
        2.87462         22.9838         2.83167 
        2.89033         22.8501         2.79515 
        2.90605         22.6991         2.75924 
        2.92176         22.3221         2.72399 
        2.93747         22.2627         2.68938 
        2.95318         21.9703         2.65537 
        2.96891         21.7871         2.62193 
        2.98456         21.5439         2.58923 
        3.00023         21.4406         2.55705 
        3.01596         21.2113         2.52531 
        3.03164           21.03         2.49422 
        3.04738         20.8022         2.46356 
         3.0631         20.6203         2.43343 
        3.07883         20.4677         2.40381 
        3.09456         20.3026         2.37469 
        3.11026         20.1379         2.34611 
        3.12596         19.8833           2.318 
        3.14163         19.8266         2.29043 
        3.15734         19.5277         2.26324 
        3.17308         19.3852         2.23644 
        3.18879         19.2234         2.21014 
        3.20447         19.0391         2.18431 
         3.2202         18.8342         2.15882 
         3.2359         18.7082         2.13379 
        3.25157         18.6161         2.10921 
        3.26729         18.4225         2.08496 
        3.28304         18.2431         2.06104 
        3.29877         18.0465         2.03753 
        3.31446         17.8749         2.01444 
        3.33014         17.7303         1.99174 
        3.34585         17.5208         1.96935 
        3.36158         17.4292         1.94728 
        3.37727         17.2321         1.92562 
        3.39294         17.0649         1.90431 
        3.40867         16.9466         1.88325 
        3.42439         16.7729         1.86253 
        3.44008         16.6841         1.84216 
        3.45578         16.5443         1.82208 
        3.47153         16.4123         1.80226 
        3.48724         16.2731         1.78277 
        3.50292          16.078         1.76362 
        3.51859         15.9609         1.74477 
        3.53431         15.8397         1.72613 
        3.55007          15.714         1.70772 
        3.56577         15.5776         1.68966 
        3.58146         15.4663         1.67187 
        3.59719         15.2608          1.6543 
        3.61292         15.1984         1.63698 
        3.62859         15.0217         1.61999 
        3.64429         14.8714          1.6032 
        3.66003         14.7768          1.5866 
        3.67578         14.6967         1.57025 
        3.69146         14.5243         1.55419 
        3.70712          14.387         1.53839 
        3.72284         14.3073         1.52275 
        3.73853         14.1415         1.50736 
        3.75422         14.0598         1.49217 
        3.76993         13.9319         1.47719 
        3.78564         13.7774         1.46242 
        3.80137         13.6603         1.44783 
        3.81707         13.5316         1.43347 
        3.83279         13.4437          1.4193 
        3.84853         13.3498         1.40529 
        3.86424         13.1724         1.39151 
        3.87992         13.1237         1.37793 
        3.89561         13.0142         1.36453 
        3.91134         12.9476         1.35129 
        3.92704         12.7664         1.33824 
        3.94273         12.6704         1.32538 
        3.95845         12.6003         1.31266 
        3.97418          12.491         1.30011 
        3.98988         12.3706         1.28774 
        4.00554         12.2923         1.27557 
        4.02125         12.1365         1.26353 
        4.03698         12.0878         1.25162 
        4.05268          11.982         1.23989 
        4.06839         11.8642         1.22831 
         4.0841         11.8044         1.21688 
        4.09983         11.6597         1.20558 
        4.11555         11.5668         1.19443 
        4.13124         11.4884         1.18345 
        4.14693         11.3983         1.17261 
        4.16266         11.3043         1.16187 
        4.17839         11.1958         1.15128 
        4.19408         11.1247         1.14084 
        4.20977           11.02         1.13054 
        4.22551         10.9687         1.12033 
        4.24123         10.8821         1.11026 
        4.25691         10.7633         1.10035 
        4.27259          10.696         1.09055 
        4.28831         10.6025         1.08086 
        4.30404         10.5049         1.07127 
        4.31974         10.4346         1.06183 
        4.33543         10.3251          1.0525 
        4.35116          10.249         1.04327 
        4.36688         10.1903         1.03415 
        4.38255         10.1206         1.02517 
        4.39825         10.0262         1.01628 
        4.41398         9.94622         1.00748 
         4.4297         9.86644        0.998799 
        4.44541         9.79376        0.990219 
        4.46111          9.7176        0.981748 
        4.47683         9.64485        0.973371 
        4.49251         9.55117        0.965109 
        4.50819         9.50008        0.956947 
         4.5239         9.43954        0.948868 
        4.53962         9.36057        0.940874 
        4.55535         9.25239        0.932968 
        4.57106         9.20275        0.925166 
        4.58678         9.10657        0.917452 
         4.6025          9.0552        0.909825 
        4.61821         8.98625        0.902287 
        4.63391         8.93271        0.894845 
         4.6496         8.83274        0.887491 
        4.66532          8.7724        0.880209 
        4.68103          8.7078        0.873012 
        4.69673         8.65011        0.865904 
        4.71241         8.60074        0.858883 
        4.72811          8.5094        0.851928 
        4.74384         8.45147        0.845043 
        4.75955         8.39304        0.838245 
        4.77525         8.32529        0.831526 
        4.79096         8.26471        0.824874 
        4.80669         8.22059        0.818292 
         4.8224         8.16425         0.81179 
        4.83809         8.06324        0.805366 
        4.85379         8.00526        0.799008 
         4.8695         7.95471        0.792714 
        4.88521         7.89624        0.786492 
        4.90093         7.84854        0.780336 
        4.91663         7.78467        0.774252 
        4.93234         7.70789        0.768227 
        4.94807         7.66423        0.762263 
        4.96377         7.60466        0.756374 
        4.97943         7.55215        0.750561 
        4.99514         7.50255        0.744794 
        5.01086         7.45434        0.739084 
        5.02654         7.37145        0.733448 
        5.04227          7.3302        0.727856 
          5.058         7.29825         0.72232 
        5.07371         7.24693        0.716853 
        5.08942         7.17337        0.711442 
        5.10513         7.11082        0.706087 
        5.12084         7.07292        0.700785 
        5.13656         7.02223        0.695539 
        5.15225         6.96629        0.690356 
        5.16796         6.91401        0.685219 
        5.18369         6.87221        0.680129 
         5.1994         6.82262        0.675101 
        5.21509         6.77117        0.670129 
        5.23079         6.72515        0.665201 
        5.24649         6.67651        0.660327 
        5.26217         6.63586        0.655506 
        5.27788         6.58784        0.650727 
        5.29359         6.53758        0.645995 
        5.30933          6.4957        0.641304 
        5.32504         6.44076        0.636667 
        5.34073         6.40072        0.632082 
        5.35646          6.3565        0.627534 
        5.37218         6.30989         0.62303 
        5.38789          6.2834        0.618577 
        5.40357         6.22682        0.614174 
        5.41929         6.18357        0.609804 
        5.43502         6.14318        0.605477 
         5.4507         6.10758        0.601202 
        5.46639         6.04227        0.596968 
        5.48212         6.00359        0.592766 
        5.49786         5.98411          0.5886 
        5.51353         5.91787        0.584494 
        5.52921         5.90008        0.580424 
        5.54495         5.85857        0.576382 
        5.56066         5.81717        0.572382 
        5.57637         5.76981        0.568422 
        5.59207         5.72191        0.564502 
        5.60778         5.69154        0.560619 
        5.62346         5.64713        0.556778 
        5.63916         5.62499        0.552969 
        5.65487         5.56863        0.549195 
         5.6706         5.54478        0.545452 
        5.68633         5.50723        0.541742 
        5.70203         5.46477        0.538075 
        5.71773         5.43305        0.534443 
        5.73344         5.39468        0.530843 
        5.74916         5.36588        0.527273 
        5.76486         5.31919        0.523741 
        5.78054         5.28155        0.520247 
        5.79626          5.2495        0.516776 
          5.812         5.21708        0.513333 
         5.8277         5.18626        0.509932 
        5.84339         5.15554        0.506562 
        5.85911         5.12025        0.503216 
        5.87484         5.08149        0.499901 
        5.89053         5.05409        0.496623 
        5.90623         5.02894        0.493373 
        5.92195         4.97796        0.490147 
        5.93767         4.95641        0.486952 
        5.95336         4.91603        0.483791 
        5.96905         4.88531        0.480659 
        5.98476         4.86433        0.477551 
        6.00048         4.81959         0.47447 
        6.01617          4.7996         0.47142 
        6.03185         4.76278        0.468401 
        6.04756         4.73013        0.465402 
        6.06331         4.70662        0.462423 
        6.07903         4.67566        0.459476 
        6.09473         4.63896        0.456558 
        6.11044         4.60725        0.453662 
        6.12616         4.59927        0.450793 
        6.14186         4.55115        0.447952 
        6.15755          4.5323        0.445135 
        6.17326         4.51108        0.442341 
        6.18898         4.47485         0.43957 
        6.20467         4.44571        0.436827 
        6.22036         4.42112        0.434109 
         6.2361         4.39921        0.431406 
         6.2518         4.37397        0.428731 
        6.26748         4.34519        0.426085 
        6.28319         4.31425        0.423454 
        6.29893         4.28418        0.420843 
        6.31463          4.2625        0.418259 
        6.33033         4.24124        0.415698 
        6.34604         4.20473        0.413156 
        6.36177         4.18859        0.410634 
        6.37747         4.14983        0.408137 
