# k  (h/Mpc)    Pcb(k)  (Mpc/h)^3    Pcb_linear(k) (Mpc/h)^3   ShotnoiseSubtracted = true
      0.0200456         337.566         342.708 
      0.0350414         259.864         260.535 
      0.0492313         195.078          194.36 
      0.0637834         166.291         165.655 
      0.0800726         134.713         134.431 
       0.096163         98.8491         98.8297 
       0.111083          79.433         79.6612 
       0.126058         71.6279         71.5633 
       0.142273         61.5907         61.4454 
       0.158546         49.2532         48.9138 
        0.17375         41.3748         41.4553 
       0.188953         37.9306         37.8721 
       0.204907         34.4155         33.8397 
       0.220756         29.0766         28.8058 
        0.23588         25.4087         25.1631 
         0.2514         23.0572         23.0008 
       0.267535         21.0478         20.9663 
       0.283568         18.7461         18.5917 
       0.299022         16.8452          16.627 
       0.314451         15.2474         15.2623 
       0.330372           14.15         14.0797 
       0.346141         12.9158         12.8396 
       0.361624          11.844         11.7117 
       0.377134         11.0022         10.8146 
       0.392932         9.96635         10.0485 
       0.408854         9.43977          9.3011 
       0.424564         8.69272         8.60217 
       0.440253         8.08299         8.00041 
       0.455999         7.61321         7.47909 
       0.471626         7.15073         6.99883 
        0.48727         6.64932         6.54521 
       0.502856         6.21344         6.13617 
       0.518488          5.9266         5.77125 
       0.534347         5.62401         5.43143 
       0.550082         5.19376         5.11684 
       0.565732          4.8263         4.82761 
       0.581496         4.67006         4.56223 
       0.597222         4.44427         4.31844 
       0.612804         4.17443         4.09357 
       0.628434         4.01025         3.88338 
       0.644267         3.79127         3.68614 
       0.660051         3.58815         3.50414 
       0.675724         3.42646         3.33577 
       0.691403          3.2902         3.17842 
       0.707174         3.11716         3.03042 
       0.722871         2.96951         2.89252 
        0.73838         2.86302         2.76476 
       0.754018         2.75959         2.64383 
       0.769845         2.62239         2.52889 
        0.78569         2.51765         2.42076 
       0.801365         2.40598          2.3201 
       0.817031         2.31936         2.22533 
       0.832809          2.2248         2.13533 
       0.848511         2.12124          2.0508 
       0.864097         2.03291         1.97151 
       0.879701         1.95814         1.89641 
       0.895507         1.89582          1.8244 
       0.911279         1.83953         1.75634 
        0.92691         1.76702         1.69238 
       0.942635         1.69904          1.6313 
       0.958396         1.63323         1.57315 
       0.974128         1.58039         1.51799 
       0.989692         1.53681         1.46606 
        1.00528         1.48005         1.41652 
        1.02113         1.41908         1.36853 
        1.03692         1.38866         1.32297 
        1.05264         1.33911         1.27973 
        1.06832         1.30104         1.23852 
        1.08405         1.24328         1.19904 
        1.09979         1.21003         1.16129 
        1.11537         1.18204         1.12556 
        1.13105         1.14789         1.09114 
        1.14679         1.11925         1.05805 
        1.16256         1.07263         1.02629 
        1.17828         1.04516        0.995955 
        1.19395         1.01238        0.966968 
         1.2097        0.975265        0.939005 
        1.22537        0.958081        0.912298 
          1.241         0.93109        0.886727 
        1.25666        0.916325        0.862087 
        1.27241        0.878275        0.838281 
        1.28819        0.854485        0.815346 
        1.30392        0.837447         0.79335 
        1.31957        0.815307        0.772274 
        1.33529        0.791726        0.751898 
        1.35108        0.770087        0.732187 
        1.36674        0.743274        0.713334 
         1.3824        0.734602        0.695171 
        1.39811        0.712156         0.67759 
        1.41389        0.696637        0.660557 
        1.42964        0.682067        0.644148 
        1.44531        0.659561        0.628383 
        1.46101        0.648851         0.61312 
        1.47667        0.624065        0.598417 
        1.49229        0.616964        0.584242 
        1.50793        0.598635        0.570517 
        1.52367        0.587648         0.55715 
        1.53953        0.571629        0.544127 
        1.55526        0.560196         0.53163 
        1.57092        0.544522        0.519583 
        1.58662        0.535356        0.507886 
        1.60235        0.524248        0.496531 
        1.61809        0.507588        0.485522 
        1.63369        0.504321        0.474949 
        1.64941        0.489238        0.464619 
        1.66519        0.478025        0.454564 
        1.68085        0.465154        0.444881 
        1.69652        0.456709        0.435482 
        1.71228        0.449432        0.426304 
        1.72806        0.436552        0.417387 
        1.74368        0.431706        0.408818 
        1.75933        0.420247        0.400476 
        1.77505        0.411649         0.39233 
        1.79081        0.404639        0.384399 
         1.8065        0.392513        0.376724 
        1.82218        0.387801        0.369269 
        1.83797        0.378895        0.361966 
        1.85367        0.374001        0.354904 
        1.86928        0.365958        0.348075 
        1.88497        0.358577        0.341391 
        1.90073        0.350694         0.33486 
        1.91647        0.345212        0.328508 
        1.93218        0.337087        0.322336 
        1.94787         0.33151        0.316333 
        1.96363         0.32523        0.310462 
        1.97935        0.317417        0.304754 
        1.99499        0.313047        0.299223 
        2.01064        0.307432        0.293823 
         2.0264        0.300022        0.288524 
        2.04216        0.297831         0.28336 
        2.05781        0.290909        0.278357 
        2.07353        0.284088        0.273458 
        2.08928        0.278994        0.268667 
        2.10499        0.274795        0.264006 
        2.12065        0.271715        0.259471 
        2.13633        0.265779        0.255039 
        2.15211        0.261934        0.250684 
        2.16785        0.256498        0.246443 
        2.18349        0.250569        0.242329 
        2.19916        0.248768        0.238301 
        2.21489        0.243389        0.234352 
        2.23063        0.240336        0.230491 
         2.2463        0.235612        0.226736 
        2.26194        0.230666        0.223075 
        2.27765         0.22719        0.219476 
        2.29341        0.224276        0.215949 
        2.30914        0.220139        0.212507 
        2.32486        0.216344        0.209143 
        2.34061        0.212868        0.205847 
        2.35635        0.209231        0.202626 
        2.37203        0.205836        0.199486 
        2.38768        0.202601         0.19642 
        2.40339        0.199792        0.193407 
        2.41914        0.196899        0.190452 
        2.43483        0.193357         0.18757 
         2.4505        0.189466        0.184752 
        2.46622        0.186686        0.181984 
        2.48195        0.184014        0.179273 
        2.49759        0.182497        0.176632 
        2.51328        0.179409        0.174038 
        2.52906        0.176385         0.17148 
        2.54479         0.17301        0.168984 
        2.56049        0.170288        0.166543 
        2.57618          0.1678        0.164153 
        2.59189        0.165982        0.161807 
        2.60758        0.164012         0.15951 
        2.62325        0.160612        0.157262 
        2.63898         0.15871         0.15505 
        2.65468        0.155689        0.152885 
        2.67044        0.154126        0.150753 
        2.68618        0.151957        0.148666 
        2.70184        0.149383        0.146629 
        2.71755        0.146749        0.144624 
        2.73329        0.145442        0.142655 
        2.74897        0.143793        0.140729 
        2.76462        0.140994        0.138843 
        2.78034        0.139222        0.136984 
        2.79607        0.136948        0.135158 
        2.81179        0.135959        0.133367 
        2.82749        0.133678        0.131612 
        2.84321        0.131625        0.129886 
        2.85893        0.130247        0.128192 
        2.87462        0.128808        0.126532 
        2.89033        0.126767          0.1249 
        2.90605         0.12457        0.123295 
        2.92176        0.123465         0.12172 
        2.93747        0.121439        0.120173 
        2.95318        0.119931        0.118654 
        2.96891        0.118435         0.11716 
        2.98456         0.11712        0.115698 
        3.00023        0.115446         0.11426 
        3.01596        0.114106        0.112842 
        3.03164        0.113007        0.111453 
        3.04738        0.110976        0.110083 
         3.0631        0.109793        0.108737 
        3.07883        0.108323        0.107413 
        3.09456        0.106981        0.106112 
        3.11026        0.105614        0.104835 
        3.12596        0.104513        0.103579 
        3.14163        0.103172        0.102347 
        3.15734        0.102128        0.101132 
        3.17308        0.101024       0.0999339 
        3.18879       0.0995266        0.098759 
        3.20447       0.0983658       0.0976049 
         3.2202       0.0976127       0.0964658 
         3.2359       0.0962768       0.0953472 
        3.25157       0.0949934       0.0942491 
        3.26729       0.0938426       0.0931652 
        3.28304       0.0932627       0.0920964 
        3.29877       0.0919206       0.0910459 
        3.31446       0.0910439       0.0900143 
        3.33014       0.0904756       0.0889997 
        3.34585       0.0890843       0.0879994 
        3.36158        0.088097       0.0870131 
        3.37727       0.0873025       0.0860452 
        3.39294       0.0863863       0.0850931 
        3.40867       0.0852522       0.0841521 
        3.42439       0.0845202        0.083226 
        3.44008       0.0833779       0.0823158 
        3.45578       0.0829038       0.0814186 
        3.47153       0.0818369        0.080533 
        3.48724       0.0813412       0.0796623 
        3.50292         0.08024       0.0788066 
        3.51859       0.0793319        0.077964 
        3.53431       0.0787218       0.0771312 
        3.55007       0.0779598       0.0763087 
        3.56577       0.0773228       0.0755016 
        3.58146       0.0766309       0.0747066 
        3.59719       0.0761307       0.0739213 
        3.61292       0.0752217       0.0731477 
        3.62859        0.074299       0.0723882 
        3.64429       0.0737417       0.0716382 
        3.66003       0.0729835       0.0708965 
        3.67578       0.0723939       0.0701658 
        3.69146       0.0715883       0.0694482 
        3.70712       0.0713161       0.0687421 
        3.72284       0.0706909       0.0680433 
        3.73853       0.0698859       0.0673555 
        3.75422        0.069513        0.066677 
        3.76993       0.0685846       0.0660075 
        3.78564       0.0681836       0.0653474 
        3.80137       0.0675008       0.0646954 
        3.81707       0.0669758       0.0640538 
        3.83279       0.0665468       0.0634205 
        3.84853       0.0659491       0.0627947 
        3.86424       0.0654833       0.0621788 
        3.87992       0.0647766        0.061572 
        3.89561       0.0642361       0.0609735 
        3.91134       0.0637204       0.0603817 
        3.92704       0.0631618       0.0597986 
        3.94273       0.0625547       0.0592238 
        3.95845       0.0622706       0.0586556 
        3.97418       0.0615679       0.0580948 
        3.98988       0.0610085       0.0575422 
        4.00554       0.0605534       0.0569983 
        4.02125       0.0596817         0.05646 
        4.03698       0.0588042       0.0559279 
        4.05268       0.0581513       0.0554039 
        4.06839       0.0573616       0.0548863 
         4.0841       0.0565091       0.0543756 
        4.09983       0.0557634       0.0538707 
        4.11555        0.054954       0.0533725 
        4.13124       0.0542435        0.052882 
        4.14693       0.0533846       0.0523973 
        4.16266       0.0528144       0.0519176 
        4.17839       0.0522072       0.0514443 
        4.19408       0.0516637        0.050978 
        4.20977       0.0509305       0.0505174 
        4.22551       0.0501825       0.0500614 
        4.24123       0.0497386       0.0496116 
        4.25691       0.0490952       0.0491685 
        4.27259       0.0486049       0.0487308 
        4.28831       0.0480608       0.0482976 
        4.30404       0.0476641       0.0478693 
        4.31974       0.0472362       0.0474472 
        4.33543       0.0467851       0.0470305 
        4.35116       0.0463499       0.0466178 
        4.36688       0.0459639       0.0462103 
        4.38255       0.0455032       0.0458092 
        4.39825       0.0451764        0.045412 
        4.41398       0.0450637       0.0450188 
         4.4297       0.0446978       0.0446308 
        4.44541       0.0443389       0.0442474 
        4.46111       0.0440283       0.0438689 
        4.47683         0.04391       0.0434946 
        4.49251       0.0434863       0.0431254 
        4.50819       0.0433071       0.0427607 
         4.5239       0.0430253       0.0423997 
        4.53962       0.0429481       0.0420424 
        4.55535       0.0428319       0.0416892 
        4.57106       0.0426668       0.0413405 
        4.58678       0.0423302       0.0409959 
         4.6025       0.0423445        0.040655 
        4.61821       0.0423274       0.0403182 
        4.63391        0.042275       0.0399857 
         4.6496       0.0420793        0.039657 
        4.66532       0.0421393       0.0393317 
        4.68103       0.0420845       0.0390101 
        4.69673       0.0420412       0.0386925 
        4.71241       0.0421192       0.0383787 
        4.72811       0.0420221        0.038068 
        4.74384       0.0421353       0.0377603 
        4.75955       0.0421597       0.0374565 
        4.77525       0.0422608       0.0371563 
        4.79096       0.0423448       0.0368591 
        4.80669        0.042501       0.0365649 
         4.8224       0.0426727       0.0362744 
        4.83809        0.042792       0.0359873 
        4.85379       0.0429659       0.0357032 
         4.8695       0.0431681        0.035422 
        4.88521       0.0432844        0.035144 
        4.90093       0.0436331       0.0348689 
        4.91663       0.0438312       0.0345971 
        4.93234       0.0439372       0.0343278 
        4.94807       0.0441692       0.0340613 
        4.96377       0.0446117       0.0337982 
        4.97943         0.04507       0.0335384 
        4.99514       0.0451396       0.0332807 
        5.01086       0.0456226       0.0330256 
        5.02654       0.0457715       0.0327738 
        5.04227        0.046204       0.0325239 
          5.058       0.0467333       0.0322765 
        5.07371       0.0469408       0.0320322 
        5.08942       0.0474404       0.0317904 
        5.10513       0.0481504       0.0315511 
        5.12084       0.0484323       0.0313142 
        5.13656       0.0489835       0.0310798 
        5.15225        0.049674       0.0308482 
        5.16796        0.049983       0.0306186 
        5.18369       0.0505051       0.0303912 
         5.1994       0.0512437       0.0301665 
        5.21509       0.0517945       0.0299443 
        5.23079       0.0524065       0.0297242 
        5.24649        0.053068       0.0295064 
        5.26217       0.0538178        0.029291 
        5.27788       0.0544258       0.0290774 
        5.29359       0.0553193       0.0288659 
        5.30933       0.0559504       0.0286563 
        5.32504       0.0567354       0.0284491 
        5.34073       0.0576239       0.0282443 
        5.35646       0.0584667        0.028041 
        5.37218       0.0591335       0.0278397 
        5.38789       0.0604453       0.0276408 
        5.40357       0.0610899        0.027444 
        5.41929       0.0621043       0.0272488 
        5.43502        0.062652       0.0270554 
         5.4507       0.0638653       0.0268644 
        5.46639       0.0650276       0.0266752 
        5.48212       0.0660542       0.0264874 
        5.49786       0.0672443       0.0263013 
        5.51353       0.0685448       0.0261178 
        5.52921       0.0693025        0.025936 
        5.54495       0.0706082       0.0257553 
        5.56066       0.0720508       0.0255766 
        5.57637       0.0730223       0.0253996 
        5.59207       0.0745722       0.0252245 
        5.60778       0.0758499        0.025051 
        5.62346       0.0773211       0.0248793 
        5.63916       0.0785485       0.0247091 
        5.65487       0.0799579       0.0245405 
         5.6706       0.0811127       0.0243732 
        5.68633       0.0832927       0.0242075 
        5.70203       0.0843059       0.0240436 
        5.71773       0.0861437       0.0238813 
        5.73344       0.0876941       0.0237204 
        5.74916       0.0897338       0.0235609 
        5.76486       0.0913301       0.0234031 
        5.78054       0.0927514        0.023247 
        5.79626       0.0946318       0.0230919 
          5.812       0.0968639        0.022938 
         5.8277       0.0979855        0.022786 
        5.84339        0.100031       0.0226354 
        5.85911        0.102563       0.0224859 
        5.87484        0.104243       0.0223378 
        5.89053        0.106414       0.0221913 
        5.90623        0.108998       0.0220461 
        5.92195        0.111328        0.021902 
        5.93767        0.113553       0.0217592 
        5.95336        0.115436       0.0216179 
        5.96905        0.118374        0.021478 
        5.98476        0.120388       0.0213391 
        6.00048        0.122409       0.0212014 
        6.01617        0.125802       0.0210652 
        6.03185        0.128121       0.0209303 
        6.04756        0.130926       0.0207962 
        6.06331          0.1332       0.0206631 
        6.07903        0.135984       0.0205314 
        6.09473        0.139111        0.020401 
        6.11044        0.142634       0.0202717 
        6.12616        0.145084       0.0201435 
        6.14186        0.148556       0.0200165 
        6.15755        0.150958       0.0198906 
        6.17326        0.154738       0.0197658 
        6.18898        0.158031       0.0196419 
        6.20467        0.161361       0.0195194 
        6.22036        0.164488       0.0193979 
         6.2361        0.167657       0.0192771 
         6.2518        0.171375       0.0191576 
        6.26748        0.174049       0.0190394 
        6.28319        0.178358       0.0189218 
        6.29893        0.182513       0.0188052 
        6.31463        0.185877       0.0186897 
        6.33033         0.18976       0.0185752 
        6.34604        0.194485       0.0184617 
        6.36177        0.197307        0.018349 
        6.37747        0.202336       0.0182374 
