# k  (h/Mpc)    Pcb(k)  (Mpc/h)^3    Pcb_linear(k) (Mpc/h)^3   ShotnoiseSubtracted = true
      0.0200456         891.756         906.112 
      0.0350414         682.977         687.258 
      0.0492313         507.834         506.104 
      0.0637834         434.687         431.416 
      0.0800726         357.586         356.366 
       0.096163         261.028         261.994 
       0.111083         205.924         207.271 
       0.126058         186.652         185.939 
       0.142273         164.095         163.295 
       0.158546         132.045         130.584 
        0.17375         108.389         108.503 
       0.188953         99.5877         98.6003 
       0.204907         92.7326         89.7789 
       0.220756         78.6518         77.1473 
        0.23588         68.0479         66.5028 
         0.2514         61.0319         60.2344 
       0.267535         56.5003         55.5075 
       0.283568         50.9364          49.738 
       0.299022         45.7969         44.2288 
       0.314451          40.989         40.2749 
       0.330372         38.2956         37.2998 
       0.346141         35.1819         34.2931 
       0.361624         32.4062         31.2631 
       0.377134         30.1856         28.7214 
       0.392932         27.0483         26.6941 
       0.408854         26.0086         24.8255 
       0.424564         24.1552         22.9996 
       0.440253         22.3435         21.3425 
       0.455999          21.114         19.9378 
       0.471626         19.9047         18.6972 
        0.48727         18.6637         17.5161 
       0.502856         17.4376          16.418 
       0.518488         16.6898         15.4313 
       0.534347         15.9439          14.536 
       0.550082          14.646         13.7104 
       0.565732         13.5762          12.942 
       0.581496         13.2986         12.2289 
       0.597222          12.754         11.5803 
       0.612804         11.9206         10.9852 
       0.628434         11.5033         10.4276 
       0.644267         11.0006         9.90073 
       0.660051         10.4058         9.41411 
       0.675724         9.91556         8.96571 
       0.691403         9.58591          8.5468 
       0.707174         9.11358         8.15249 
       0.722871         8.74348         7.78485 
        0.73838         8.42866         7.44404 
       0.754018         8.15185         7.12125 
       0.769845          7.7472         6.81428 
        0.78569         7.50231         6.52534 
       0.801365         7.18827         6.25624 
       0.817031         6.96295         6.00274 
       0.832809         6.72604         5.76194 
       0.848511         6.36625          5.5357 
       0.864097         6.15222         5.32342 
       0.879701         5.95528         5.12231 
       0.895507         5.72197         4.92943 
       0.911279         5.63464         4.74708 
        0.92691         5.42836         4.57566 
       0.942635         5.19795         4.41192 
       0.958396         5.02235         4.25601 
       0.974128         4.89344         4.10806 
       0.989692          4.8019         3.96875 
        1.00528         4.59757         3.83581 
        1.02113         4.43205         3.70699 
        1.03692         4.36382         3.58467 
        1.05264         4.21152         3.46852 
        1.06832         4.11547          3.3578 
        1.08405         3.92506          3.2517 
        1.09979         3.85065         3.15021 
        1.11537         3.75981         3.05413 
        1.13105         3.66959         2.96155 
        1.14679         3.57525         2.87252 
        1.16256         3.46105         2.78704 
        1.17828         3.38723         2.70538 
        1.19395         3.29908         2.62733 
         1.2097          3.1642         2.55201 
        1.22537         3.10383         2.48006 
          1.241         3.04207         2.41116 
        1.25666         3.02005         2.34474 
        1.27241         2.88556         2.28056 
        1.28819         2.82137         2.21871 
        1.30392         2.77858         2.15938 
        1.31957         2.71553         2.10252 
        1.33529         2.63923         2.04753 
        1.35108         2.58401         1.99433 
        1.36674         2.51111         1.94343 
         1.3824         2.45144         1.89438 
        1.39811         2.40096         1.84689 
        1.41389         2.36253         1.80088 
        1.42964         2.31291         1.75654 
        1.44531         2.26417         1.71393 
        1.46101         2.22453         1.67267 
        1.47667         2.14641         1.63292 
        1.49229         2.13164         1.59458 
        1.50793         2.07676         1.55745 
        1.52367          2.0495         1.52129 
        1.53953         1.98432         1.48605 
        1.55526         1.95007         1.45222 
        1.57092         1.91548         1.41961 
        1.58662         1.88389         1.38793 
        1.60235         1.84337         1.35718 
        1.61809         1.80412         1.32735 
        1.63369         1.78762         1.29871 
        1.64941         1.74078         1.27072 
        1.66519         1.71595         1.24346 
        1.68085         1.66544         1.21721 
        1.69652         1.64299         1.19172 
        1.71228         1.62379         1.16683 
        1.72806         1.57903         1.14264 
        1.74368         1.56329         1.11939 
        1.75933         1.52658         1.09676 
        1.77505         1.50488         1.07465 
        1.79081         1.47908         1.05312 
         1.8065         1.44775         1.03228 
        1.82218          1.4327         1.01203 
        1.83797         1.41168        0.992199 
        1.85367         1.39543        0.973014 
        1.86928         1.36942         0.95446 
        1.88497         1.33738        0.936296 
        1.90073          1.3112        0.918545 
        1.91647          1.3049        0.901276 
        1.93218         1.27765        0.884495 
        1.94787         1.25474        0.868173 
        1.96363         1.23497        0.852204 
        1.97935         1.21393        0.836676 
        1.99499         1.19485        0.821628 
        2.01064         1.17678        0.806934 
         2.0264         1.16547        0.792513 
        2.04216          1.1464        0.778456 
        2.05781         1.12848        0.764835 
        2.07353         1.11206        0.751495 
        2.08928         1.09036         0.73845 
        2.10499         1.07832        0.725753 
        2.12065          1.0713        0.713398 
        2.13633         1.04992        0.701324 
        2.15211         1.03087        0.689456 
        2.16785         1.01532        0.677899 
        2.18349         1.00345        0.666684 
        2.19916        0.989504        0.655703 
        2.21489        0.973021        0.644936 
        2.23063        0.960935        0.634407 
         2.2463        0.955002        0.624164 
        2.26194        0.928633        0.614176 
        2.27765        0.920063        0.604359 
        2.29341        0.913116        0.594734 
        2.30914        0.906033        0.585341 
        2.32486        0.887984        0.576159 
        2.34061        0.875049        0.567162 
        2.35635        0.861249        0.558368 
        2.37203        0.852381        0.549793 
        2.38768        0.842515        0.541419 
        2.40339        0.832759        0.533192 
        2.41914        0.822605        0.525118 
        2.43483        0.810261        0.517243 
         2.4505         0.79972        0.509545 
        2.46622        0.789957        0.501979 
        2.48195        0.785743        0.494568 
        2.49759        0.772844        0.487349 
        2.51328        0.759346        0.480257 
        2.52906        0.753387        0.473264 
        2.54479        0.744551        0.466437 
        2.56049        0.732405        0.459761 
        2.57618        0.727375        0.453223 
        2.59189        0.718782        0.446804 
        2.60758        0.710047        0.440521 
        2.62325         0.70051        0.434368 
        2.63898        0.696303        0.428313 
        2.65468        0.685562        0.422387 
        2.67044        0.676065         0.41655 
        2.68618        0.669378        0.410839 
        2.70184        0.662586        0.405258 
        2.71755        0.654571        0.399769 
        2.73329        0.647584        0.394375 
        2.74897         0.64133        0.389099 
        2.76462        0.633924        0.383932 
        2.78034        0.626523         0.37884 
        2.79607        0.620959        0.373835 
        2.81179        0.612578        0.368928 
        2.82749        0.607964        0.364116 
        2.84321         0.60227        0.359385 
        2.85893        0.594533        0.354741 
        2.87462        0.588245        0.350188 
        2.89033        0.580713        0.345712 
        2.90605        0.577358        0.341312 
        2.92176        0.569994        0.336991 
        2.93747        0.564286        0.332749 
        2.95318         0.55859        0.328579 
        2.96891         0.55337         0.32448 
        2.98456        0.548322         0.32047 
        3.00023        0.543749        0.316523 
        3.01596         0.53716        0.312631 
        3.03164        0.532127        0.308816 
        3.04738        0.524188        0.305055 
         3.0631        0.522628        0.301359 
        3.07883        0.515743        0.297724 
        3.09456         0.51021        0.294151 
        3.11026        0.507123        0.290643 
        3.12596        0.500736        0.287193 
        3.14163        0.497762        0.283807 
        3.15734        0.494587         0.28047 
        3.17308        0.488228        0.277178 
        3.18879        0.485293        0.273949 
        3.20447        0.477916        0.270777 
         3.2202        0.476972        0.267646 
         3.2359        0.471492        0.264571 
        3.25157         0.46671        0.261552 
        3.26729        0.463716        0.258572 
        3.28304        0.459478        0.255632 
        3.29877        0.454424        0.252743 
        3.31446        0.451327        0.249906 
        3.33014        0.447661        0.247115 
        3.34585        0.445883        0.244363 
        3.36158        0.440934         0.24165 
        3.37727        0.437572        0.238986 
        3.39294        0.433795        0.236366 
        3.40867        0.430057        0.233776 
        3.42439        0.427242        0.231227 
        3.44008        0.424052        0.228721 
        3.45578        0.422111        0.226251 
        3.47153        0.417276        0.223813 
        3.48724        0.415505        0.221415 
        3.50292        0.412453        0.219059 
        3.51859        0.407826        0.216738 
        3.53431        0.405101        0.214445 
        3.55007        0.403479        0.212179 
        3.56577        0.398472        0.209955 
        3.58146        0.395308        0.207765 
        3.59719        0.393206        0.205601 
        3.61292         0.39149        0.203469 
        3.62859        0.386772        0.201376 
        3.64429        0.384816        0.199308 
        3.66003        0.381619        0.197264 
        3.67578        0.379125         0.19525 
        3.69146        0.375982        0.193271 
        3.70712        0.374276        0.191324 
        3.72284        0.371294        0.189397 
        3.73853        0.369831          0.1875 
        3.75422        0.365863        0.185629 
        3.76993        0.363853        0.183782 
        3.78564        0.360818        0.181961 
        3.80137        0.358423        0.180163 
        3.81707        0.356738        0.178392 
        3.83279        0.353244        0.176644 
        3.84853         0.35093        0.174918 
        3.86424        0.348342        0.173218 
        3.87992        0.346502        0.171543 
        3.89561        0.343569        0.169891 
        3.91134        0.342593        0.168257 
        3.92704        0.338641        0.166647 
        3.94273        0.335919         0.16506 
        3.95845        0.333904        0.163491 
        3.97418        0.331769        0.161942 
        3.98988        0.328689        0.160416 
        4.00554        0.326919        0.158914 
        4.02125        0.324177        0.157427 
        4.03698        0.321113        0.155957 
        4.05268        0.318795        0.154509 
        4.06839        0.314511        0.153079 
         4.0841         0.31117        0.151668 
        4.09983        0.308438        0.150272 
        4.11555        0.305455        0.148895 
        4.13124        0.302006         0.14754 
        4.14693        0.299919          0.1462 
        4.16266        0.297118        0.144874 
        4.17839        0.294929        0.143565 
        4.19408        0.291907        0.142276 
        4.20977        0.290218        0.141002 
        4.22551        0.287353        0.139741 
        4.24123        0.285419        0.138497 
        4.25691        0.282931        0.137272 
        4.27259        0.280479        0.136061 
        4.28831         0.27866        0.134863 
        4.30404        0.275706        0.133678 
        4.31974        0.274918         0.13251 
        4.33543        0.272403        0.131357 
        4.35116        0.270124        0.130215 
        4.36688        0.268953        0.129087 
        4.38255        0.266473        0.127977 
        4.39825        0.265442        0.126878 
        4.41398        0.263289        0.125789 
         4.4297        0.261928        0.124715 
        4.44541        0.260525        0.123654 
        4.46111        0.259233        0.122606 
        4.47683        0.257991        0.121569 
        4.49251        0.255948        0.120547 
        4.50819        0.254208        0.119537 
         4.5239        0.253785        0.118537 
        4.53962        0.252761        0.117547 
        4.55535        0.250719        0.116569 
        4.57106        0.250294        0.115603 
        4.58678        0.249302        0.114648 
         4.6025        0.247876        0.113704 
        4.61821        0.247101         0.11277 
        4.63391        0.245955        0.111849 
         4.6496        0.245062        0.110938 
        4.66532        0.244635        0.110036 
        4.68103        0.244123        0.109145 
        4.69673        0.242904        0.108264 
        4.71241        0.242692        0.107395 
        4.72811        0.241381        0.106533 
        4.74384        0.241635         0.10568 
        4.75955        0.240937        0.104838 
        4.77525        0.240491        0.104005 
        4.79096        0.239444        0.103181 
        4.80669        0.239573        0.102365 
         4.8224        0.238725        0.101559 
        4.83809        0.238387        0.100763 
        4.85379        0.238458       0.0999749 
         4.8695        0.238317       0.0991948 
        4.88521         0.23739       0.0984233 
        4.90093        0.238194       0.0976601 
        4.91663         0.23803       0.0969058 
        4.93234        0.237333       0.0961587 
        4.94807        0.237649       0.0954191 
        4.96377        0.238174       0.0946887 
        4.97943        0.238618       0.0939676 
        4.99514         0.23806       0.0932523 
        5.01086        0.238763        0.092544 
        5.02654        0.238339       0.0918449 
        5.04227         0.23858       0.0911511 
          5.058        0.238873       0.0904642 
        5.07371        0.239882       0.0897859 
        5.08942        0.240265       0.0891144 
        5.10513        0.240104       0.0884499 
        5.12084        0.241258       0.0877919 
        5.13656        0.241496       0.0871408 
        5.15225        0.241745       0.0864975 
        5.16796        0.243358       0.0858597 
        5.18369        0.242733       0.0852279 
         5.1994        0.244289       0.0846036 
        5.21509        0.244588       0.0839863 
        5.23079        0.245919       0.0833744 
        5.24649        0.246972       0.0827692 
        5.26217        0.247135       0.0821706 
        5.27788        0.248385        0.081577 
        5.29359        0.249414       0.0809893 
        5.30933        0.250576       0.0804066 
        5.32504         0.25109       0.0798307 
        5.34073        0.252396       0.0792611 
        5.35646        0.252381        0.078696 
        5.37218        0.254117       0.0781364 
        5.38789        0.255211       0.0775832 
        5.40357        0.257324        0.077036 
        5.41929         0.25824        0.076493 
        5.43502        0.258059       0.0759552 
         5.4507        0.260678       0.0754239 
        5.46639        0.261228       0.0748977 
        5.48212        0.263359       0.0743754 
        5.49786        0.264645       0.0738575 
        5.51353        0.266738       0.0733471 
        5.52921        0.267654       0.0728411 
        5.54495        0.269302       0.0723385 
        5.56066        0.270615       0.0718412 
        5.57637        0.272755       0.0713487 
        5.59207        0.274136       0.0708613 
        5.60778        0.276202       0.0703783 
        5.62346        0.278033       0.0699006 
        5.63916        0.279053       0.0694269 
        5.65487        0.280499       0.0689574 
         5.6706        0.282644       0.0684918 
        5.68633        0.284348       0.0680303 
        5.70203        0.286418       0.0675741 
        5.71773        0.288254       0.0671222 
        5.73344         0.28966       0.0666742 
        5.74916        0.293015         0.06623 
        5.76486        0.293972       0.0657905 
        5.78054         0.29544       0.0653557 
        5.79626        0.297978       0.0649236 
          5.812         0.29991       0.0644951 
         5.8277        0.301383       0.0640717 
        5.84339        0.304712       0.0636522 
        5.85911        0.306342       0.0632357 
        5.87484        0.307226       0.0628231 
        5.89053        0.311172       0.0624149 
        5.90623        0.312798       0.0620103 
        5.92195        0.314733       0.0616086 
        5.93767        0.316374       0.0612107 
        5.95336        0.319055        0.060817 
        5.96905        0.322179        0.060427 
        5.98476        0.322654       0.0600399 
        6.00048        0.326353       0.0596561 
        6.01617        0.327834       0.0592762 
        6.03185        0.329727       0.0589001 
        6.04756        0.332083       0.0585265 
        6.06331        0.333719       0.0581553 
        6.07903        0.335756       0.0577881 
        6.09473        0.338782       0.0574245 
        6.11044        0.341675       0.0570638 
        6.12616        0.343398       0.0567062 
        6.14186        0.347346       0.0563521 
        6.15755        0.348963       0.0560011 
        6.17326        0.351767       0.0556528 
        6.18898        0.353606       0.0553074 
        6.20467        0.355537       0.0549655 
        6.22036           0.356       0.0546266 
         6.2361         0.35967       0.0542897 
         6.2518        0.362974       0.0539562 
        6.26748        0.363013       0.0536263 
        6.28319        0.365924       0.0532982 
        6.29893        0.368805       0.0529727 
        6.31463        0.373304       0.0526504 
        6.33033        0.372404        0.052331 
        6.34604        0.376796        0.052014 
        6.36177        0.378785       0.0516994 
        6.37747        0.381201        0.051388 
