# k  (h/Mpc)    Pcb(k)  (Mpc/h)^3    Pcb_linear(k) (Mpc/h)^3   ShotnoiseSubtracted = true
      0.0200456          4087.9         4149.94 
      0.0350414         3200.33          3147.6 
      0.0492313         2315.33         2317.93 
      0.0637834         1933.73         1975.86 
      0.0800726         1585.84         1632.14 
       0.096163         1223.71         1199.92 
       0.111083          983.07         949.288 
       0.126058         842.771         851.588 
       0.142273         738.761         747.882 
       0.158546         607.436         598.068 
        0.17375         518.785         496.939 
       0.188953         471.577         451.584 
       0.204907         410.625         411.182 
       0.220756         368.266          353.33 
        0.23588         322.083         304.579 
         0.2514         290.292          275.87 
       0.267535          276.72         254.221 
       0.283568         244.576         227.797 
       0.299022         227.148         202.565 
       0.314451          217.89         184.457 
       0.330372         192.723         170.831 
       0.346141         178.757          157.06 
       0.361624         167.293         143.183 
       0.377134          152.89         131.542 
       0.392932         149.532         122.257 
       0.408854          139.67         113.699 
       0.424564         133.708         105.337 
       0.440253         121.793         97.7476 
       0.455999          113.18         91.3138 
       0.471626         108.662         85.6321 
        0.48727         105.955         80.2226 
       0.502856         97.9821         75.1937 
       0.518488          94.369         70.6746 
       0.534347         89.2546         66.5738 
       0.550082         86.4819         62.7928 
       0.565732         84.0658         59.2737 
       0.581496         78.3082         56.0076 
       0.597222          75.422         53.0372 
       0.612804         73.1329         50.3114 
       0.628434         71.5683         47.7577 
       0.644267         67.8283         45.3448 
       0.660051         65.2314         43.1161 
       0.675724         63.1281         41.0624 
       0.691403         62.2462         39.1438 
       0.707174         60.2571         37.3379 
       0.722871         58.4076         35.6542 
        0.73838         55.9702         34.0933 
       0.754018         53.3202         32.6149 
       0.769845         52.6427          31.209 
        0.78569         50.7819         29.8857 
       0.801365         49.5596         28.6532 
       0.817031         47.7473         27.4922 
       0.832809         47.0663         26.3893 
       0.848511         45.5851         25.3532 
       0.864097         44.6107          24.381 
       0.879701         43.8601         23.4599 
       0.895507         42.3669         22.5765 
       0.911279         41.1861         21.7414 
        0.92691         40.4281         20.9562 
       0.942635         39.7061         20.2063 
       0.958396          38.976         19.4923 
       0.974128         37.9321         18.8147 
       0.989692         36.7079         18.1766 
        1.00528         36.3595         17.5678 
        1.02113         35.4652         16.9778 
        1.03692          34.879         16.4176 
        1.05264         34.1868         15.8856 
        1.06832         33.6118         15.3785 
        1.08405         32.7001         14.8926 
        1.09979         32.3941         14.4278 
        1.11537         31.4617         13.9877 
        1.13105         30.9755         13.5637 
        1.14679         30.2628          13.156 
        1.16256          29.856         12.7645 
        1.17828         29.4509         12.3905 
        1.19395          28.991          12.033 
         1.2097         28.3241         11.6881 
        1.22537         27.9269         11.3586 
          1.241         27.4474          11.043 
        1.25666         27.1028         10.7388 
        1.27241         26.6577         10.4448 
        1.28819         25.7139         10.1616 
        1.30392          26.079         9.88982 
        1.31957         25.4102          9.6294 
        1.33529         24.9273         9.37757 
        1.35108         24.7445          9.1339 
        1.36674          24.322         8.90079 
         1.3824         23.8937         8.67616 
        1.39811         23.4258         8.45867 
        1.41389         23.1993         8.24793 
        1.42964         22.9404         8.04485 
        1.44531         22.5956         7.84971 
        1.46101          22.275         7.66075 
        1.47667         22.0263         7.47866 
        1.49229         21.6027         7.30309 
        1.50793         21.3973         7.13305 
        1.52367         21.1521         6.96741 
        1.53953          20.832         6.80601 
        1.55526         20.5029         6.65109 
        1.57092         20.4813         6.50171 
        1.58662         20.1906         6.35665 
        1.60235         19.8218          6.2158 
        1.61809         19.6704         6.07921 
        1.63369         19.3773         5.94801 
        1.64941         19.2097          5.8198 
        1.66519         18.8557         5.69497 
        1.68085         18.5601         5.57475 
        1.69652         18.6265         5.45802 
        1.71228         18.2251         5.34402 
        1.72806         17.9935         5.23324 
        1.74368         17.8457         5.12676 
        1.75933         17.7027         5.02308 
        1.77505         17.4607         4.92182 
        1.79081         17.2775         4.82322 
         1.8065         17.1728         4.72778 
        1.82218         16.9892         4.63505 
        1.83797         16.8308         4.54421 
        1.85367         16.7092         4.45635 
        1.86928         16.4998         4.37137 
        1.88497         16.3186         4.28818 
        1.90073         16.0989         4.20688 
        1.91647          15.765         4.12779 
        1.93218         15.7856         4.05094 
        1.94787          15.495         3.97618 
        1.96363         15.4694         3.90305 
        1.97935         15.3118         3.83193 
        1.99499         15.1209         3.76301 
        2.01064         14.9991         3.69571 
         2.0264          14.753         3.62966 
        2.04216         14.8079         3.56529 
        2.05781         14.6352          3.5029 
        2.07353         14.4583         3.44181 
        2.08928         14.2422         3.38206 
        2.10499         14.0983         3.32391 
        2.12065         14.0528         3.26732 
        2.13633         13.8872         3.21202 
        2.15211         13.7607         3.15767 
        2.16785         13.5936         3.10474 
        2.18349         13.4891         3.05337 
        2.19916         13.3314         3.00308 
        2.21489         13.2526         2.95377 
        2.23063         13.1913         2.90555 
         2.2463         12.9635         2.85864 
        2.26194         12.8931         2.81289 
        2.27765         12.7416         2.76793 
        2.29341         12.5784         2.72385 
        2.30914         12.5568         2.68083 
        2.32486         12.4387         2.63878 
        2.34061         12.3613         2.59757 
        2.35635         12.2109         2.55729 
        2.37203          12.076         2.51802 
        2.38768         11.9598         2.47967 
        2.40339         11.9159         2.44199 
        2.41914         11.7826         2.40501 
        2.43483         11.7202         2.36894 
         2.4505         11.6285         2.33369 
        2.46622         11.4826         2.29903 
        2.48195         11.4664          2.2651 
        2.49759         11.2633         2.23203 
        2.51328         11.2426         2.19955 
        2.52906         11.1239         2.16752 
        2.54479         10.9959         2.13626 
        2.56049         10.9385         2.10568 
        2.57618         10.8596         2.07573 
        2.59189         10.8434         2.04634 
        2.60758         10.6904         2.01756 
        2.62325         10.6021         1.98938 
        2.63898         10.5724         1.96165 
        2.65468         10.4327         1.93451 
        2.67044         10.3536         1.90778 
        2.68618         10.2561         1.88162 
        2.70184         10.2324         1.85606 
        2.71755         10.1122         1.83092 
        2.73329         9.99605         1.80621 
        2.74897         9.95284         1.78205 
        2.76462         9.91358         1.75839 
        2.78034         9.80559         1.73506 
        2.79607          9.7413         1.71214 
        2.81179         9.64928         1.68967 
        2.82749         9.58923         1.66763 
        2.84321         9.51789         1.64596 
        2.85893         9.46745          1.6247 
        2.87462         9.37149         1.60384 
        2.89033         9.29017         1.58334 
        2.90605         9.24295         1.56319 
        2.92176         9.15571          1.5434 
        2.93747         9.08236         1.52397 
        2.95318         9.01062         1.50487 
        2.96891         8.93663          1.4861 
        2.98456         8.87841         1.46773 
        3.00023         8.83766         1.44966 
        3.01596          8.7084         1.43183 
        3.03164         8.68479         1.41436 
        3.04738         8.61621         1.39713 
         3.0631         8.55482         1.38021 
        3.07883         8.50151         1.36356 
        3.09456         8.39708         1.34719 
        3.11026         8.37062         1.33113 
        3.12596         8.29434         1.31533 
        3.14163         8.26978         1.29982 
        3.15734         8.18139         1.28454 
        3.17308         8.14472         1.26946 
        3.18879         8.07437         1.25467 
        3.20447         8.01187         1.24014 
         3.2202         7.95307          1.2258 
         3.2359         7.90215         1.21172 
        3.25157         7.85087         1.19789 
        3.26729         7.79462         1.18424 
        3.28304         7.73617         1.17078 
        3.29877         7.69707         1.15755 
        3.31446          7.6515         1.14455 
        3.33014         7.57483         1.13177 
        3.34585         7.52571         1.11917 
        3.36158          7.4733         1.10674 
        3.37727         7.42447         1.09454 
        3.39294         7.37112         1.08254 
        3.40867         7.32867         1.07068 
        3.42439         7.24425         1.05901 
        3.44008         7.20009         1.04753 
        3.45578         7.16113         1.03622 
        3.47153         7.09706         1.02505 
        3.48724         7.05708         1.01407 
        3.50292         7.00974         1.00328 
        3.51859         6.96117        0.992649 
        3.53431         6.92153        0.982144 
        3.55007         6.87372        0.971767 
        3.56577          6.7987        0.961582 
        3.58146         6.77353         0.95155 
        3.59719         6.72733         0.94164 
        3.61292         6.68678        0.931877 
        3.62859         6.63869         0.92229 
        3.64429          6.5971        0.912821 
        3.66003          6.5497        0.903459 
        3.67578          6.5182        0.894232 
        3.69146         6.45765        0.885171 
        3.70712         6.42426        0.876254 
        3.72284         6.38139        0.867428 
        3.73853          6.3293        0.858741 
        3.75422         6.28503         0.85017 
        3.76993         6.26345        0.841711 
        3.78564         6.21478        0.833372 
        3.80137         6.16134        0.825134 
        3.81707         6.10866        0.817026 
        3.83279         6.08847        0.809022 
        3.84853         6.03343        0.801113 
        3.86424         5.99321        0.793327 
        3.87992         5.97318        0.785657 
        3.89561         5.92949         0.77809 
        3.91134         5.88114        0.770608 
        3.92704         5.83801        0.763234 
        3.94273         5.79943        0.755966 
        3.95845         5.76364         0.74878 
        3.97418         5.72081        0.741687 
        3.98988          5.6882        0.734697 
        4.00554          5.6614        0.727817 
        4.02125         5.60308        0.721007 
        4.03698         5.57797        0.714274 
        4.05268          5.5364        0.707644 
        4.06839          5.4873        0.701094 
         4.0841         5.45514         0.69463 
        4.09983         5.42642        0.688239 
        4.11555         5.37475        0.681933 
        4.13124         5.35333        0.675723 
        4.14693         5.33245        0.669587 
        4.16266         5.27944        0.663514 
        4.17839         5.25378        0.657521 
        4.19408         5.21795        0.651616 
        4.20977         5.17182        0.645783 
        4.22551         5.13293        0.640007 
        4.24123         5.08874        0.634309 
        4.25691         5.07037        0.628697 
        4.27259         5.03696        0.623152 
        4.28831         4.99168        0.617664 
        4.30404         4.96804        0.612237 
        4.31974         4.92771        0.606888 
        4.33543         4.89736        0.601607 
        4.35116         4.87113        0.596376 
        4.36688         4.85402        0.591211 
        4.38255         4.82493        0.586127 
        4.39825         4.79075        0.581092 
        4.41398         4.75908        0.576108 
         4.4297         4.73654        0.571188 
        4.44541         4.70176        0.566326 
        4.46111         4.65208        0.561526 
        4.47683         4.62363        0.556779 
        4.49251         4.60078        0.552097 
        4.50819         4.58101        0.547471 
         4.5239         4.53085        0.542892 
        4.53962         4.50329         0.53836 
        4.55535         4.49036        0.533878 
        4.57106          4.4563        0.529455 
        4.58678         4.42308        0.525081 
         4.6025         4.40516        0.520756 
        4.61821         4.37142        0.516481 
        4.63391         4.33714        0.512261 
         4.6496         4.31621         0.50809 
        4.66532         4.28887        0.503959 
        4.68103         4.26687        0.499877 
        4.69673         4.23666        0.495845 
        4.71241         4.20786        0.491861 
        4.72811         4.18375        0.487916 
        4.74384         4.17371        0.484009 
        4.75955         4.13299        0.480151 
        4.77525         4.10717        0.476338 
        4.79096          4.0782        0.472562 
        4.80669         4.05657        0.468826 
         4.8224         4.03312        0.465136 
        4.83809          4.0144        0.461489 
        4.85379         3.97677         0.45788 
         4.8695         3.95822        0.454306 
        4.88521         3.93905        0.450773 
        4.90093         3.91093        0.447278 
        4.91663         3.89175        0.443823 
        4.93234         3.86235        0.440401 
        4.94807         3.85295        0.437014 
        4.96377         3.81568        0.433669 
        4.97943          3.8033        0.430366 
        4.99514         3.77594         0.42709 
        5.01086         3.74246        0.423846 
        5.02654         3.72391        0.420645 
        5.04227         3.70434        0.417467 
          5.058         3.69403        0.414321 
        5.07371         3.66387        0.411214 
        5.08942         3.63011        0.408139 
        5.10513         3.62175        0.405096 
        5.12084         3.59608        0.402082 
        5.13656         3.57465          0.3991 
        5.15225         3.55646        0.396154 
        5.16796         3.53432        0.393233 
        5.18369         3.50698        0.390339 
         5.1994         3.48642         0.38748 
        5.21509         3.46892        0.384652 
        5.23079         3.45169         0.38185 
        5.24649          3.4293        0.379078 
        5.26217         3.40802        0.376336 
        5.27788         3.39507        0.373618 
        5.29359         3.37173        0.370926 
        5.30933         3.36095        0.368258 
        5.32504         3.33787         0.36562 
        5.34073         3.30762        0.363011 
        5.35646         3.29575        0.360423 
        5.37218         3.27673         0.35786 
        5.38789         3.26022        0.355326 
        5.40357         3.23842        0.352821 
        5.41929         3.22766        0.350334 
        5.43502         3.20372        0.347871 
         5.4507         3.17772        0.345437 
        5.46639         3.16242        0.343027 
        5.48212         3.15037        0.340635 
        5.49786         3.13272        0.338263 
        5.51353         3.10867        0.335926 
        5.52921          3.0956        0.333608 
        5.54495           3.077        0.331306 
        5.56066         3.05546        0.329028 
        5.57637         3.04686        0.326773 
        5.59207          3.0261        0.324541 
        5.60778          3.0149        0.322329 
        5.62346         2.98854        0.320141 
        5.63916         2.97882        0.317971 
        5.65487         2.95435        0.315821 
         5.6706         2.94403        0.313688 
        5.68633          2.9308        0.311575 
        5.70203         2.91276        0.309485 
        5.71773         2.89553        0.307416 
        5.73344         2.87383        0.305364 
        5.74916         2.86221         0.30333 
        5.76486         2.85035        0.301317 
        5.78054         2.82896        0.299325 
        5.79626         2.82029        0.297347 
          5.812         2.79824        0.295384 
         5.8277         2.78324        0.293445 
        5.84339         2.77684        0.291524 
        5.85911         2.75642        0.289616 
        5.87484         2.74087        0.287726 
        5.89053         2.72713        0.285857 
        5.90623         2.71126        0.284004 
        5.92195         2.69797        0.282164 
        5.93767         2.68405        0.280342 
        5.95336         2.66914        0.278539 
        5.96905         2.65659        0.276752 
        5.98476         2.63621        0.274979 
        6.00048         2.62521        0.273222 
        6.01617         2.61298        0.271482 
        6.03185         2.59597        0.269759 
        6.04756         2.58758        0.268048 
        6.06331         2.57304        0.266348 
        6.07903         2.55999        0.264666 
        6.09473         2.54367        0.263001 
        6.11044         2.53575        0.261349 
        6.12616         2.52165        0.259711 
        6.14186         2.51052        0.258089 
        6.15755         2.49643        0.256482 
        6.17326         2.47838        0.254887 
        6.18898         2.46775        0.253304 
        6.20467         2.45151        0.251739 
        6.22036         2.44328        0.250187 
         6.2361         2.42852        0.248644 
         6.2518         2.41939        0.247116 
        6.26748         2.40722        0.245605 
        6.28319         2.39699        0.244103 
        6.29893         2.38256        0.242612 
        6.31463         2.36871        0.241136 
        6.33033         2.35396        0.239673 
        6.34604         2.34314        0.238221 
        6.36177         2.33548         0.23678 
        6.37747         2.32464        0.235354 
