# k  (h/Mpc)    Pcb(k)  (Mpc/h)^3    Pcb_linear(k) (Mpc/h)^3   ShotnoiseSubtracted = true
      0.0200456         2518.44          2555.9 
      0.0350414         1965.93         1938.58 
      0.0492313         1429.25         1427.59 
      0.0637834         1197.29         1216.91 
      0.0800726         983.003         1005.22 
       0.096163         751.959         739.016 
       0.111083          602.28         584.656 
       0.126058         520.275         524.484 
       0.142273         455.132         460.612 
       0.158546         372.429         368.344 
        0.17375         316.335         306.059 
       0.188953         286.168         278.126 
       0.204907         250.443         253.243 
       0.220756         223.286         217.613 
        0.23588          194.35         187.587 
         0.2514         175.634         169.906 
       0.267535         165.442         156.572 
       0.283568         146.906         140.298 
       0.299022         134.584         124.758 
       0.314451         127.213         113.605 
       0.330372         114.039         105.213 
       0.346141         105.388         96.7319 
       0.361624         97.5015         88.1849 
       0.377134         89.1112         81.0156 
       0.392932         86.8071          75.297 
       0.408854         80.0158         70.0262 
       0.424564         76.6518          64.876 
       0.440253         70.0155         60.2017 
       0.455999          64.404         56.2392 
       0.471626         61.2907         52.7399 
        0.48727         59.8268         49.4083 
       0.502856         55.7901          46.311 
       0.518488         52.6464         43.5278 
       0.534347         49.7396         41.0021 
       0.550082          47.969         38.6734 
       0.565732         46.3393          36.506 
       0.581496         43.5898         34.4945 
       0.597222         41.3859         32.6651 
       0.612804         39.7449         30.9863 
       0.628434         39.0187         29.4135 
       0.644267         36.9746         27.9274 
       0.660051         35.2753         26.5547 
       0.675724         33.7718         25.2899 
       0.691403         33.2298         24.1083 
       0.707174         32.0157          22.996 
       0.722871         30.9671          21.959 
        0.73838         29.4364         20.9977 
       0.754018         28.0762         20.0872 
       0.769845         27.4299         19.2213 
        0.78569          26.575         18.4063 
       0.801365         25.7005         17.6472 
       0.817031         24.8337         16.9322 
       0.832809         24.1901         16.2529 
       0.848511         23.4663         15.6148 
       0.864097         22.7466          15.016 
       0.879701         22.4163         14.4487 
       0.895507         21.6173         13.9046 
       0.911279         20.7895         13.3903 
        0.92691         20.4356         12.9067 
       0.942635         20.0098         12.4449 
       0.958396         19.3396         12.0051 
       0.974128          18.897         11.5878 
       0.989692         18.1331         11.1948 
        1.00528         18.0218         10.8198 
        1.02113         17.4575         10.4564 
        1.03692         17.0866         10.1114 
        1.05264         16.7439          9.7838 
        1.06832         16.3999         9.47148 
        1.08405         15.9825          9.1722 
        1.09979         15.6292         8.88591 
        1.11537         15.2619         8.61489 
        1.13105         15.0102         8.35376 
        1.14679         14.6875         8.10263 
        1.16256         14.3825         7.86152 
        1.17828         14.1152         7.63118 
        1.19395         13.8914         7.41101 
         1.2097         13.4586         7.19856 
        1.22537         13.2643         6.99561 
          1.241         12.9598         6.80124 
        1.25666          12.912         6.61389 
        1.27241         12.6357         6.43285 
        1.28819         12.1589          6.2584 
        1.30392         12.1368         6.09104 
        1.31957          11.868         5.93065 
        1.33529         11.7191         5.77555 
        1.35108         11.4932         5.62547 
        1.36674         11.2396          5.4819 
         1.3824         11.1262         5.34356 
        1.39811          10.932         5.20961 
        1.41389         10.7043         5.07981 
        1.42964          10.584         4.95474 
        1.44531         10.3998         4.83456 
        1.46101         10.2745         4.71817 
        1.47667         10.0848         4.60603 
        1.49229         9.87713          4.4979 
        1.50793          9.7712         4.39317 
        1.52367         9.61273         4.29115 
        1.53953         9.43394         4.19175 
        1.55526         9.36581         4.09634 
        1.57092         9.21531         4.00434 
        1.58662         9.08058         3.91499 
        1.60235         8.96995         3.82824 
        1.61809         8.85402         3.74412 
        1.63369         8.67764         3.66332 
        1.64941         8.57418         3.58436 
        1.66519         8.46145         3.50747 
        1.68085         8.33463         3.43343 
        1.69652         8.27405         3.36154 
        1.71228         8.17624         3.29133 
        1.72806         8.01687          3.2231 
        1.74368         7.96242         3.15752 
        1.75933         7.86093         3.09366 
        1.77505         7.70527          3.0313 
        1.79081         7.67455         2.97057 
         1.8065         7.59554         2.91179 
        1.82218         7.46912         2.85468 
        1.83797         7.35745         2.79873 
        1.85367         7.26548         2.74462 
        1.86928         7.23518         2.69228 
        1.88497         7.09891         2.64105 
        1.90073         7.03321         2.59097 
        1.91647         6.92599         2.54226 
        1.93218         6.86481         2.49493 
        1.94787          6.7784         2.44889 
        1.96363          6.7199         2.40385 
        1.97935         6.67094         2.36004 
        1.99499         6.57987          2.3176 
        2.01064         6.51536         2.27615 
         2.0264         6.43794         2.23547 
        2.04216         6.37934         2.19582 
        2.05781         6.29984          2.1574 
        2.07353         6.25036         2.11977 
        2.08928           6.132         2.08297 
        2.10499         6.09777         2.04716 
        2.12065         6.10762         2.01231 
        2.13633         6.01164         1.97825 
        2.15211          5.9185         1.94477 
        2.16785         5.85776         1.91218 
        2.18349         5.83754         1.88054 
        2.19916         5.76576         1.84957 
        2.21489         5.69689          1.8192 
        2.23063         5.64688          1.7895 
         2.2463         5.58928          1.7606 
        2.26194         5.52501         1.73243 
        2.27765         5.45291         1.70474 
        2.29341         5.40138         1.67759 
        2.30914         5.36963         1.65109 
        2.32486         5.32785         1.62519 
        2.34061         5.27603         1.59982 
        2.35635         5.22824         1.57501 
        2.37203         5.19842         1.55082 
        2.38768         5.16411          1.5272 
        2.40339         5.08887         1.50399 
        2.41914         5.03658         1.48122 
        2.43483         4.98639         1.45901 
         2.4505         4.96507         1.43729 
        2.46622         4.91349         1.41595 
        2.48195         4.88956         1.39505 
        2.49759         4.82685         1.37468 
        2.51328         4.78657         1.35468 
        2.52906         4.74643         1.33495 
        2.54479          4.7092          1.3157 
        2.56049         4.66825         1.29687 
        2.57618          4.6292         1.27842 
        2.59189         4.63155         1.26032 
        2.60758         4.57164         1.24259 
        2.62325         4.50802         1.22524 
        2.63898          4.4787         1.20816 
        2.65468         4.44257         1.19144 
        2.67044         4.42932         1.17498 
        2.68618         4.39447         1.15887 
        2.70184         4.35533         1.14313 
        2.71755          4.3035         1.12764 
        2.73329          4.2789         1.11243 
        2.74897         4.24663         1.09755 
        2.76462         4.20407         1.08297 
        2.78034         4.19105         1.06861 
        2.79607         4.14257         1.05449 
        2.81179         4.11197         1.04065 
        2.82749         4.07421         1.02708 
        2.84321         4.05731         1.01373 
        2.85893          4.0186         1.00063 
        2.87462         3.99703         0.98779 
        2.89033         3.97555        0.975165 
        2.90605         3.94493        0.962752 
        2.92176          3.9044        0.950564 
        2.93747         3.87562        0.938597 
        2.95318         3.84686        0.926836 
        2.96891         3.82966        0.915273 
        2.98456         3.80479        0.903962 
        3.00023         3.78314        0.892829 
        3.01596          3.7416         0.88185 
        3.03164         3.71108         0.87109 
        3.04738         3.69736        0.860481 
         3.0631         3.66851        0.850054 
        3.07883         3.64346        0.839802 
        3.09456          3.6068        0.829723 
        3.11026          3.5886        0.819827 
        3.12596         3.57241        0.810095 
        3.14163            3.55        0.800547 
        3.15734         3.52126        0.791132 
        3.17308         3.50417        0.781847 
        3.18879         3.48086         0.77274 
        3.20447         3.44511        0.763792 
         3.2202          3.4403         0.75496 
         3.2359         3.41631        0.746286 
        3.25157         3.38164         0.73777 
        3.26729         3.36512        0.729363 
        3.28304         3.34317        0.721072 
        3.29877         3.31568        0.712923 
        3.31446         3.30027        0.704919 
        3.33014         3.27415        0.697047 
        3.34585         3.26278        0.689284 
        3.36158         3.23385         0.68163 
        3.37727         3.22497        0.674117 
        3.39294         3.19651        0.666727 
        3.40867          3.1831        0.659421 
        3.42439         3.15831        0.652231 
        3.44008         3.13454        0.645163 
        3.45578         3.11767        0.638196 
        3.47153         3.10573        0.631318 
        3.48724         3.08414        0.624555 
        3.50292         3.06089        0.617908 
        3.51859         3.05028        0.611362 
        3.53431          3.0163        0.604892 
        3.55007         3.02056        0.598501 
        3.56577         2.98876        0.592229 
        3.58146         2.98095         0.58605 
        3.59719          2.9562        0.579946 
        3.61292         2.94193        0.573933 
        3.62859         2.92078        0.568029 
        3.64429          2.9024        0.562197 
        3.66003         2.88444        0.556431 
        3.67578         2.87069        0.550748 
        3.69146         2.84436        0.545168 
        3.70712         2.82888        0.539676 
        3.72284         2.81371         0.53424 
        3.73853         2.80808        0.528889 
        3.75422         2.78473        0.523611 
        3.76993          2.7648        0.518401 
        3.78564         2.75056        0.513265 
        3.80137         2.72786        0.508191 
        3.81707         2.71519        0.503198 
        3.83279          2.7089        0.498268 
        3.84853         2.68891        0.493397 
        3.86424          2.6695        0.488602 
        3.87992         2.65388        0.483878 
        3.89561         2.63333        0.479217 
        3.91134         2.62814        0.474609 
        3.92704         2.60879        0.470068 
        3.94273         2.59471        0.465591 
        3.95845         2.57477        0.461166 
        3.97418         2.56831        0.456797 
        3.98988         2.55392        0.452492 
        4.00554         2.53997        0.448255 
        4.02125         2.52301         0.44406 
        4.03698         2.50842        0.439914 
        4.05268         2.48906         0.43583 
        4.06839         2.47587        0.431796 
         4.0841          2.4603        0.427815 
        4.09983         2.43788        0.423879 
        4.11555          2.4278        0.419995 
        4.13124         2.40782        0.416171 
        4.14693         2.39724        0.412392 
        4.16266         2.38609        0.408651 
        4.17839         2.36996         0.40496 
        4.19408         2.35612        0.401324 
        4.20977         2.34094        0.397731 
        4.22551         2.33355        0.394174 
        4.24123         2.31441        0.390664 
        4.25691         2.30009        0.387208 
        4.27259         2.28368        0.383793 
        4.28831         2.28047        0.380413 
        4.30404         2.25864         0.37707 
        4.31974         2.24458        0.373776 
        4.33543         2.23484        0.370523 
        4.35116          2.2264        0.367302 
        4.36688         2.21207        0.364121 
        4.38255         2.19685        0.360989 
        4.39825         2.18585        0.357889 
        4.41398         2.17023        0.354819 
         4.4297         2.15774        0.351788 
        4.44541         2.14602        0.348795 
        4.46111         2.13558        0.345838 
        4.47683         2.12624        0.342914 
        4.49251         2.11074        0.340031 
        4.50819         2.10193        0.337182 
         4.5239         2.08876        0.334361 
        4.53962         2.07579         0.33157 
        4.55535         2.06769         0.32881 
        4.57106         2.05613        0.326086 
        4.58678         2.04433        0.323392 
         4.6025         2.03425        0.320728 
        4.61821         2.02923        0.318096 
        4.63391         2.01179        0.315496 
         4.6496         2.00138        0.312927 
        4.66532         1.99583        0.310383 
        4.68103         1.98139        0.307869 
        4.69673           1.974        0.305386 
        4.71241         1.96238        0.302932 
        4.72811         1.95694        0.300502 
        4.74384         1.94423        0.298096 
        4.75955         1.94042         0.29572 
        4.77525           1.924        0.293372 
        4.79096         1.91218        0.291046 
        4.80669         1.90971        0.288745 
         4.8224         1.89952        0.286472 
        4.83809         1.88974        0.284226 
        4.85379         1.87938        0.282003 
         4.8695         1.86777        0.279802 
        4.88521         1.86384        0.277627 
        4.90093         1.85574        0.275474 
        4.91663         1.84469        0.273346 
        4.93234         1.83956        0.271238 
        4.94807          1.8244        0.269152 
        4.96377         1.81922        0.267092 
        4.97943         1.80925        0.265058 
        4.99514          1.8034         0.26304 
        5.01086         1.79033        0.261042 
        5.02654         1.78491        0.259071 
        5.04227         1.77937        0.257113 
          5.058           1.771        0.255176 
        5.07371         1.76436        0.253262 
        5.08942         1.75574        0.251369 
        5.10513         1.74816        0.249494 
        5.12084         1.73808        0.247638 
        5.13656         1.72994        0.245801 
        5.15225         1.72303        0.243987 
        5.16796         1.71719        0.242188 
        5.18369         1.70783        0.240406 
         5.1994          1.7039        0.238645 
        5.21509         1.69342        0.236903 
        5.23079         1.68741        0.235178 
        5.24649         1.67878         0.23347 
        5.26217         1.67427        0.231782 
        5.27788         1.66343        0.230107 
        5.29359         1.65681         0.22845 
        5.30933          1.6511        0.226806 
        5.32504         1.64246        0.225181 
        5.34073          1.6386        0.223575 
        5.35646         1.63054        0.221981 
        5.37218         1.62373        0.220402 
        5.38789         1.61773        0.218842 
        5.40357         1.61228        0.217298 
        5.41929         1.60739        0.215767 
        5.43502         1.59709         0.21425 
         5.4507         1.58911        0.212751 
        5.46639         1.58562        0.211267 
        5.48212         1.57763        0.209794 
        5.49786         1.57182        0.208333 
        5.51353         1.56615        0.206893 
        5.52921         1.55698        0.205466 
        5.54495         1.55446        0.204048 
        5.56066         1.54702        0.202645 
        5.57637          1.5418        0.201256 
        5.59207         1.53566        0.199881 
        5.60778         1.52948        0.198519 
        5.62346         1.52227        0.197171 
        5.63916         1.51928        0.195835 
        5.65487          1.5098        0.194511 
         5.6706         1.50569        0.193197 
        5.68633         1.49745        0.191896 
        5.70203         1.49765        0.190609 
        5.71773         1.48675        0.189334 
        5.73344         1.48222        0.188071 
        5.74916         1.47915        0.186818 
        5.76486          1.4687        0.185578 
        5.78054         1.46668        0.184351 
        5.79626         1.46141        0.183133 
          5.812         1.45539        0.181924 
         5.8277         1.44949         0.18073 
        5.84339         1.44807        0.179546 
        5.85911          1.4388        0.178371 
        5.87484         1.43542        0.177207 
        5.89053          1.4282        0.176056 
        5.90623         1.42488        0.174915 
        5.92195         1.42008        0.173782 
        5.93767         1.41285        0.172659 
        5.95336         1.40501        0.171549 
        5.96905         1.40088        0.170449 
        5.98476         1.39717        0.169357 
        6.00048         1.39228        0.168274 
        6.01617          1.3876        0.167203 
        6.03185         1.38286        0.166142 
        6.04756         1.38003        0.165088 
        6.06331         1.37355        0.164041 
        6.07903         1.37001        0.163005 
        6.09473         1.36324         0.16198 
        6.11044         1.35981        0.160962 
        6.12616         1.35426        0.159953 
        6.14186         1.34884        0.158955 
        6.15755         1.34216        0.157964 
        6.17326         1.34125        0.156982 
        6.18898         1.33688        0.156008 
        6.20467         1.33185        0.155043 
        6.22036         1.32649        0.154087 
         6.2361         1.32309        0.153137 
         6.2518         1.31889        0.152196 
        6.26748         1.31422        0.151266 
        6.28319         1.31048         0.15034 
        6.29893         1.30357        0.149422 
        6.31463         1.29971        0.148513 
        6.33033         1.29655        0.147612 
        6.34604         1.29177        0.146718 
        6.36177         1.28776        0.145831 
        6.37747         1.28485        0.144952 
