# k  (h/Mpc)    Pcb(k)  (Mpc/h)^3    Pcb_linear(k) (Mpc/h)^3   ShotnoiseSubtracted = true
      0.0200456         8186.15          8318.7 
      0.0350414          6442.5         6309.48 
      0.0492313         4613.11         4646.37 
      0.0637834         3832.88         3960.68 
      0.0800726         3134.39         3271.67 
       0.096163         2459.15         2405.27 
       0.111083         1985.63         1902.88 
       0.126058         1680.32         1707.04 
       0.142273         1481.48         1499.15 
       0.158546         1226.32         1198.85 
        0.17375         1059.82         996.131 
       0.188953         975.592         905.215 
       0.204907         846.621         824.229 
       0.220756         763.847         708.263 
        0.23588           674.8         610.539 
         0.2514         606.006         552.992 
       0.267535         588.695         509.595 
       0.283568         517.526         456.627 
       0.299022         490.895         406.049 
       0.314451         487.799          369.75 
       0.330372         422.684         342.437 
       0.346141         393.865         314.833 
       0.361624          375.54         287.015 
       0.377134         347.432         263.681 
       0.392932         339.895         245.069 
       0.408854          322.63         227.914 
       0.424564         310.666         211.152 
       0.440253          280.98         195.938 
       0.455999         268.113         183.042 
       0.471626         265.202         171.652 
        0.48727         254.433         160.809 
       0.502856         233.051         150.728 
       0.518488           232.6          141.67 
       0.534347          217.04          133.45 
       0.550082         212.534          125.87 
       0.565732          209.95         118.816 
       0.581496         195.862         112.269 
       0.597222         191.828         106.315 
       0.612804         186.689         100.851 
       0.628434         180.841          95.732 
       0.644267         172.594         90.8951 
       0.660051         168.032         86.4277 
       0.675724         166.661         82.3111 
       0.691403         162.498         78.4652 
       0.707174         157.433         74.8452 
       0.722871         154.838           71.47 
        0.73838         152.217         68.3411 
       0.754018         143.226         65.3777 
       0.769845         142.955         62.5595 
        0.78569         139.348         59.9069 
       0.801365         135.486         57.4363 
       0.817031         131.418         55.1091 
       0.832809         129.386         52.8983 
       0.848511          126.55         50.8213 
       0.864097          124.68         48.8725 
       0.879701         122.747         47.0262 
       0.895507         118.564         45.2554 
       0.911279         116.875         43.5813 
        0.92691         113.774         42.0075 
       0.942635         111.747         40.5043 
       0.958396         110.639         39.0729 
       0.974128         108.321         37.7147 
       0.989692         106.396         36.4357 
        1.00528          104.56         35.2153 
        1.02113         101.934         34.0326 
        1.03692         101.852         32.9096 
        1.05264         100.353         31.8433 
        1.06832         97.0475         30.8268 
        1.08405         96.5781         29.8528 
        1.09979         95.7121          28.921 
        1.11537         93.3147         28.0389 
        1.13105         91.8351          27.189 
        1.14679         90.4845         26.3716 
        1.16256         88.8163         25.5869 
        1.17828         87.9911         24.8372 
        1.19395         85.7302         24.1206 
         1.2097         85.9755         23.4291 
        1.22537         84.0171         22.7686 
          1.241         83.4176          22.136 
        1.25666         80.9504         21.5262 
        1.27241         80.7695          20.937 
        1.28819         79.9594         20.3692 
        1.30392         78.4173         19.8245 
        1.31957          78.017         19.3025 
        1.33529         76.8588         18.7977 
        1.35108         75.9092         18.3092 
        1.36674         75.0172         17.8419 
         1.3824         73.8192         17.3917 
        1.39811         72.6779         16.9557 
        1.41389         71.5578         16.5333 
        1.42964         71.0741         16.1262 
        1.44531         70.0424          15.735 
        1.46101         69.4813         15.3562 
        1.47667         68.4902         14.9912 
        1.49229         67.7011         14.6393 
        1.50793         66.9111         14.2984 
        1.52367          66.306         13.9664 
        1.53953         65.2622         13.6429 
        1.55526         64.4971         13.3323 
        1.57092         64.0394         13.0329 
        1.58662          63.164         12.7421 
        1.60235         62.3565         12.4598 
        1.61809         61.5064          12.186 
        1.63369         60.8364          11.923 
        1.64941         60.3069          11.666 
        1.66519         59.2011         11.4158 
        1.68085         58.9336         11.1748 
        1.69652         57.6166         10.9408 
        1.71228         57.6807         10.7123 
        1.72806         56.6534         10.4902 
        1.74368         56.0741         10.2768 
        1.75933         55.7104         10.0689 
        1.77505         55.2487         9.86595 
        1.79081         54.4171         9.66831 
         1.8065         53.6775           9.477 
        1.82218         52.6334         9.29112 
        1.83797         52.3256         9.10903 
        1.85367         51.9463         8.93291 
        1.86928         51.7285         8.76257 
        1.88497         50.5608         8.59581 
        1.90073         50.1273         8.43284 
        1.91647         49.8853          8.2743 
        1.93218         49.8109         8.12025 
        1.94787         48.8871          7.9704 
        1.96363         48.0135         7.82379 
        1.97935         47.8431         7.68123 
        1.99499          47.296         7.54308 
        2.01064         46.7026         7.40819 
         2.0264         46.3498         7.27579 
        2.04216          45.886         7.14674 
        2.05781         45.2706         7.02168 
        2.07353         44.8069         6.89922 
        2.08928         44.6583         6.77945 
        2.10499         44.2315         6.66289 
        2.12065         43.6461         6.54946 
        2.13633         43.3634         6.43861 
        2.15211         42.6089         6.32965 
        2.16785         42.1627         6.22356 
        2.18349         41.7813         6.12059 
        2.19916         41.3877         6.01978 
        2.21489          41.036         5.92093 
        2.23063         40.7438         5.82427 
         2.2463         40.4122         5.73023 
        2.26194         39.7148         5.63854 
        2.27765         39.3771         5.54841 
        2.29341         39.1114         5.46004 
        2.30914         38.7031         5.37381 
        2.32486         38.1691         5.28952 
        2.34061         37.9657         5.20692 
        2.35635         37.6055         5.12618 
        2.37203         37.2826         5.04746 
        2.38768         36.9757         4.97058 
        2.40339         36.7461         4.89505 
        2.41914         36.2594         4.82093 
        2.43483         36.0565         4.74863 
         2.4505         35.5406         4.67795 
        2.46622         35.1917         4.60849 
        2.48195          34.885         4.54046 
        2.49759         34.4062         4.47418 
        2.51328         34.2431         4.40908 
        2.52906         34.0011         4.34487 
        2.54479         33.6269          4.2822 
        2.56049          33.456         4.22091 
        2.57618         33.0137         4.16088 
        2.59189          32.599         4.10195 
        2.60758         32.4725         4.04427 
        2.62325         32.0056         3.98778 
        2.63898         31.9008         3.93219 
        2.65468          31.523         3.87779 
        2.67044         31.2189          3.8242 
        2.68618         30.8414         3.77177 
        2.70184         30.5191         3.72054 
        2.71755         30.4115         3.67014 
        2.73329         29.9769         3.62062 
        2.74897         29.7936         3.57218 
        2.76462         29.5826         3.52475 
        2.78034         29.1484         3.47799 
        2.79607         28.9227         3.43205 
        2.81179         28.7158           3.387 
        2.82749         28.4887         3.34282 
        2.84321         28.2632         3.29939 
        2.85893         27.8864         3.25676 
        2.87462         27.7058         3.21496 
        2.89033         27.4898         3.17387 
        2.90605         27.0837         3.13347 
        2.92176          26.826          3.0938 
        2.93747         26.6967         3.05485 
        2.95318         26.5507         3.01657 
        2.96891         26.2193         2.97894 
        2.98456         26.0077         2.94212 
        3.00023         25.6687         2.90589 
        3.01596         25.4139         2.87016 
        3.03164         25.2146         2.83514 
        3.04738         25.0571         2.80061 
         3.0631         24.8238         2.76667 
        3.07883         24.5601          2.7333 
        3.09456         24.3363          2.7005 
        3.11026         24.0859         2.66829 
        3.12596         23.8565         2.63662 
        3.14163         23.6382         2.60554 
        3.15734         23.4693         2.57489 
        3.17308         23.3022         2.54468 
        3.18879         23.0358         2.51503 
        3.20447         22.8679         2.48591 
         3.2202         22.6258         2.45717 
         3.2359         22.4518         2.42893 
        3.25157         22.2577         2.40122 
        3.26729          22.069         2.37386 
        3.28304         21.9387         2.34687 
        3.29877         21.7348         2.32035 
        3.31446         21.4902          2.2943 
        3.33014          21.305         2.26868 
        3.34585         21.2258         2.24341 
        3.36158         20.9397          2.2185 
        3.37727         20.7438         2.19405 
        3.39294         20.5937         2.16999 
        3.40867         20.4389         2.14622 
        3.42439         20.2131         2.12282 
        3.44008         20.0556         2.09981 
        3.45578         19.8729         2.07714 
        3.47153         19.7465         2.05475 
        3.48724          19.548         2.03274 
        3.50292         19.4461          2.0111 
        3.51859         19.2143          1.9898 
        3.53431         19.0417         1.96874 
        3.55007         18.8624         1.94794 
        3.56577         18.7625         1.92753 
        3.58146         18.5859         1.90742 
        3.59719          18.422         1.88755 
        3.61292         18.2706         1.86798 
        3.62859         18.0891         1.84876 
        3.64429         17.9528         1.82978 
        3.66003         17.7947         1.81101 
        3.67578         17.6907         1.79252 
        3.69146         17.5541         1.77436 
        3.70712         17.3441         1.75648 
        3.72284         17.1929         1.73879 
        3.73853         17.0921         1.72138 
        3.75422         16.8894          1.7042 
        3.76993         16.7433         1.68724 
        3.78564         16.6829         1.67052 
        3.80137         16.5099         1.65401 
        3.81707         16.3313         1.63776 
        3.83279         16.2698         1.62171 
        3.84853         16.0905         1.60586 
        3.86424          15.968         1.59025 
        3.87992         15.8236         1.57488 
        3.89561         15.7222         1.55971 
        3.91134         15.6084         1.54471 
        3.92704         15.4529         1.52993 
        3.94273         15.3557         1.51536 
        3.95845         15.2293         1.50096 
        3.97418         15.0374         1.48674 
        3.98988         14.9717         1.47273 
        4.00554         14.8528         1.45893 
        4.02125         14.7104         1.44528 
        4.03698          14.609         1.43179 
        4.05268           14.48          1.4185 
        4.06839         14.3183         1.40537 
         4.0841         14.2475         1.39241 
        4.09983         14.1317          1.3796 
        4.11555         14.0256         1.36696 
        4.13124         13.8818         1.35451 
        4.14693         13.7929         1.34221 
        4.16266         13.6986         1.33004 
        4.17839         13.5762         1.31802 
        4.19408         13.4852         1.30619 
        4.20977         13.3486         1.29449 
        4.22551         13.2665         1.28292 
        4.24123         13.1702         1.27149 
        4.25691         13.0355         1.26025 
        4.27259          12.938         1.24913 
        4.28831          12.837         1.23813 
        4.30404         12.7849         1.22725 
        4.31974         12.6288         1.21653 
        4.33543         12.5312         1.20594 
        4.35116         12.4576         1.19546 
        4.36688         12.3416          1.1851 
        4.38255          12.252         1.17491 
        4.39825         12.1425         1.16482 
        4.41398          12.054         1.15483 
         4.4297         11.9662         1.14497 
        4.44541         11.8835         1.13522 
        4.46111         11.7748          1.1256 
        4.47683         11.6837         1.11608 
        4.49251         11.6062          1.1067 
        4.50819         11.5215         1.09742 
         4.5239         11.4532         1.08825 
        4.53962         11.3194         1.07916 
        4.55535         11.2712         1.07018 
        4.57106          11.145         1.06131 
        4.58678         11.0932         1.05254 
         4.6025         10.9837         1.04387 
        4.61821         10.9046          1.0353 
        4.63391          10.825         1.02684 
         4.6496         10.7455         1.01848 
        4.66532         10.6661          1.0102 
        4.68103         10.5552         1.00202 
        4.69673         10.5007        0.993938 
        4.71241          10.394        0.985953 
        4.72811         10.3337        0.978044 
        4.74384         10.2755        0.970212 
        4.75955         10.1991        0.962479 
        4.77525         10.1233        0.954836 
        4.79096         10.0341        0.947268 
        4.80669         9.96031        0.939779 
         4.8224         9.86489         0.93238 
        4.83809         9.82598         0.92507 
        4.85379         9.74829        0.917835 
         4.8695          9.6885        0.910673 
        4.88521         9.60388        0.903591 
        4.90093         9.52142        0.896584 
        4.91663         9.47585        0.889658 
        4.93234         9.39174        0.882799 
        4.94807         9.33493        0.876009 
        4.96377          9.2578        0.869304 
        4.97943         9.17213        0.862684 
        4.99514         9.11503        0.856117 
        5.01086          9.0535        0.849614 
        5.02654         8.97593        0.843196 
        5.04227         8.90301        0.836827 
          5.058         8.82813        0.830521 
        5.07371          8.7999        0.824293 
        5.08942         8.73439        0.818129 
        5.10513         8.66479        0.812028 
        5.12084         8.58231        0.805987 
        5.13656         8.53347         0.80001 
        5.15225         8.46388        0.794103 
        5.16796         8.44127        0.788248 
        5.18369         8.36749        0.782448 
         5.1994         8.31036        0.776717 
        5.21509         8.23713        0.771049 
        5.23079          8.1926        0.765432 
        5.24649         8.12658        0.759876 
        5.26217         8.08902        0.754379 
        5.27788         8.00557         0.74893 
        5.29359         7.96318        0.743535 
        5.30933         7.88411        0.738185 
        5.32504         7.84194        0.732898 
        5.34073         7.78047        0.727669 
        5.35646         7.73559        0.722481 
        5.37218          7.6911        0.717343 
        5.38789         7.62624        0.712264 
        5.40357         7.55939        0.707241 
        5.41929         7.53448        0.702256 
        5.43502         7.47466        0.697318 
         5.4507         7.42148        0.692441 
        5.46639         7.34605         0.68761 
        5.48212         7.32322        0.682815 
        5.49786         7.27358         0.67806 
        5.51353         7.22446        0.673374 
        5.52921         7.16961        0.668729 
        5.54495         7.12274        0.664114 
        5.56066         7.06381        0.659549 
        5.57637         7.03548        0.655028 
        5.59207         6.97724        0.650553 
        5.60778          6.9369        0.646119 
        5.62346         6.89402        0.641733 
        5.63916         6.84318        0.637384 
        5.65487          6.7821        0.633074 
         5.6706         6.74992        0.628799 
        5.68633         6.70754        0.624563 
        5.70203         6.65064        0.620374 
        5.71773         6.61937        0.616226 
        5.73344         6.55149        0.612113 
        5.74916         6.53284        0.608035 
        5.76486         6.49878           0.604 
        5.78054         6.43777        0.600008 
        5.79626         6.39611        0.596041 
          5.812         6.36176        0.592107 
         5.8277         6.30687         0.58822 
        5.84339         6.27341        0.584369 
        5.85911          6.2293        0.580545 
        5.87484         6.17517        0.576757 
        5.89053         6.14345         0.57301 
        5.90623         6.10464        0.569295 
        5.92195         6.07143        0.565607 
        5.93767         6.01241        0.561954 
        5.95336          5.9969         0.55834 
        5.96905         5.94763        0.554759 
        5.98476         5.91833        0.551206 
        6.00048         5.86999        0.547682 
        6.01617         5.82679        0.544194 
        6.03185          5.7918        0.540742 
        6.04756         5.75783        0.537311 
        6.06331         5.73151        0.533903 
        6.07903         5.67839        0.530533 
        6.09473          5.6483        0.527195 
        6.11044         5.60063        0.523883 
        6.12616          5.5749          0.5206 
        6.14186         5.53849        0.517349 
        6.15755         5.51036        0.514126 
        6.17326         5.47269        0.510929 
        6.18898         5.43561        0.507758 
        6.20467         5.39265        0.504619 
        6.22036          5.3636        0.501508 
         6.2361         5.33695        0.498415 
         6.2518         5.30442        0.495353 
        6.26748         5.26929        0.492324 
        6.28319         5.23906        0.489312 
        6.29893          5.2062        0.486324 
        6.31463         5.17384        0.483365 
        6.33033         5.14355        0.480433 
        6.34604         5.10937        0.477523 
        6.36177         5.07774        0.474634 
        6.37747         5.05344        0.471776 
