# k  (h/Mpc)    Pcb(k)  (Mpc/h)^3    Pcb_linear(k) (Mpc/h)^3   ShotnoiseSubtracted = true
      0.0200456         4076.03         4149.94 
      0.0350414         3093.22          3147.6 
      0.0492313         2315.37         2317.93 
      0.0637834         2002.31         1975.86 
      0.0800726         1645.04         1632.14 
       0.096163         1182.51         1199.92 
       0.111083         931.022         949.288 
       0.126058         858.207         851.588 
       0.142273         758.559         747.882 
       0.158546         619.546         598.068 
        0.17375         500.761         496.939 
       0.188953         472.094         451.584 
       0.204907         448.202         411.182 
       0.220756         379.102          353.33 
        0.23588         330.034         304.579 
         0.2514         292.574          275.87 
       0.267535         277.392         254.221 
       0.283568         252.736         227.797 
       0.299022         231.237         202.565 
       0.314451          209.55         184.457 
       0.330372         195.827         170.831 
       0.346141         178.283          157.06 
       0.361624         168.086         143.183 
       0.377134         158.631         131.542 
       0.392932         143.225         122.257 
       0.408854         138.426         113.699 
       0.424564         132.635         105.337 
       0.440253         123.394         97.7476 
       0.455999          116.78         91.3138 
       0.471626         108.459         85.6321 
        0.48727         105.292         80.2226 
       0.502856         100.003         75.1937 
       0.518488         96.4582         70.6746 
       0.534347         92.7984         66.5738 
       0.550082         85.7886         62.7928 
       0.565732         81.6373         59.2737 
       0.581496         79.1891         56.0076 
       0.597222         76.8208         53.0372 
       0.612804         72.5474         50.3114 
       0.628434         70.7748         47.7577 
       0.644267         68.8875         45.3448 
       0.660051          66.343         43.1161 
       0.675724         63.4969         41.0624 
       0.691403         61.6377         39.1438 
       0.707174         59.9961         37.3379 
       0.722871         57.8804         35.6542 
        0.73838         56.4344         34.0933 
       0.754018         53.9302         32.6149 
       0.769845          52.774          31.209 
        0.78569         51.2822         29.8857 
       0.801365         49.6166         28.6532 
       0.817031         48.5417         27.4922 
       0.832809         47.7506         26.3893 
       0.848511         45.1241         25.3532 
       0.864097          44.362          24.381 
       0.879701          43.712         23.4599 
       0.895507         42.9916         22.5765 
       0.911279          41.729         21.7414 
        0.92691         40.6843         20.9562 
       0.942635         39.3397         20.2063 
       0.958396         38.9498         19.4923 
       0.974128         37.8436         18.8147 
       0.989692         37.4211         18.1766 
        1.00528         36.6065         17.5678 
        1.02113          35.352         16.9778 
        1.03692          34.771         16.4176 
        1.05264         34.1452         15.8856 
        1.06832         33.5023         15.3785 
        1.08405         32.8132         14.8926 
        1.09979         32.1735         14.4278 
        1.11537         31.4498         13.9877 
        1.13105         31.1818         13.5637 
        1.14679         30.7754          13.156 
        1.16256          29.802         12.7645 
        1.17828         29.6272         12.3905 
        1.19395         28.8265          12.033 
         1.2097         28.6536         11.6881 
        1.22537         28.0115         11.3586 
          1.241         27.6208          11.043 
        1.25666         26.8978         10.7388 
        1.27241         26.5864         10.4448 
        1.28819         26.0043         10.1616 
        1.30392         25.8345         9.88982 
        1.31957         25.5728          9.6294 
        1.33529         25.2584         9.37757 
        1.35108         24.6577          9.1339 
        1.36674         24.3176         8.90079 
         1.3824         23.8472         8.67616 
        1.39811         23.5847         8.45867 
        1.41389         23.3758         8.24793 
        1.42964         23.0661         8.04485 
        1.44531         22.8747         7.84971 
        1.46101         22.2469         7.66075 
        1.47667         22.0143         7.47866 
        1.49229         21.8028         7.30309 
        1.50793         21.5097         7.13305 
        1.52367         21.2851         6.96741 
        1.53953         20.9999         6.80601 
        1.55526         20.6641         6.65109 
        1.57092         20.4158         6.50171 
        1.58662         20.1889         6.35665 
        1.60235         19.9164          6.2158 
        1.61809         19.6979         6.07921 
        1.63369         19.4491         5.94801 
        1.64941         19.1262          5.8198 
        1.66519         19.0283         5.69497 
        1.68085         18.7696         5.57475 
        1.69652         18.5121         5.45802 
        1.71228         18.3046         5.34402 
        1.72806         18.2131         5.23324 
        1.74368         17.9272         5.12676 
        1.75933         17.7119         5.02308 
        1.77505         17.5092         4.92182 
        1.79081         17.2671         4.82322 
         1.8065         17.1921         4.72778 
        1.82218         16.8892         4.63505 
        1.83797         16.7663         4.54421 
        1.85367         16.5496         4.45635 
        1.86928          16.502         4.37137 
        1.88497         16.1924         4.28818 
        1.90073         16.1463         4.20688 
        1.91647         15.9802         4.12779 
        1.93218         15.8427         4.05094 
        1.94787         15.6326         3.97618 
        1.96363         15.5245         3.90305 
        1.97935         15.3173         3.83193 
        1.99499         15.1234         3.76301 
        2.01064         14.9636         3.69571 
         2.0264         14.8414         3.62966 
        2.04216          14.702         3.56529 
        2.05781         14.4767          3.5029 
        2.07353         14.3984         3.44181 
        2.08928         14.2636         3.38206 
        2.10499         14.1843         3.32391 
        2.12065         13.9717         3.26732 
        2.13633         13.9231         3.21202 
        2.15211         13.7435         3.15767 
        2.16785         13.6942         3.10474 
        2.18349         13.5917         3.05337 
        2.19916         13.3992         3.00308 
        2.21489         13.2743         2.95377 
        2.23063         13.1557         2.90555 
         2.2463         13.0007         2.85864 
        2.26194         12.8981         2.81289 
        2.27765         12.8438         2.76793 
        2.29341         12.6991         2.72385 
        2.30914          12.528         2.68083 
        2.32486         12.4862         2.63878 
        2.34061         12.3633         2.59757 
        2.35635         12.2856         2.55729 
        2.37203         12.1612         2.51802 
        2.38768         12.0102         2.47967 
        2.40339         11.9035         2.44199 
        2.41914         11.7772         2.40501 
        2.43483         11.7547         2.36894 
         2.4505         11.6696         2.33369 
        2.46622         11.5306         2.29903 
        2.48195         11.4514          2.2651 
        2.49759         11.3694         2.23203 
        2.51328         11.2343         2.19955 
        2.52906         11.1657         2.16752 
        2.54479         11.0684         2.13626 
        2.56049         10.9675         2.10568 
        2.57618          10.937         2.07573 
        2.59189         10.7827         2.04634 
        2.60758         10.7483         2.01756 
        2.62325          10.647         1.98938 
        2.63898         10.5032         1.96165 
        2.65468          10.422         1.93451 
        2.67044          10.369         1.90778 
        2.68618         10.2902         1.88162 
        2.70184         10.1935         1.85606 
        2.71755         10.0926         1.83092 
        2.73329         10.0282         1.80621 
        2.74897         9.94204         1.78205 
        2.76462         9.91531         1.75839 
        2.78034          9.7988         1.73506 
        2.79607         9.72836         1.71214 
        2.81179         9.66907         1.68967 
        2.82749         9.59281         1.66763 
        2.84321         9.56271         1.64596 
        2.85893         9.45273          1.6247 
        2.87462         9.35697         1.60384 
        2.89033         9.28866         1.58334 
        2.90605         9.21137         1.56319 
        2.92176         9.14241          1.5434 
        2.93747         9.07433         1.52397 
        2.95318         9.05985         1.50487 
        2.96891         8.95701          1.4861 
        2.98456         8.88513         1.46773 
        3.00023         8.80169         1.44966 
        3.01596         8.77234         1.43183 
        3.03164         8.69962         1.41436 
        3.04738         8.66408         1.39713 
         3.0631         8.55813         1.38021 
        3.07883         8.47835         1.36356 
        3.09456         8.44472         1.34719 
        3.11026         8.39219         1.33113 
        3.12596         8.32657         1.31533 
        3.14163         8.23894         1.29982 
        3.15734         8.18865         1.28454 
        3.17308         8.14347         1.26946 
        3.18879         8.06175         1.25467 
        3.20447         8.02879         1.24014 
         3.2202         7.94599          1.2258 
         3.2359         7.92366         1.21172 
        3.25157         7.85184         1.19789 
        3.26729         7.82186         1.18424 
        3.28304         7.73105         1.17078 
        3.29877          7.6644         1.15755 
        3.31446          7.6268         1.14455 
        3.33014         7.58609         1.13177 
        3.34585         7.51843         1.11917 
        3.36158         7.48283         1.10674 
        3.37727         7.42676         1.09454 
        3.39294         7.38774         1.08254 
        3.40867         7.31296         1.07068 
        3.42439         7.27995         1.05901 
        3.44008         7.22144         1.04753 
        3.45578          7.1677         1.03622 
        3.47153         7.12106         1.02505 
        3.48724         7.08718         1.01407 
        3.50292          7.0219         1.00328 
        3.51859         6.97201        0.992649 
        3.53431         6.91712        0.982144 
        3.55007         6.88168        0.971767 
        3.56577          6.8555        0.961582 
        3.58146         6.80083         0.95155 
        3.59719         6.75105         0.94164 
        3.61292         6.71357        0.931877 
        3.62859          6.6486         0.92229 
        3.64429         6.60918        0.912821 
        3.66003         6.56614        0.903459 
        3.67578         6.51875        0.894232 
        3.69146         6.45213        0.885171 
        3.70712         6.43269        0.876254 
        3.72284         6.39249        0.867428 
        3.73853         6.35218        0.858741 
        3.75422         6.30607         0.85017 
        3.76993         6.26889        0.841711 
        3.78564           6.212        0.833372 
        3.80137         6.18301        0.825134 
        3.81707         6.13813        0.817026 
        3.83279         6.10427        0.809022 
        3.84853         6.02938        0.801113 
        3.86424         6.00563        0.793327 
        3.87992         5.97718        0.785657 
        3.89561          5.9389         0.77809 
        3.91134         5.88412        0.770608 
        3.92704         5.84024        0.763234 
        3.94273         5.81915        0.755966 
        3.95845         5.79601         0.74878 
        3.97418         5.74324        0.741687 
        3.98988         5.71309        0.734697 
        4.00554         5.67794        0.727817 
        4.02125         5.63392        0.721007 
        4.03698         5.57428        0.714274 
        4.05268         5.54297        0.707644 
        4.06839         5.52698        0.701094 
         4.0841         5.46629         0.69463 
        4.09983         5.43017        0.688239 
        4.11555         5.39393        0.681933 
        4.13124         5.35234        0.675723 
        4.14693         5.31765        0.669587 
        4.16266         5.29646        0.663514 
        4.17839         5.26108        0.657521 
        4.19408         5.21484        0.651616 
        4.20977         5.17991        0.645783 
        4.22551         5.14938        0.640007 
        4.24123         5.11803        0.634309 
        4.25691         5.08109        0.628697 
        4.27259          5.0649        0.623152 
        4.28831         5.01726        0.617664 
        4.30404         4.98435        0.612237 
        4.31974         4.94411        0.606888 
        4.33543         4.89776        0.601607 
        4.35116         4.87411        0.596376 
        4.36688         4.84522        0.591211 
        4.38255         4.81321        0.586127 
        4.39825         4.79841        0.581092 
        4.41398         4.77405        0.576108 
         4.4297         4.73606        0.571188 
        4.44541          4.7012        0.566326 
        4.46111         4.66643        0.561526 
        4.47683         4.63823        0.556779 
        4.49251         4.60495        0.552097 
        4.50819         4.58031        0.547471 
         4.5239         4.56879        0.542892 
        4.53962         4.52829         0.53836 
        4.55535         4.49949        0.533878 
        4.57106         4.47019        0.529455 
        4.58678         4.42908        0.525081 
         4.6025         4.41556        0.520756 
        4.61821         4.39275        0.516481 
        4.63391         4.36718        0.512261 
         4.6496         4.34126         0.50809 
        4.66532         4.28754        0.503959 
        4.68103         4.27141        0.499877 
        4.69673         4.24766        0.495845 
        4.71241         4.21608        0.491861 
        4.72811         4.19022        0.487916 
        4.74384           4.174        0.484009 
        4.75955         4.14705        0.480151 
        4.77525         4.12062        0.476338 
        4.79096         4.08308        0.472562 
        4.80669         4.06418        0.468826 
         4.8224          4.0481        0.465136 
        4.83809         4.01634        0.461489 
        4.85379           3.989         0.45788 
         4.8695         3.96851        0.454306 
        4.88521         3.94804        0.450773 
        4.90093         3.91845        0.447278 
        4.91663         3.90279        0.443823 
        4.93234         3.87743        0.440401 
        4.94807         3.85453        0.437014 
        4.96377         3.83021        0.433669 
        4.97943         3.80435        0.430366 
        4.99514         3.77515         0.42709 
        5.01086         3.75094        0.423846 
        5.02654         3.73634        0.420645 
        5.04227         3.71688        0.417467 
          5.058         3.70109        0.414321 
        5.07371         3.67198        0.411214 
        5.08942         3.65314        0.408139 
        5.10513         3.63418        0.405096 
        5.12084         3.61318        0.402082 
        5.13656          3.5925          0.3991 
        5.15225         3.56404        0.396154 
        5.16796         3.53543        0.393233 
        5.18369         3.52671        0.390339 
         5.1994         3.50357         0.38748 
        5.21509         3.48386        0.384652 
        5.23079         3.45927         0.38185 
        5.24649         3.44549        0.379078 
        5.26217         3.42879        0.376336 
        5.27788         3.39458        0.373618 
        5.29359         3.38101        0.370926 
        5.30933          3.3688        0.368258 
        5.32504          3.3368         0.36562 
        5.34073         3.32298        0.363011 
        5.35646         3.30389        0.360423 
        5.37218         3.28515         0.35786 
        5.38789         3.26954        0.355326 
        5.40357         3.24943        0.352821 
        5.41929          3.2277        0.350334 
        5.43502         3.20778        0.347871 
         5.4507         3.19009        0.345437 
        5.46639         3.17016        0.343027 
        5.48212         3.16034        0.340635 
        5.49786         3.14109        0.338263 
        5.51353         3.12098        0.335926 
        5.52921         3.10583        0.333608 
        5.54495         3.08745        0.331306 
        5.56066         3.06862        0.329028 
        5.57637         3.04892        0.326773 
        5.59207         3.03517        0.324541 
        5.60778         3.01573        0.322329 
        5.62346         2.99938        0.320141 
        5.63916         2.97966        0.317971 
        5.65487         2.96867        0.315821 
         5.6706         2.95026        0.313688 
        5.68633         2.93568        0.311575 
        5.70203         2.91928        0.309485 
        5.71773         2.90187        0.307416 
        5.73344         2.87955        0.305364 
        5.74916         2.86576         0.30333 
        5.76486         2.85554        0.301317 
        5.78054         2.84041        0.299325 
        5.79626         2.82909        0.297347 
          5.812         2.79952        0.295384 
         5.8277         2.79128        0.293445 
        5.84339         2.77742        0.291524 
        5.85911         2.76502        0.289616 
        5.87484         2.74792        0.287726 
        5.89053          2.7355        0.285857 
        5.90623         2.71805        0.284004 
        5.92195         2.70332        0.282164 
        5.93767         2.69011        0.280342 
        5.95336         2.67133        0.278539 
        5.96905         2.66121        0.276752 
        5.98476         2.64191        0.274979 
        6.00048         2.63325        0.273222 
        6.01617         2.61807        0.271482 
        6.03185         2.60341        0.269759 
        6.04756         2.59125        0.268048 
        6.06331         2.57187        0.266348 
        6.07903          2.5593        0.264666 
        6.09473         2.55223        0.263001 
        6.11044         2.53431        0.261349 
        6.12616         2.52058        0.259711 
        6.14186         2.51255        0.258089 
        6.15755          2.4985        0.256482 
        6.17326          2.4814        0.254887 
        6.18898         2.47368        0.253304 
        6.20467         2.45891        0.251739 
        6.22036         2.44705        0.250187 
         6.2361         2.42802        0.248644 
         6.2518         2.41919        0.247116 
        6.26748         2.41222        0.245605 
        6.28319         2.39343        0.244103 
        6.29893          2.3874        0.242612 
        6.31463         2.37354        0.241136 
        6.33033         2.35916        0.239673 
        6.34604         2.35124        0.238221 
        6.36177         2.34159         0.23678 
        6.37747         2.32185        0.235354 
