# k  (h/Mpc)    Pcb(k)  (Mpc/h)^3    Pcb_linear(k) (Mpc/h)^3   ShotnoiseSubtracted = true
      0.0200456         1494.16         1518.86 
      0.0350414         1141.72         1152.01 
      0.0492313         850.556         848.352 
      0.0637834         729.985         723.157 
      0.0800726         600.402         597.355 
       0.096163         436.415         439.164 
       0.111083         343.999         347.435 
       0.126058         313.323         311.678 
       0.142273         275.903         273.721 
       0.158546         222.531          218.89 
        0.17375          181.91         181.877 
       0.188953         168.192         165.278 
       0.204907         157.614         150.491 
       0.220756         133.365         129.317 
        0.23588         115.534         111.475 
         0.2514         103.333         100.967 
       0.267535         96.1245         93.0439 
       0.283568         86.8948         83.3728 
       0.299022         78.4795         74.1381 
       0.314451         70.2004         67.5103 
       0.330372         65.6985         62.5234 
       0.346141         60.2733         57.4834 
       0.361624         55.7848         52.4043 
       0.377134         52.2379          48.144 
       0.392932         46.6075         44.7457 
       0.408854         45.0437         41.6135 
       0.424564         42.1949         38.5529 
       0.440253         38.9457         35.7752 
       0.455999         36.8677         33.4204 
       0.471626         34.7147          31.341 
        0.48727         32.8501         29.3611 
       0.502856         30.7551         27.5206 
       0.518488         29.4623         25.8666 
       0.534347         28.2553         24.3657 
       0.550082         25.9244         22.9819 
       0.565732         24.0991         21.6939 
       0.581496         23.6873         20.4985 
       0.597222         22.8401         19.4114 
       0.612804         21.3237         18.4137 
       0.628434         20.5819         17.4791 
       0.644267         19.9111          16.596 
       0.660051         18.8526         15.7803 
       0.675724         17.9316         15.0287 
       0.691403         17.3749         14.3265 
       0.707174         16.6508         13.6655 
       0.722871         16.0093         13.0493 
        0.73838         15.4462          12.478 
       0.754018         14.9157         11.9369 
       0.769845         14.2881         11.4224 
        0.78569         13.8641          10.938 
       0.801365         13.3216         10.4869 
       0.817031         12.9446          10.062 
       0.832809         12.6081         9.65838 
       0.848511          11.876         9.27915 
       0.864097         11.5813         8.92333 
       0.879701         11.2424         8.58622 
       0.895507         10.7928          8.2629 
       0.911279         10.6384         7.95724 
        0.92691         10.2913         7.66989 
       0.942635         9.85087         7.39544 
       0.958396         9.57469         7.13409 
       0.974128         9.34988         6.88609 
       0.989692         9.23204         6.65257 
        1.00528         8.87948         6.42974 
        1.02113         8.54759          6.2138 
        1.03692          8.4062         6.00876 
        1.05264         8.16249         5.81408 
        1.06832         7.99073         5.62848 
        1.08405         7.68167         5.45063 
        1.09979         7.52617          5.2805 
        1.11537         7.39213         5.11945 
        1.13105         7.20012         4.96427 
        1.14679         7.04619         4.81503 
        1.16256         6.84254         4.67175 
        1.17828         6.73671         4.53487 
        1.19395         6.54084         4.40403 
         1.2097         6.34186         4.27778 
        1.22537          6.2043         4.15718 
          1.241         6.10248         4.04167 
        1.25666         6.05447         3.93034 
        1.27241         5.83886         3.82276 
        1.28819         5.70096         3.71909 
        1.30392         5.62006         3.61963 
        1.31957         5.50682         3.52432 
        1.33529         5.38973         3.43215 
        1.35108         5.26402         3.34297 
        1.36674         5.20287         3.25765 
         1.3824         5.01741         3.17544 
        1.39811         4.95567         3.09584 
        1.41389         4.88039         3.01871 
        1.42964         4.78774         2.94438 
        1.44531         4.70636         2.87296 
        1.46101         4.61736          2.8038 
        1.47667         4.50049         2.73716 
        1.49229         4.46521          2.6729 
        1.50793         4.34576         2.61066 
        1.52367          4.3218         2.55004 
        1.53953         4.20093         2.49097 
        1.55526         4.12472         2.43427 
        1.57092         4.08143          2.3796 
        1.58662         3.99502          2.3265 
        1.60235         3.93039         2.27495 
        1.61809         3.86945         2.22496 
        1.63369         3.81217         2.17694 
        1.64941         3.74491         2.13002 
        1.66519         3.69877         2.08433 
        1.68085         3.61269         2.04033 
        1.69652         3.56066         1.99761 
        1.71228         3.51517         1.95589 
        1.72806          3.4478         1.91534 
        1.74368         3.40124         1.87637 
        1.75933         3.34721         1.83842 
        1.77505         3.30126         1.80136 
        1.79081         3.24406         1.76528 
         1.8065         3.20283         1.73035 
        1.82218         3.16916         1.69641 
        1.83797         3.13771         1.66316 
        1.85367         3.08833           1.631 
        1.86928         3.04287          1.5999 
        1.88497         2.98383         1.56946 
        1.90073         2.94022          1.5397 
        1.91647         2.90542         1.51075 
        1.93218         2.88246         1.48263 
        1.94787         2.83625         1.45527 
        1.96363         2.79336          1.4285 
        1.97935         2.75126         1.40247 
        1.99499         2.70098         1.37725 
        2.01064         2.68183         1.35261 
         2.0264         2.66622         1.32844 
        2.04216           2.624         1.30488 
        2.05781         2.58434         1.28205 
        2.07353         2.55854         1.25969 
        2.08928         2.52664         1.23782 
        2.10499         2.49543         1.21654 
        2.12065         2.47953         1.19583 
        2.13633          2.4341         1.17559 
        2.15211         2.40341         1.15569 
        2.16785         2.37681         1.13632 
        2.18349         2.35581         1.11752 
        2.19916         2.30814         1.09911 
        2.21489         2.28937         1.08107 
        2.23063         2.26258         1.06342 
         2.2463         2.24618         1.04625 
        2.26194         2.20788         1.02951 
        2.27765         2.18668         1.01305 
        2.29341         2.16946        0.996916 
        2.30914         2.14829        0.981171 
        2.32486         2.12779        0.965781 
        2.34061         2.09363        0.950699 
        2.35635         2.06472        0.935958 
        2.37203         2.05651        0.921585 
        2.38768         2.03567        0.907548 
        2.40339         2.01791        0.893756 
        2.41914         1.99073        0.880224 
        2.43483         1.97099        0.867023 
         2.4505         1.94232        0.854119 
        2.46622         1.93035        0.841437 
        2.48195         1.91449        0.829015 
        2.49759         1.89274        0.816914 
        2.51328         1.86662        0.805026 
        2.52906         1.85614        0.793303 
        2.54479         1.83725        0.781861 
        2.56049          1.8162        0.770669 
        2.57618         1.80291         0.75971 
        2.59189         1.78878         0.74895 
        2.60758         1.76343        0.738418 
        2.62325         1.75161        0.728104 
        2.63898         1.73446        0.717955 
        2.65468         1.71842        0.708022 
        2.67044           1.705        0.698238 
        2.68618         1.68119        0.688664 
        2.70184         1.66773         0.67931 
        2.71755         1.65305        0.670109 
        2.73329          1.6403        0.661066 
        2.74897         1.62628        0.652222 
        2.76462         1.60951        0.643562 
        2.78034         1.60257        0.635026 
        2.79607         1.58161        0.626637 
        2.81179         1.56569        0.618412 
        2.82749         1.55823        0.610345 
        2.84321         1.54525        0.602416 
        2.85893         1.52818        0.594631 
        2.87462         1.51992           0.587 
        2.89033         1.49887        0.579497 
        2.90605         1.48997         0.57212 
        2.92176         1.47774        0.564878 
        2.93747         1.46777        0.557766 
        2.95318          1.4549        0.550777 
        2.96891          1.4424        0.543906 
        2.98456         1.43611        0.537184 
        3.00023         1.42034        0.530568 
        3.01596         1.41353        0.524044 
        3.03164         1.40232         0.51765 
        3.04738         1.38061        0.511345 
         3.0631         1.37516        0.505149 
        3.07883          1.3665        0.499057 
        3.09456         1.35709        0.493067 
        3.11026         1.34517        0.487186 
        3.12596         1.33528        0.481404 
        3.14163          1.3244        0.475729 
        3.15734         1.31862        0.470134 
        3.17308         1.30505        0.464617 
        3.18879         1.29573        0.459205 
        3.20447         1.28489        0.453887 
         3.2202         1.27747        0.448639 
         3.2359         1.27015        0.443484 
        3.25157         1.25737        0.438424 
        3.26729         1.25228        0.433428 
        3.28304          1.2398        0.428501 
        3.29877         1.22955        0.423658 
        3.31446         1.22347        0.418902 
        3.33014         1.21847        0.414224 
        3.34585         1.20753        0.409611 
        3.36158         1.19445        0.405062 
        3.37727         1.19336        0.400598 
        3.39294         1.18484        0.396206 
        3.40867         1.17614        0.391865 
        3.42439          1.1648        0.387592 
        3.44008         1.16003        0.383392 
        3.45578         1.15309        0.379252 
        3.47153         1.14264        0.375164 
        3.48724         1.13752        0.371145 
        3.50292         1.13349        0.367195 
        3.51859         1.12377        0.363305 
        3.53431         1.11802         0.35946 
        3.55007         1.11279        0.355662 
        3.56577         1.10358        0.351935 
        3.58146         1.09487        0.348263 
        3.59719         1.09132        0.344636 
        3.61292         1.08474        0.341063 
        3.62859         1.07313        0.337554 
        3.64429         1.07231        0.334089 
        3.66003         1.06312        0.330662 
        3.67578         1.05505        0.327285 
        3.69146         1.05106        0.323969 
        3.70712         1.04106        0.320705 
        3.72284         1.04003        0.317475 
        3.73853         1.02893        0.314295 
        3.75422         1.02312        0.311159 
        3.76993         1.02191        0.308063 
        3.78564         1.01436        0.305011 
        3.80137         1.00602        0.301995 
        3.81707         1.00379        0.299028 
        3.83279         0.99441        0.296098 
        3.84853        0.988066        0.293204 
        3.86424        0.984762        0.290354 
        3.87992        0.979457        0.287547 
        3.89561        0.973309        0.284777 
        3.91134        0.966713        0.282039 
        3.92704        0.959267         0.27934 
        3.94273        0.957206         0.27668 
        3.95845         0.95143         0.27405 
        3.97418        0.944454        0.271454 
        3.98988         0.93832        0.268896 
        4.00554        0.934034        0.266378 
        4.02125        0.926188        0.263885 
        4.03698        0.915874        0.261421 
        4.05268        0.910073        0.258994 
        4.06839          0.9035        0.256597 
         4.0841        0.898702        0.254231 
        4.09983        0.892348        0.251892 
        4.11555        0.885835        0.249584 
        4.13124        0.879436        0.247312 
        4.14693        0.873203        0.245066 
        4.16266        0.867377        0.242843 
        4.17839        0.862824         0.24065 
        4.19408        0.856751        0.238489 
        4.20977        0.851621        0.236354 
        4.22551        0.846036         0.23424 
        4.24123        0.838737        0.232154 
        4.25691        0.835074          0.2301 
        4.27259        0.829451        0.228071 
        4.28831        0.824406        0.226062 
        4.30404        0.819385        0.224076 
        4.31974        0.813718        0.222118 
        4.33543        0.810083        0.220185 
        4.35116        0.806512        0.218271 
        4.36688        0.800055        0.216381 
        4.38255        0.798025         0.21452 
        4.39825        0.793061        0.212677 
        4.41398        0.787332        0.210853 
         4.4297        0.782664        0.209052 
        4.44541        0.779594        0.207273 
        4.46111        0.777599        0.205516 
        4.47683        0.772431        0.203779 
        4.49251        0.768721        0.202065 
        4.50819        0.764192        0.200372 
         4.5239        0.762909        0.198696 
        4.53962         0.75827        0.197037 
        4.55535        0.755936        0.195397 
        4.57106        0.751132        0.193778 
        4.58678        0.747799        0.192177 
         4.6025        0.744255        0.190594 
        4.61821        0.742039         0.18903 
        4.63391        0.737089        0.187485 
         4.6496         0.73365        0.185959 
        4.66532        0.732563        0.184447 
        4.68103        0.728606        0.182953 
        4.69673        0.726936        0.181477 
        4.71241        0.721826        0.180019 
        4.72811        0.721723        0.178575 
        4.74384        0.717716        0.177145 
        4.75955        0.715368        0.175733 
        4.77525        0.712087        0.174338 
        4.79096        0.711013        0.172956 
        4.80669        0.707388        0.171588 
         4.8224         0.70648        0.170238 
        4.83809        0.703141        0.168903 
        4.85379        0.702191        0.167582 
         4.8695        0.699705        0.166274 
        4.88521        0.696074        0.164981 
        4.90093        0.695492        0.163702 
        4.91663        0.691765        0.162437 
        4.93234        0.690051        0.161185 
        4.94807        0.689249        0.159945 
        4.96377        0.687268        0.158721 
        4.97943         0.68595        0.157512 
        4.99514        0.682087        0.156313 
        5.01086        0.682471        0.155126 
        5.02654         0.68027        0.153954 
        5.04227        0.678397        0.152791 
          5.058        0.676408         0.15164 
        5.07371        0.674488        0.150503 
        5.08942        0.673802        0.149377 
        5.10513        0.671785        0.148263 
        5.12084        0.670714         0.14716 
        5.13656        0.669366        0.146069 
        5.15225        0.668431         0.14499 
        5.16796        0.666705        0.143921 
        5.18369        0.667093        0.142862 
         5.1994         0.66639        0.141816 
        5.21509        0.664085        0.140781 
        5.23079        0.663038        0.139755 
        5.24649        0.662179        0.138741 
        5.26217        0.660333        0.137737 
        5.27788        0.660857        0.136743 
        5.29359        0.659873        0.135757 
        5.30933        0.658273        0.134781 
        5.32504        0.658017        0.133815 
        5.34073        0.656243        0.132861 
        5.35646        0.656109        0.131913 
        5.37218         0.65575        0.130975 
        5.38789        0.654076        0.130048 
        5.40357        0.654435        0.129131 
        5.41929        0.654333        0.128221 
        5.43502        0.653054        0.127319 
         5.4507        0.653125        0.126429 
        5.46639        0.652779        0.125547 
        5.48212        0.649581        0.124671 
        5.49786        0.649627        0.123803 
        5.51353        0.650029        0.122947 
        5.52921        0.648427        0.122099 
        5.54495        0.648892        0.121257 
        5.56066        0.648792        0.120423 
        5.57637        0.647153        0.119597 
        5.59207        0.648169         0.11878 
        5.60778        0.647962        0.117971 
        5.62346        0.645974         0.11717 
        5.63916        0.646739        0.116376 
        5.65487        0.646604        0.115589 
         5.6706        0.646684        0.114809 
        5.68633         0.64578        0.114035 
        5.70203        0.646225         0.11327 
        5.71773        0.644774        0.112513 
        5.73344        0.644157        0.111762 
        5.74916         0.64484        0.111017 
        5.76486        0.645151        0.110281 
        5.78054        0.644234        0.109552 
        5.79626        0.644132        0.108828 
          5.812        0.644916        0.108109 
         5.8277           0.644          0.1074 
        5.84339        0.643422        0.106696 
        5.85911        0.643397        0.105998 
        5.87484        0.643179        0.105306 
        5.89053        0.642437        0.104622 
        5.90623        0.642884        0.103944 
        5.92195        0.642641        0.103271 
        5.93767        0.642509        0.102604 
        5.95336        0.641765        0.101944 
        5.96905        0.641699         0.10129 
        5.98476        0.641812        0.100641 
        6.00048        0.643105       0.0999979 
        6.01617        0.642521       0.0993611 
        6.03185        0.641473       0.0987307 
        6.04756        0.641621       0.0981043 
        6.06331        0.642675       0.0974821 
        6.07903        0.642876       0.0968667 
        6.09473        0.643579       0.0962572 
        6.11044        0.642656       0.0956525 
        6.12616        0.642643       0.0950531 
        6.14186        0.641338       0.0944596 
        6.15755        0.642292       0.0938712 
        6.17326        0.642187       0.0932874 
        6.18898        0.641615       0.0927083 
        6.20467        0.643712       0.0921353 
        6.22036        0.641205       0.0915672 
         6.2361         0.64129       0.0910025 
         6.2518        0.640738       0.0904435 
        6.26748        0.641622       0.0898904 
        6.28319         0.64358       0.0893405 
        6.29893        0.642435       0.0887948 
        6.31463        0.642527       0.0882547 
        6.33033         0.64106       0.0877193 
        6.34604        0.641308       0.0871879 
        6.36177        0.641218       0.0866606 
        6.37747        0.642992       0.0861386 
