# k  (h/Mpc)    Pcb(k)  (Mpc/h)^3    Pcb_linear(k) (Mpc/h)^3   ShotnoiseSubtracted = true
      0.0200456         9676.77         9881.92 
      0.0350414         7269.57         7495.14 
      0.0492313         5467.83          5519.5 
      0.0637834         4776.12         4704.96 
      0.0800726         3912.29         3886.48 
       0.096163         2777.52         2857.26 
       0.111083         2191.96         2260.46 
       0.126058         2040.11         2027.82 
       0.142273          1805.4         1780.87 
       0.158546         1518.88         1424.13 
        0.17375         1213.85         1183.32 
       0.188953         1171.75         1075.32 
       0.204907         1118.71         979.116 
       0.220756         957.563         841.358 
        0.23588         841.302         725.269 
         0.2514         736.943         656.908 
       0.267535         721.616         605.357 
       0.283568         659.459         542.435 
       0.299022         613.931         482.353 
       0.314451         576.339         439.232 
       0.330372          533.93         406.786 
       0.346141         487.363         373.995 
       0.361624         468.358          340.95 
       0.377134         438.153         313.232 
       0.392932         415.149         291.122 
       0.408854         399.487         270.743 
       0.424564         381.842         250.831 
       0.440253          367.93         232.758 
       0.455999         347.483         217.438 
       0.471626         323.439         203.909 
        0.48727         316.352         191.028 
       0.502856          305.76         179.053 
       0.518488         302.094         168.292 
       0.534347         285.308         158.527 
       0.550082         268.348         149.523 
       0.565732         264.751         141.144 
       0.581496         252.066         133.366 
       0.597222         245.997         126.293 
       0.612804          237.08         119.802 
       0.628434          230.02         113.722 
       0.644267         222.676         107.976 
       0.660051         220.157         102.669 
       0.675724         215.856         97.7787 
       0.691403         209.866         93.2101 
       0.707174         200.913         88.9099 
       0.722871         199.524         84.9004 
        0.73838         195.604         81.1836 
       0.754018          189.46         77.6633 
       0.769845         184.841         74.3155 
        0.78569         182.254         71.1644 
       0.801365         177.676         68.2296 
       0.817031         171.779          65.465 
       0.832809         169.263         62.8388 
       0.848511         165.574         60.3715 
       0.864097         162.472         58.0565 
       0.879701         159.419         55.8632 
       0.895507         155.441         53.7596 
       0.911279         153.224         51.7709 
        0.92691         151.125         49.9014 
       0.942635          148.21         48.1158 
       0.958396         147.781         46.4154 
       0.974128         143.502         44.8019 
       0.989692         140.087         43.2826 
        1.00528         137.672         41.8328 
        1.02113          136.78         40.4279 
        1.03692         131.852         39.0938 
        1.05264         131.351         37.8272 
        1.06832         128.423         36.6197 
        1.08405         126.921         35.4626 
        1.09979         126.245         34.3557 
        1.11537         122.191         33.3079 
        1.13105         122.182         32.2982 
        1.14679         120.927         31.3273 
        1.16256         119.051         30.3951 
        1.17828          116.11         29.5045 
        1.19395         115.123         28.6533 
         1.2097         112.508         27.8319 
        1.22537         112.593         27.0472 
          1.241          109.97         26.2957 
        1.25666         107.956         25.5714 
        1.27241         106.867         24.8714 
        1.28819         105.307         24.1969 
        1.30392         104.053         23.5498 
        1.31957         102.585         22.9297 
        1.33529         100.869         22.3301 
        1.35108         99.8965         21.7498 
        1.36674         98.7481         21.1947 
         1.3824         97.0781         20.6598 
        1.39811         96.2402          20.142 
        1.41389         94.8376         19.6401 
        1.42964         93.8641         19.1566 
        1.44531         91.7611         18.6919 
        1.46101         90.9197         18.2419 
        1.47667         90.4766         17.8083 
        1.49229         88.7694         17.3903 
        1.50793         88.1469         16.9854 
        1.52367         87.0601         16.5909 
        1.53953          85.904         16.2066 
        1.55526         84.9888         15.8377 
        1.57092         84.6653          15.482 
        1.58662         82.9843         15.1366 
        1.60235         82.3761         14.8012 
        1.61809         81.2845         14.4759 
        1.63369         79.9125         14.1635 
        1.64941         79.2541         13.8582 
        1.66519         78.0803          13.561 
        1.68085         77.3089         13.2747 
        1.69652         76.1013         12.9967 
        1.71228         75.5817         12.7253 
        1.72806         75.0119         12.4615 
        1.74368         73.9938         12.2079 
        1.75933         73.2759          11.961 
        1.77505          72.567         11.7199 
        1.79081         71.4959         11.4851 
         1.8065         71.0278         11.2579 
        1.82218         69.9406         11.0371 
        1.83797         69.4115         10.8208 
        1.85367         68.4034         10.6116 
        1.86928          67.975         10.4092 
        1.88497         67.0733         10.2111 
        1.90073         66.3409         10.0175 
        1.91647         65.8421         9.82919 
        1.93218         64.8446         9.64618 
        1.94787         64.3805         9.46817 
        1.96363         63.4773         9.29401 
        1.97935         63.0329         9.12466 
        1.99499           62.14         8.96055 
        2.01064         61.9757         8.80031 
         2.0264         60.5972         8.64303 
        2.04216          60.177         8.48973 
        2.05781         59.4614         8.34118 
        2.07353         58.7937          8.1957 
        2.08928         58.2067         8.05342 
        2.10499         57.8561         7.91496 
        2.12065         57.2256         7.78021 
        2.13633         56.9409         7.64854 
        2.15211         56.2824          7.5191 
        2.16785          55.253         7.39307 
        2.18349         54.9445         7.27076 
        2.19916         54.4774         7.15099 
        2.21489         53.8822         7.03357 
        2.23063         53.1497         6.91875 
         2.2463           52.69         6.80704 
        2.26194         51.8369         6.69812 
        2.27765          51.334         6.59105 
        2.29341         50.8531         6.48608 
        2.30914         50.2755         6.38364 
        2.32486         49.7094         6.28351 
        2.34061         49.2926         6.18539 
        2.35635         48.8132         6.08948 
        2.37203          48.251         5.99596 
        2.38768         47.7759         5.90464 
        2.40339         47.4789         5.81491 
        2.41914         47.0722         5.72686 
        2.43483         46.2735         5.64098 
         2.4505         45.9157         5.55702 
        2.46622         45.5733         5.47451 
        2.48195         45.1794         5.39369 
        2.49759         44.5596         5.31496 
        2.51328          43.957         5.23762 
        2.52906         43.8426         5.16134 
        2.54479         43.0965          5.0869 
        2.56049         42.7888         5.01408 
        2.57618         42.3079         4.94278 
        2.59189         41.9751         4.87277 
        2.60758         41.6618         4.80425 
        2.62325         41.1346         4.73715 
        2.63898         40.8295         4.67112 
        2.65468         40.2913         4.60649 
        2.67044         39.9621         4.54284 
        2.68618         39.5283         4.48055 
        2.70184         39.1358         4.41969 
        2.71755         38.9628         4.35982 
        2.73329         38.4806         4.30099 
        2.74897         38.0515         4.24345 
        2.76462           37.66         4.18711 
        2.78034         37.3509         4.13157 
        2.79607         36.9267         4.07699 
        2.81179         36.7233         4.02348 
        2.82749         36.3931         3.97099 
        2.84321         35.8394          3.9194 
        2.85893         35.5478         3.86876 
        2.87462         35.2312          3.8191 
        2.89033         35.0003         3.77029 
        2.90605         34.7009          3.7223 
        2.92176         34.4465         3.67518 
        2.93747         33.9262         3.62891 
        2.95318         33.5602         3.58343 
        2.96891         33.3872         3.53873 
        2.98456         32.9148           3.495 
        3.00023         32.6981         3.45195 
        3.01596         32.3556         3.40951 
        3.03164         32.0587         3.36791 
        3.04738          31.948         3.32689 
         3.0631         31.5366         3.28657 
        3.07883         31.2067         3.24693 
        3.09456         30.8805         3.20797 
        3.11026         30.5826          3.1697 
        3.12596         30.3773         3.13208 
        3.14163         30.0974         3.09516 
        3.15734         29.7883         3.05876 
        3.17308          29.553         3.02286 
        3.18879         29.2312         2.98765 
        3.20447         28.9854         2.95306 
         3.2202         28.6873         2.91891 
         3.2359         28.3783         2.88537 
        3.25157         28.3491         2.85245 
        3.26729         28.0207         2.81994 
        3.28304         27.6915         2.78789 
        3.29877         27.3831         2.75638 
        3.31446         27.2799         2.72544 
        3.33014         26.9644           2.695 
        3.34585         26.7119         2.66499 
        3.36158         26.5183         2.63539 
        3.37727         26.1962         2.60635 
        3.39294         26.0129         2.57777 
        3.40867         25.8939         2.54953 
        3.42439         25.5411         2.52173 
        3.44008         25.2813          2.4944 
        3.45578         25.0877         2.46747 
        3.47153         24.8417         2.44087 
        3.48724         24.5723         2.41472 
        3.50292         24.4235         2.38902 
        3.51859         24.2228         2.36372 
        3.53431          24.032          2.3387 
        3.55007          23.755         2.31399 
        3.56577         23.5785         2.28974 
        3.58146         23.3919         2.26585 
        3.59719         23.1068         2.24225 
        3.61292         22.9052           2.219 
        3.62859         22.7406         2.19618 
        3.64429         22.5762         2.17363 
        3.66003         22.4184         2.15133 
        3.67578          22.176         2.12936 
        3.69146         21.9656         2.10779 
        3.70712         21.7379         2.08655 
        3.72284         21.7235         2.06554 
        3.73853          21.419         2.04485 
        3.75422            21.2         2.02444 
        3.76993         21.0354          2.0043 
        3.78564         20.8578         1.98444 
        3.80137         20.6887         1.96483 
        3.81707         20.5062         1.94552 
        3.83279         20.3218         1.92646 
        3.84853         20.1285         1.90763 
        3.86424         20.0011         1.88909 
        3.87992         19.8152         1.87082 
        3.89561         19.6469          1.8528 
        3.91134         19.4705         1.83499 
        3.92704         19.3224         1.81743 
        3.94273         19.1788         1.80012 
        3.95845         18.9642         1.78301 
        3.97418         18.8616         1.76612 
        3.98988         18.6879         1.74947 
        4.00554         18.5475         1.73309 
        4.02125         18.3424         1.71688 
        4.03698         18.2963         1.70084 
        4.05268         18.0432         1.68506 
        4.06839         17.8957         1.66946 
         4.0841          17.778         1.65407 
        4.09983         17.5972         1.63885 
        4.11555         17.4418         1.62383 
        4.13124         17.3382         1.60905 
        4.14693         17.1568         1.59443 
        4.16266         17.0436         1.57997 
        4.17839         16.8974          1.5657 
        4.19408         16.7311         1.55164 
        4.20977         16.6552         1.53775 
        4.22551         16.5188           1.524 
        4.24123         16.3832         1.51043 
        4.25691         16.1884         1.49707 
        4.27259         16.0748         1.48386 
        4.28831         15.9316         1.47079 
        4.30404          15.849         1.45787 
        4.31974         15.6761         1.44513 
        4.33543         15.5694         1.43256 
        4.35116          15.474          1.4201 
        4.36688         15.3204          1.4078 
        4.38255         15.2102          1.3957 
        4.39825          15.052         1.38371 
        4.41398         15.0147         1.37184 
         4.4297         14.8239         1.36012 
        4.44541         14.6781         1.34855 
        4.46111         14.6032         1.33712 
        4.47683         14.4912         1.32581 
        4.49251         14.3856         1.31466 
        4.50819         14.2861         1.30365 
         4.5239         14.1909         1.29274 
        4.53962         14.0268         1.28195 
        4.55535          13.957         1.27128 
        4.57106         13.8181         1.26075 
        4.58678         13.6955         1.25033 
         4.6025         13.6223         1.24003 
        4.61821         13.4976         1.22986 
        4.63391         13.4017         1.21981 
         4.6496         13.3017         1.20987 
        4.66532         13.2137         1.20004 
        4.68103         13.0836         1.19032 
        4.69673         12.9869         1.18072 
        4.71241         12.8575         1.17123 
        4.72811         12.7691         1.16183 
        4.74384         12.6952         1.15253 
        4.75955         12.5945         1.14335 
        4.77525         12.4874         1.13427 
        4.79096         12.4328         1.12528 
        4.80669         12.2991         1.11638 
         4.8224         12.2108         1.10759 
        4.83809         12.1411         1.09891 
        4.85379          12.027         1.09031 
         4.8695         11.9592          1.0818 
        4.88521         11.8774         1.07339 
        4.90093         11.7614         1.06507 
        4.91663         11.6788         1.05684 
        4.93234         11.6051         1.04869 
        4.94807         11.5158         1.04063 
        4.96377          11.415         1.03266 
        4.97943         11.3166          1.0248 
        4.99514         11.2619           1.017 
        5.01086         11.1795         1.00927 
        5.02654         11.0989         1.00165 
        5.04227          11.016        0.994081 
          5.058         10.9036        0.986589 
        5.07371         10.8538        0.979191 
        5.08942         10.7856        0.971869 
        5.10513         10.6984        0.964622 
        5.12084         10.6164        0.957445 
        5.13656         10.5448        0.950345 
        5.15225         10.4602        0.943329 
        5.16796         10.3806        0.936373 
        5.18369         10.3329        0.929483 
         5.1994         10.2346        0.922675 
        5.21509          10.153        0.915942 
        5.23079         10.0996        0.909269 
        5.24649         10.0215        0.902669 
        5.26217         9.94421         0.89614 
        5.27788         9.86318        0.889667 
        5.29359         9.79931        0.883257 
        5.30933         9.73968        0.876902 
        5.32504         9.66826        0.870621 
        5.34073         9.60109         0.86441 
        5.35646         9.52379        0.858247 
        5.37218         9.46772        0.852144 
        5.38789         9.40276        0.846111 
        5.40357         9.33326        0.840143 
        5.41929         9.27757        0.834221 
        5.43502          9.2091        0.828356 
         5.4507         9.13303        0.822562 
        5.46639         9.08422        0.816824 
        5.48212         9.01656        0.811127 
        5.49786         8.98132        0.805479 
        5.51353         8.88047        0.799913 
        5.52921         8.83417        0.794394 
        5.54495         8.75309        0.788913 
        5.56066         8.69741        0.783489 
        5.57637         8.63146        0.778118 
        5.59207         8.60422        0.772803 
        5.60778         8.49546        0.767536 
        5.62346           8.459        0.762326 
        5.63916          8.4151         0.75716 
        5.65487         8.35456        0.752039 
         5.6706         8.29115        0.746961 
        5.68633         8.22293        0.741928 
        5.70203         8.18286        0.736953 
        5.71773         8.13493        0.732025 
        5.73344         8.07281        0.727139 
        5.74916          8.0087        0.722295 
        5.76486         7.98112        0.717501 
        5.78054         7.91862        0.712759 
        5.79626         7.86256        0.708047 
          5.812         7.80071        0.703374 
         5.8277         7.74716        0.698757 
        5.84339         7.70283        0.694182 
        5.85911         7.64298        0.689639 
        5.87484          7.6038        0.685139 
        5.89053         7.55469        0.680688 
        5.90623         7.49268        0.676275 
        5.92195         7.44701        0.671894 
        5.93767         7.41634        0.667555 
        5.95336         7.34278        0.663262 
        5.96905          7.3153        0.659008 
        5.98476         7.26484        0.654786 
        6.00048         7.21054        0.650601 
        6.01617         7.16099        0.646458 
        6.03185          7.1099        0.642356 
        6.04756         7.07583        0.638281 
        6.06331         7.01113        0.634233 
        6.07903         6.98523        0.630229 
        6.09473         6.93884        0.626263 
        6.11044         6.89091        0.622329 
        6.12616         6.84938        0.618429 
        6.14186         6.79681        0.614567 
        6.15755          6.7582        0.610739 
        6.17326           6.715        0.606941 
        6.18898         6.67024        0.603174 
        6.20467         6.62378        0.599446 
        6.22036         6.58637         0.59575 
         6.2361         6.54439        0.592075 
         6.2518         6.50665        0.588438 
        6.26748         6.46162         0.58484 
        6.28319          6.4125        0.581262 
        6.29893         6.37703        0.577712 
        6.31463         6.35101        0.574198 
        6.33033         6.29995        0.570714 
        6.34604         6.26662        0.567257 
        6.36177         6.22147        0.563826 
        6.37747         6.19132         0.56043 
