# k  (h/Mpc)    Pcb(k)  (Mpc/h)^3    Pcb_linear(k) (Mpc/h)^3   ShotnoiseSubtracted = true
      0.0200456          144.96         147.112 
      0.0350414         112.185          111.58 
      0.0492313         82.5351         82.1689 
      0.0637834         69.7983         70.0428 
      0.0800726         57.4117          57.858 
       0.096163         42.8872         42.5362 
       0.111083         34.0619         33.6516 
       0.126058         30.1044         30.1882 
       0.142273           26.31         26.5119 
       0.158546         21.2306         21.2011 
        0.17375         17.7634         17.6161 
       0.188953         16.0225         16.0083 
       0.204907         14.3876         14.5761 
       0.220756         12.5055         12.5253 
        0.23588         10.8027         10.7971 
         0.2514         9.78282          9.7794 
       0.267535         9.00562         9.01196 
       0.283568         8.06621         8.07525 
       0.299022         7.18819          7.1808 
       0.314451         6.59831         6.53886 
       0.330372         6.06738         6.05584 
       0.346141          5.5761         5.56768 
       0.361624         5.07694         5.07573 
       0.377134         4.65536         4.66309 
       0.392932         4.39202         4.33394 
       0.408854          4.0277         4.03056 
       0.424564         3.77216         3.73412 
       0.440253         3.47976         3.46508 
       0.455999         3.22664         3.23701 
       0.471626         3.02679          3.0356 
        0.48727         2.86606         2.84383 
       0.502856         2.68784         2.66556 
       0.518488         2.49735         2.50536 
       0.534347         2.34239         2.35999 
       0.550082         2.23439         2.22596 
       0.565732         2.12628         2.10121 
       0.581496         1.99425         1.98543 
       0.597222         1.88542         1.88013 
       0.612804         1.78653          1.7835 
       0.628434         1.69483         1.69298 
       0.644267         1.61621         1.60744 
       0.660051         1.53798         1.52843 
       0.675724         1.45553         1.45563 
       0.691403          1.3881         1.38762 
       0.707174         1.32453          1.3236 
       0.722871         1.28217         1.26391 
        0.73838         1.20655         1.20858 
       0.754018          1.1539         1.15618 
       0.769845         1.09678         1.10634 
        0.78569         1.05875         1.05943 
       0.801365         1.01802         1.01574 
       0.817031        0.978156        0.974579 
       0.832809        0.932364        0.935483 
       0.848511        0.898687        0.898752 
       0.864097        0.867482        0.864288 
       0.879701         0.83787        0.831636 
       0.895507        0.796819         0.80032 
       0.911279        0.772842        0.770715 
        0.92691        0.749372        0.742884 
       0.942635        0.714032          0.7163 
       0.958396         0.69107        0.690987 
       0.974128        0.667011        0.666967 
       0.989692        0.644344        0.644349 
        1.00528        0.619603        0.622766 
        1.02113        0.604564         0.60185 
        1.03692        0.584891        0.581991 
        1.05264        0.561427        0.563135 
        1.06832        0.545189        0.545158 
        1.08405        0.525424        0.527932 
        1.09979        0.511071        0.511454 
        1.11537        0.492147        0.495855 
        1.13105        0.475612        0.480824 
        1.14679        0.463745         0.46637 
        1.16256         0.45128        0.452492 
        1.17828        0.438328        0.439234 
        1.19395        0.425186        0.426562 
         1.2097        0.411521        0.414334 
        1.22537        0.398438        0.402652 
          1.241        0.387845        0.391465 
        1.25666        0.379299        0.380682 
        1.27241        0.367062        0.370261 
        1.28819        0.356188         0.36022 
        1.30392        0.348041        0.350587 
        1.31957        0.337735        0.341355 
        1.33529        0.330118        0.332428 
        1.35108        0.319533         0.32379 
        1.36674        0.311894        0.315526 
         1.3824        0.304142        0.307564 
        1.39811        0.294883        0.299854 
        1.41389        0.289392        0.292383 
        1.42964        0.281305        0.285184 
        1.44531        0.273817        0.278267 
        1.46101        0.266357        0.271568 
        1.47667        0.260623        0.265113 
        1.49229        0.254102        0.258889 
        1.50793         0.24862        0.252861 
        1.52367        0.241905         0.24699 
        1.53953         0.23557        0.241268 
        1.55526        0.230504        0.235776 
        1.57092        0.226623        0.230481 
        1.58662        0.220879        0.225339 
        1.60235        0.215507        0.220345 
        1.61809        0.210173        0.215504 
        1.63369        0.205368        0.210853 
        1.64941        0.201215        0.206308 
        1.66519        0.196933        0.201883 
        1.68085        0.192122        0.197621 
        1.69652        0.188407        0.193483 
        1.71228        0.183575        0.189442 
        1.72806        0.180456        0.185514 
        1.74368        0.176282         0.18174 
        1.75933        0.172872        0.178064 
        1.77505        0.169682        0.174475 
        1.79081        0.165153         0.17098 
         1.8065        0.162424        0.167596 
        1.82218        0.158237        0.164309 
        1.83797        0.155124        0.161089 
        1.85367        0.151934        0.157974 
        1.86928        0.148388        0.154962 
        1.88497        0.145678        0.152013 
        1.90073         0.14253        0.149131 
        1.91647        0.140835        0.146327 
        1.93218        0.138651        0.143603 
        1.94787        0.134512        0.140953 
        1.96363        0.132238         0.13836 
        1.97935        0.129683        0.135839 
        1.99499        0.127151        0.133396 
        2.01064        0.124833         0.13101 
         2.0264        0.122839        0.128669 
        2.04216        0.120075        0.126387 
        2.05781        0.117611        0.124175 
        2.07353        0.115831         0.12201 
        2.08928        0.113873        0.119891 
        2.10499        0.111489         0.11783 
        2.12065        0.109674        0.115824 
        2.13633        0.107702        0.113864 
        2.15211        0.106005        0.111937 
        2.16785        0.103416        0.110061 
        2.18349        0.101898         0.10824 
        2.19916       0.0998239        0.106457 
        2.21489       0.0980438        0.104709 
        2.23063       0.0968051           0.103 
         2.2463       0.0950094        0.101337 
        2.26194       0.0934402        0.099715 
        2.27765       0.0919022       0.0981211 
        2.29341        0.089911       0.0965584 
        2.30914       0.0885217       0.0950334 
        2.32486       0.0869403       0.0935427 
        2.34061       0.0854413        0.092082 
        2.35635       0.0841875       0.0906542 
        2.37203       0.0834305       0.0892621 
        2.38768        0.081761       0.0879025 
        2.40339       0.0802811       0.0865667 
        2.41914       0.0788355       0.0852559 
        2.43483       0.0779185       0.0839773 
         2.4505       0.0764361       0.0827275 
        2.46622       0.0751829       0.0814991 
        2.48195       0.0740055        0.080296 
        2.49759       0.0727772       0.0791239 
        2.51328       0.0713073       0.0779725 
        2.52906       0.0705708        0.076837 
        2.54479       0.0695359       0.0757288 
        2.56049       0.0682377       0.0746448 
        2.57618       0.0673984       0.0735833 
        2.59189        0.065926       0.0725411 
        2.60758        0.065437        0.071521 
        2.62325       0.0641186       0.0705221 
        2.63898       0.0633567        0.069539 
        2.65468       0.0622172        0.068577 
        2.67044       0.0613566       0.0676293 
        2.68618       0.0603516        0.066702 
        2.70184       0.0597395        0.065796 
        2.71755        0.058718       0.0649048 
        2.73329       0.0579717       0.0640289 
        2.74897       0.0571315       0.0631724 
        2.76462       0.0561577       0.0623336 
        2.78034       0.0554557       0.0615067 
        2.79607       0.0547093       0.0606942 
        2.81179       0.0538009       0.0598976 
        2.82749       0.0532152       0.0591163 
        2.84321       0.0523474       0.0583482 
        2.85893       0.0515689       0.0575943 
        2.87462       0.0508988       0.0568551 
        2.89033       0.0501555       0.0561284 
        2.90605       0.0495404       0.0554139 
        2.92176       0.0490111       0.0547124 
        2.93747        0.048154       0.0540236 
        2.95318       0.0476428       0.0533467 
        2.96891       0.0468482       0.0526812 
        2.98456       0.0462258       0.0520301 
        3.00023       0.0458571       0.0513893 
        3.01596       0.0449417       0.0507574 
        3.03164        0.044475       0.0501381 
        3.04738       0.0438746       0.0495274 
         3.0631       0.0430849       0.0489273 
        3.07883       0.0427756       0.0483372 
        3.09456       0.0422312       0.0477571 
        3.11026       0.0416129       0.0471875 
        3.12596       0.0413122       0.0466274 
        3.14163       0.0406512       0.0460777 
        3.15734       0.0402949       0.0455358 
        3.17308       0.0397173       0.0450015 
        3.18879       0.0391479       0.0444772 
        3.20447       0.0386166       0.0439622 
         3.2202       0.0382274       0.0434539 
         3.2359       0.0377702       0.0429546 
        3.25157       0.0373463       0.0424644 
        3.26729        0.036896       0.0419806 
        3.28304       0.0365405       0.0415034 
        3.29877       0.0360458       0.0410343 
        3.31446       0.0355383       0.0405736 
        3.33014       0.0352372       0.0401205 
        3.34585       0.0348476       0.0396737 
        3.36158       0.0344012       0.0392332 
        3.37727       0.0339842       0.0388008 
        3.39294       0.0335663       0.0383753 
        3.40867        0.033325       0.0379549 
        3.42439       0.0329268        0.037541 
        3.44008       0.0326192       0.0371342 
        3.45578       0.0322427       0.0367332 
        3.47153        0.031932       0.0363373 
        3.48724       0.0315465        0.035948 
        3.50292        0.031387       0.0355655 
        3.51859       0.0309758       0.0351887 
        3.53431       0.0305337       0.0348163 
        3.55007       0.0302994       0.0344484 
        3.56577       0.0300193       0.0340874 
        3.58146       0.0296556       0.0337318 
        3.59719       0.0294831       0.0333805 
        3.61292       0.0290791       0.0330343 
        3.62859       0.0287589       0.0326945 
        3.64429       0.0285675       0.0323589 
        3.66003       0.0283317        0.032027 
        3.67578       0.0280692       0.0316999 
        3.69146       0.0278614       0.0313787 
        3.70712        0.027543       0.0310626 
        3.72284       0.0272595       0.0307497 
        3.73853        0.027036       0.0304417 
        3.75422       0.0267934       0.0301379 
        3.76993        0.026589       0.0298381 
        3.78564       0.0262996       0.0295424 
        3.80137       0.0261265       0.0292504 
        3.81707       0.0258585        0.028963 
        3.83279       0.0255847       0.0286792 
        3.84853       0.0254144       0.0283989 
        3.86424       0.0251983       0.0281229 
        3.87992       0.0250218        0.027851 
        3.89561       0.0247483       0.0275827 
        3.91134       0.0245871       0.0273175 
        3.92704       0.0243335       0.0270561 
        3.94273       0.0241558       0.0267984 
        3.95845       0.0238782       0.0265437 
        3.97418       0.0237444       0.0262923 
        3.98988       0.0234006       0.0260445 
        4.00554       0.0232867       0.0258006 
        4.02125       0.0229702       0.0255592 
        4.03698       0.0226251       0.0253205 
        4.05268       0.0223885       0.0250854 
        4.06839       0.0220738       0.0248533 
         4.0841       0.0216886       0.0246241 
        4.09983       0.0213717       0.0243976 
        4.11555       0.0211218        0.024174 
        4.13124       0.0207745       0.0239539 
        4.14693       0.0205289       0.0237364 
        4.16266       0.0202422       0.0235211 
        4.17839       0.0199767       0.0233086 
        4.19408       0.0197112       0.0230993 
        4.20977       0.0194488       0.0228925 
        4.22551       0.0192438       0.0226878 
        4.24123       0.0190102       0.0224858 
        4.25691       0.0188444       0.0222869 
        4.27259        0.018577       0.0220903 
        4.28831       0.0184333       0.0218957 
        4.30404       0.0181654       0.0217033 
        4.31974       0.0180527       0.0215137 
        4.33543       0.0178646       0.0213265 
        4.35116       0.0176325       0.0211411 
        4.36688       0.0175792        0.020958 
        4.38255       0.0173818       0.0207778 
        4.39825       0.0173443       0.0205993 
        4.41398       0.0171709       0.0204226 
         4.4297       0.0170553       0.0202482 
        4.44541       0.0168999       0.0200759 
        4.46111       0.0167852       0.0199057 
        4.47683       0.0167664       0.0197374 
        4.49251       0.0166713       0.0195714 
        4.50819       0.0166081       0.0194074 
         4.5239       0.0164715       0.0192451 
        4.53962       0.0164583       0.0190845 
        4.55535       0.0163685       0.0189256 
        4.57106       0.0163722       0.0187688 
        4.58678       0.0163129       0.0186137 
         4.6025       0.0162826       0.0184604 
        4.61821       0.0162761       0.0183089 
        4.63391       0.0162681       0.0181593 
         4.6496       0.0162131       0.0180114 
        4.66532       0.0161723        0.017865 
        4.68103       0.0162448       0.0177203 
        4.69673       0.0162329       0.0175773 
        4.71241       0.0163354       0.0174361 
        4.72811       0.0162851       0.0172963 
        4.74384       0.0163241       0.0171578 
        4.75955         0.01633        0.017021 
        4.77525       0.0163763       0.0168858 
        4.79096       0.0164996        0.016752 
        4.80669       0.0165813       0.0166196 
         4.8224       0.0166114       0.0164887 
        4.83809       0.0167277       0.0163594 
        4.85379       0.0168901       0.0162315 
         4.8695       0.0169489       0.0161048 
        4.88521       0.0170071       0.0159796 
        4.90093        0.017096       0.0158557 
        4.91663       0.0172325       0.0157332 
        4.93234       0.0173731       0.0156119 
        4.94807       0.0174756       0.0154918 
        4.96377       0.0176377       0.0153732 
        4.97943       0.0179465       0.0152562 
        4.99514        0.018054         0.01514 
        5.01086       0.0181802        0.015025 
        5.02654       0.0183734       0.0149115 
        5.04227       0.0185059       0.0147989 
          5.058       0.0187422       0.0146874 
        5.07371       0.0188571       0.0145772 
        5.08942        0.019191       0.0144682 
        5.10513       0.0193476       0.0143603 
        5.12084       0.0195815       0.0142535 
        5.13656       0.0198409       0.0141478 
        5.15225       0.0201284       0.0140434 
        5.16796       0.0204406       0.0139398 
        5.18369       0.0206022       0.0138372 
         5.1994       0.0209543       0.0137359 
        5.21509       0.0211633       0.0136356 
        5.23079       0.0215401       0.0135363 
        5.24649        0.021858       0.0134381 
        5.26217       0.0221109       0.0133409 
        5.27788       0.0224943       0.0132445 
        5.29359        0.022774       0.0131491 
        5.30933       0.0232227       0.0130545 
        5.32504       0.0235838        0.012961 
        5.34073       0.0239278       0.0128685 
        5.35646        0.024419       0.0127767 
        5.37218       0.0247092       0.0126859 
        5.38789       0.0250945       0.0125961 
        5.40357       0.0256446       0.0125072 
        5.41929       0.0260812       0.0124191 
        5.43502       0.0265487       0.0123318 
         5.4507       0.0269681       0.0122455 
        5.46639       0.0274557       0.0121601 
        5.48212       0.0279502       0.0120753 
        5.49786       0.0286189       0.0119912 
        5.51353        0.029253       0.0119083 
        5.52921       0.0294846       0.0118262 
        5.54495       0.0302165       0.0117446 
        5.56066       0.0308765       0.0116638 
        5.57637       0.0313712       0.0115839 
        5.59207       0.0320823       0.0115047 
        5.60778       0.0325886       0.0114263 
        5.62346        0.033179       0.0113488 
        5.63916       0.0338361       0.0112719 
        5.65487       0.0345921       0.0111956 
         5.6706       0.0352389         0.01112 
        5.68633          0.0362       0.0110451 
        5.70203       0.0368709        0.010971 
        5.71773       0.0377689       0.0108977 
        5.73344       0.0381951       0.0108249 
        5.74916       0.0391363       0.0107528 
        5.76486       0.0401728       0.0106815 
        5.78054       0.0410569       0.0106109 
        5.79626       0.0417722       0.0105407 
          5.812       0.0429871       0.0104711 
         5.8277       0.0435725       0.0104024 
        5.84339       0.0446097       0.0103343 
        5.85911       0.0457677       0.0102667 
        5.87484       0.0465199       0.0101997 
        5.89053       0.0477968       0.0101334 
        5.90623       0.0487865       0.0100677 
        5.92195        0.050013       0.0100025 
        5.93767       0.0511872       0.0099379 
        5.95336       0.0522534      0.00987399 
        5.96905       0.0534939      0.00981067 
        5.98476        0.054288      0.00974782 
        6.00048       0.0563692      0.00968551 
        6.01617       0.0571374      0.00962383 
        6.03185       0.0583497      0.00956277 
        6.04756       0.0599944       0.0095021 
        6.06331       0.0616422      0.00944184 
        6.07903       0.0628583      0.00938223 
        6.09473       0.0647957      0.00932319 
        6.11044       0.0663826      0.00926462 
        6.12616       0.0676609      0.00920657 
        6.14186       0.0690839      0.00914908 
        6.15755       0.0708568      0.00909209 
        6.17326       0.0726543      0.00903554 
        6.18898       0.0746365      0.00897946 
        6.20467       0.0769513      0.00892396 
        6.22036       0.0784562      0.00886894 
         6.2361       0.0803683      0.00881424 
         6.2518       0.0825666      0.00876009 
        6.26748       0.0836193      0.00870653 
        6.28319       0.0867439      0.00865327 
        6.29893       0.0883714      0.00860041 
        6.31463       0.0912233      0.00854809 
        6.33033       0.0928718      0.00849623 
        6.34604       0.0958475      0.00844477 
        6.36177       0.0973097      0.00839369 
        6.37747        0.100447      0.00834314 
