# k  (h/Mpc)    Pcb(k)  (Mpc/h)^3    Pcb_linear(k) (Mpc/h)^3   ShotnoiseSubtracted = true
      0.0200456         724.028         735.588 
      0.0350414         554.941         557.922 
      0.0492313         412.356          410.86 
      0.0637834         352.648         350.227 
      0.0800726         290.109         289.301 
       0.096163         212.085         212.689 
       0.111083         167.367         168.264 
       0.126058         151.449         150.946 
       0.142273         133.073         132.564 
       0.158546         107.025         106.009 
        0.17375          87.973         88.0838 
       0.188953           80.67         80.0445 
       0.204907         74.9439         72.8832 
       0.220756         63.6321         62.6288 
        0.23588         55.0324         53.9875 
         0.2514         49.4024         48.8988 
       0.267535         45.6716         45.0614 
       0.283568         41.1403         40.3777 
       0.299022         36.9353         35.9053 
       0.314451         33.0828         32.6955 
       0.330372         30.8847         30.2803 
       0.346141         28.3813         27.8394 
       0.361624         26.1063         25.3796 
       0.377134          24.272         23.3163 
       0.392932            21.8         21.6705 
       0.408854         20.9113         20.1535 
       0.424564          19.375         18.6713 
       0.440253         17.9393          17.326 
       0.455999         16.9375         16.1856 
       0.471626         15.9642         15.1785 
        0.48727         14.9324         14.2197 
       0.502856         13.9477         13.3283 
       0.518488         13.3416         12.5273 
       0.534347         12.7266         11.8004 
       0.550082         11.7034         11.1302 
       0.565732         10.8488         10.5064 
       0.581496         10.6014         9.92751 
       0.597222         10.1471           9.401 
       0.612804         9.49435         8.91784 
       0.628434         9.15747         8.46519 
       0.644267         8.72493         8.03749 
       0.660051         8.25373         7.64245 
       0.675724         7.87088         7.27843 
       0.691403          7.5989         6.93836 
       0.707174         7.21253         6.61826 
       0.722871         6.90953          6.3198 
        0.73838         6.66086         6.04313 
       0.754018         6.44088         5.78109 
       0.769845         6.11427         5.53188 
        0.78569         5.91089         5.29732 
       0.801365         5.65948         5.07886 
       0.817031          5.4761         4.87307 
       0.832809         5.27659         4.67758 
       0.848511         5.00428         4.49392 
       0.864097         4.82317          4.3216 
       0.879701         4.66386         4.15833 
       0.895507         4.48923         4.00175 
       0.911279         4.40866         3.85372 
        0.92691         4.24314         3.71455 
       0.942635         4.06611         3.58163 
       0.958396         3.92221         3.45506 
       0.974128         3.81534         3.33496 
       0.989692         3.73563         3.22186 
        1.00528         3.57824         3.11394 
        1.02113         3.44675         3.00936 
        1.03692         3.39153         2.91006 
        1.05264         3.26995         2.81578 
        1.06832         3.19146         2.72589 
        1.08405         3.04059         2.63976 
        1.09979         2.98028         2.55736 
        1.11537         2.90772         2.47936 
        1.13105         2.83766         2.40421 
        1.14679         2.76389         2.33193 
        1.16256         2.66829         2.26254 
        1.17828         2.60873         2.19625 
        1.19395         2.53849         2.13289 
         1.2097         2.43272         2.07174 
        1.22537         2.38848         2.01334 
          1.241         2.33738         1.95739 
        1.25666         2.31678         1.90348 
        1.27241         2.21104         1.85137 
        1.28819         2.16072         1.80116 
        1.30392         2.12726           1.753 
        1.31957         2.07603         1.70684 
        1.33529          2.0162          1.6622 
        1.35108         1.97173         1.61901 
        1.36674         1.90871         1.57769 
         1.3824         1.87272         1.53787 
        1.39811         1.82827         1.49932 
        1.41389         1.79704         1.46197 
        1.42964         1.75893         1.42597 
        1.44531         1.71665         1.39138 
        1.46101         1.68821         1.35789 
        1.47667          1.6248         1.32561 
        1.49229         1.61339         1.29449 
        1.50793         1.57044         1.26435 
        1.52367         1.54626         1.23499 
        1.53953         1.49771         1.20638 
        1.55526         1.47197         1.17892 
        1.57092         1.44209         1.15245 
        1.58662          1.4186         1.12673 
        1.60235         1.38779         1.10177 
        1.61809         1.35391         1.07756 
        1.63369         1.34413          1.0543 
        1.64941         1.30567         1.03158 
        1.66519         1.28521         1.00945 
        1.68085         1.24675         0.98814 
        1.69652         1.22907        0.967449 
        1.71228         1.21387        0.947243 
        1.72806         1.17911        0.927606 
        1.74368         1.16786        0.908732 
        1.75933         1.13887        0.890354 
        1.77505         1.12173        0.872406 
        1.79081         1.10103        0.854929 
         1.8065         1.07467        0.838013 
        1.82218         1.06389        0.821576 
        1.83797         1.04558        0.805475 
        1.85367         1.03453        0.789901 
        1.86928         1.01336        0.774838 
        1.88497        0.990289        0.760092 
        1.90073         0.97037        0.745682 
        1.91647        0.964395        0.731663 
        1.93218        0.941253         0.71804 
        1.94787        0.926312         0.70479 
        1.96363        0.909463        0.691826 
        1.97935        0.893216         0.67922 
        1.99499        0.879836        0.667004 
        2.01064        0.864999        0.655076 
         2.0264        0.852603        0.643368 
        2.04216        0.841736        0.631957 
        2.05781        0.826885        0.620899 
        2.07353        0.812689         0.61007 
        2.08928        0.796011        0.599479 
        2.10499        0.787577        0.589172 
        2.12065        0.782006        0.579142 
        2.13633        0.766154         0.56934 
        2.15211        0.751531        0.559705 
        2.16785        0.739519        0.550324 
        2.18349        0.728664        0.541219 
        2.19916        0.719952        0.532304 
        2.21489        0.707059        0.523564 
        2.23063        0.698111        0.515017 
         2.2463        0.691643        0.506701 
        2.26194        0.671953        0.498593 
        2.27765        0.666103        0.490623 
        2.29341        0.660398        0.482809 
        2.30914        0.654142        0.475184 
        2.32486        0.640144        0.467731 
        2.34061         0.63079        0.460427 
        2.35635        0.620465        0.453287 
        2.37203        0.613216        0.446327 
        2.38768        0.605162        0.439528 
        2.40339        0.597978        0.432849 
        2.41914        0.589981        0.426295 
        2.43483        0.581097        0.419902 
         2.4505        0.572537        0.413652 
        2.46622        0.565242         0.40751 
        2.48195         0.56125        0.401494 
        2.49759        0.552334        0.395634 
        2.51328        0.542683        0.389877 
        2.52906        0.538119        0.384199 
        2.54479        0.529722        0.378658 
        2.56049        0.521092        0.373238 
        2.57618         0.51658         0.36793 
        2.59189        0.511329        0.362719 
        2.60758        0.504581        0.357618 
        2.62325        0.496763        0.352623 
        2.63898        0.492824        0.347708 
        2.65468        0.484791        0.342897 
        2.67044        0.478741        0.338159 
        2.68618        0.473317        0.333522 
        2.70184        0.468281        0.328992 
        2.71755        0.461526        0.324536 
        2.73329        0.456241        0.320156 
        2.74897        0.451566        0.315873 
        2.76462        0.446384        0.311679 
        2.78034        0.440163        0.307545 
        2.79607         0.43612        0.303482 
        2.81179        0.430493        0.299499 
        2.82749        0.425904        0.295592 
        2.84321        0.421863        0.291752 
        2.85893        0.416342        0.287982 
        2.87462        0.411307        0.284286 
        2.89033        0.405977        0.280652 
        2.90605        0.403145         0.27708 
        2.92176        0.397905        0.273572 
        2.93747        0.392919        0.270128 
        2.95318        0.389482        0.266743 
        2.96891        0.385067        0.263415 
        2.98456         0.38082         0.26016 
        3.00023        0.377862        0.256956 
        3.01596        0.373007        0.253796 
        3.03164        0.369162        0.250699 
        3.04738        0.363553        0.247646 
         3.0631        0.362169        0.244645 
        3.07883        0.356818        0.241695 
        3.09456        0.352831        0.238794 
        3.11026         0.35095        0.235946 
        3.12596         0.34579        0.233145 
        3.14163        0.343454        0.230397 
        3.15734        0.340884        0.227687 
        3.17308        0.336974        0.225015 
        3.18879        0.334436        0.222394 
        3.20447        0.328483        0.219819 
         3.2202         0.32792        0.217277 
         3.2359        0.323742        0.214781 
        3.25157        0.320916         0.21233 
        3.26729        0.317496         0.20991 
        3.28304        0.315289        0.207524 
        3.29877        0.311599        0.205179 
        3.31446        0.309144        0.202876 
        3.33014        0.306785         0.20061 
        3.34585        0.305423        0.198376 
        3.36158        0.301599        0.196173 
        3.37727        0.299491        0.194011 
        3.39294        0.295886        0.191884 
        3.40867        0.293321        0.189781 
        3.42439         0.29148        0.187712 
        3.44008        0.288537        0.185678 
        3.45578        0.287475        0.183673 
        3.47153         0.28424        0.181693 
        3.48724        0.282293        0.179747 
        3.50292         0.28019        0.177834 
        3.51859        0.276756         0.17595 
        3.53431         0.27456        0.174088 
        3.55007        0.273437        0.172248 
        3.56577        0.269927        0.170443 
        3.58146        0.267751        0.168665 
        3.59719        0.266332        0.166908 
        3.61292        0.264899        0.165178 
        3.62859        0.262099        0.163478 
        3.64429         0.25953          0.1618 
        3.66003        0.257871        0.160141 
        3.67578        0.256166        0.158505 
        3.69146        0.253978        0.156899 
        3.70712        0.252834        0.155318 
        3.72284        0.250408        0.153754 
        3.73853        0.249236        0.152214 
        3.75422        0.246974        0.150695 
        3.76993        0.245057        0.149196 
        3.78564        0.242898        0.147718 
        3.80137        0.241165        0.146257 
        3.81707        0.239622         0.14482 
        3.83279        0.237683        0.143401 
        3.84853        0.235706           0.142 
        3.86424        0.234085        0.140619 
        3.87992        0.232517         0.13926 
        3.89561        0.230573        0.137919 
        3.91134        0.229508        0.136592 
        3.92704        0.226992        0.135285 
        3.94273        0.224855        0.133997 
        3.95845        0.223573        0.132723 
        3.97418        0.222466        0.131466 
        3.98988        0.219661        0.130227 
        4.00554        0.218742        0.129008 
        4.02125         0.21681          0.1278 
        4.03698         0.21408        0.126607 
        4.05268        0.212364        0.125432 
        4.06839         0.20942        0.124271 
         4.0841        0.207018        0.123125 
        4.09983        0.204992        0.121992 
        4.11555        0.202613        0.120874 
        4.13124        0.200014        0.119774 
        4.14693        0.198831        0.118686 
        4.16266        0.196244         0.11761 
        4.17839        0.194678        0.116547 
        4.19408        0.192708        0.115501 
        4.20977         0.19117        0.114467 
        4.22551        0.189234        0.113443 
        4.24123        0.187581        0.112433 
        4.25691        0.185637        0.111438 
        4.27259        0.184138        0.110455 
        4.28831        0.182441        0.109483 
        4.30404        0.180847        0.108521 
        4.31974        0.180259        0.107573 
        4.33543        0.178406        0.106636 
        4.35116        0.176543        0.105709 
        4.36688        0.175615        0.104794 
        4.38255        0.173935        0.103893 
        4.39825        0.173371           0.103 
        4.41398        0.172095        0.102117 
         4.4297         0.17098        0.101245 
        4.44541        0.170012        0.100383 
        4.46111         0.16878       0.0995321 
        4.47683         0.16798       0.0986907 
        4.49251         0.16671       0.0978608 
        4.50819        0.165837       0.0970407 
         4.5239        0.165063       0.0962291 
        4.53962        0.164568       0.0954258 
        4.55535         0.16346       0.0946314 
        4.57106        0.162933       0.0938473 
        4.58678        0.161926       0.0930721 
         4.6025        0.161425       0.0923055 
        4.61821        0.161016       0.0915478 
        4.63391        0.160452       0.0907997 
         4.6496        0.159834       0.0900603 
        4.66532        0.159715       0.0893282 
        4.68103        0.159107       0.0886046 
        4.69673        0.158396       0.0878899 
        4.71241         0.15849       0.0871838 
        4.72811        0.157713       0.0864844 
        4.74384        0.157593       0.0857919 
        4.75955        0.157832       0.0851081 
        4.77525        0.157643       0.0844323 
        4.79096        0.156888        0.083763 
        4.80669        0.157003       0.0831008 
         4.8224        0.157109       0.0824466 
        4.83809        0.156863       0.0818002 
        4.85379        0.156681       0.0811604 
         4.8695        0.156867       0.0805271 
        4.88521        0.156837       0.0799008 
        4.90093        0.157003       0.0792812 
        4.91663        0.157171       0.0786688 
        4.93234        0.157059       0.0780623 
        4.94807        0.157576       0.0774619 
        4.96377        0.157772        0.076869 
        4.97943        0.158852       0.0762837 
        4.99514        0.158362        0.075703 
        5.01086        0.159308       0.0751279 
        5.02654         0.15932       0.0745604 
        5.04227        0.159936       0.0739972 
          5.058        0.160171       0.0734396 
        5.07371        0.161302       0.0728889 
        5.08942        0.161437       0.0723438 
        5.10513        0.162016       0.0718043 
        5.12084        0.163021       0.0712701 
        5.13656        0.163184       0.0707416 
        5.15225        0.164248       0.0702193 
        5.16796        0.164934       0.0697016 
        5.18369        0.165523       0.0691887 
         5.1994        0.167045       0.0686819 
        5.21509        0.167401       0.0681807 
        5.23079        0.168561        0.067684 
        5.24649        0.170063       0.0671927 
        5.26217        0.170808       0.0667067 
        5.27788        0.171764       0.0662248 
        5.29359        0.172463       0.0657477 
        5.30933        0.174058       0.0652747 
        5.32504        0.174945       0.0648072 
        5.34073        0.176202       0.0643448 
        5.35646        0.176464        0.063886 
        5.37218        0.179036       0.0634317 
        5.38789        0.179447       0.0629826 
        5.40357        0.180671       0.0625384 
        5.41929         0.18284       0.0620976 
        5.43502        0.183848        0.061661 
         5.4507        0.185808       0.0612297 
        5.46639        0.186729       0.0608026 
        5.48212        0.188719       0.0603785 
        5.49786         0.19034       0.0599581 
        5.51353        0.192019       0.0595438 
        5.52921        0.193022        0.059133 
        5.54495        0.195626       0.0587249 
        5.56066        0.196446       0.0583212 
        5.57637        0.198446       0.0579214 
        5.59207        0.200992       0.0575258 
        5.60778        0.202717       0.0571337 
        5.62346        0.204999       0.0567459 
        5.63916        0.206849       0.0563613 
        5.65487        0.208436       0.0559802 
         5.6706        0.210684       0.0556022 
        5.68633         0.21202       0.0552275 
        5.70203        0.214448       0.0548572 
        5.71773        0.217043       0.0544903 
        5.73344        0.218232       0.0541267 
        5.74916        0.221567        0.053766 
        5.76486        0.223471       0.0534092 
        5.78054        0.225266       0.0530562 
        5.79626        0.227707       0.0527055 
          5.812        0.230277       0.0523576 
         5.8277         0.23281       0.0520139 
        5.84339        0.235032       0.0516734 
        5.85911        0.238032       0.0513352 
        5.87484        0.239819       0.0510002 
        5.89053        0.243196       0.0506689 
        5.90623        0.245004       0.0503404 
        5.92195        0.247517       0.0500143 
        5.93767        0.249887       0.0496913 
        5.95336        0.253766       0.0493717 
        5.96905        0.255106       0.0490551 
        5.98476         0.25704       0.0487409 
        6.00048        0.261438       0.0484293 
        6.01617        0.263043       0.0481209 
        6.03185        0.266174       0.0478156 
        6.04756        0.269714       0.0475122 
        6.06331        0.271262       0.0472109 
        6.07903        0.274114       0.0469128 
        6.09473        0.276844       0.0466177 
        6.11044        0.280121       0.0463248 
        6.12616        0.282125       0.0460345 
        6.14186        0.286468       0.0457471 
        6.15755        0.289038       0.0454621 
        6.17326        0.292371       0.0451794 
        6.18898        0.293754       0.0448989 
        6.20467        0.298292       0.0446214 
        6.22036        0.300312       0.0443463 
         6.2361        0.302883       0.0440728 
         6.2518        0.306968        0.043802 
        6.26748        0.308778       0.0435342 
        6.28319        0.312088       0.0432679 
        6.29893         0.31491       0.0430036 
        6.31463        0.318926        0.042742 
        6.33033        0.320718       0.0424827 
        6.34604        0.324405       0.0422254 
        6.36177        0.327855         0.04197 
        6.37747          0.3317       0.0417172 
