# k  (h/Mpc)    Pcb(k)  (Mpc/h)^3    Pcb_linear(k) (Mpc/h)^3   ShotnoiseSubtracted = true
      0.0200456         3426.41         3477.94 
      0.0350414         2679.45         2637.91 
      0.0492313         1942.29         1942.59 
      0.0637834         1624.06         1655.91 
      0.0800726         1332.51         1367.84 
       0.096163         1024.72         1005.61 
       0.111083         822.264          795.57 
       0.126058         706.986         713.691 
       0.142273          619.18         626.777 
       0.158546         508.196         501.223 
        0.17375         433.077          416.47 
       0.188953         392.858         378.459 
       0.204907         342.661           344.6 
       0.220756         306.683         296.116 
        0.23588         267.691         255.258 
         0.2514         241.526         231.199 
       0.267535         229.159         213.055 
       0.283568         202.911          190.91 
       0.299022         187.453         169.764 
       0.314451         178.705         154.588 
       0.330372         158.915         143.168 
       0.346141         147.188         131.628 
       0.361624         137.119         119.997 
       0.377134         125.273         110.242 
       0.392932         122.371          102.46 
       0.408854          113.72          95.288 
       0.424564         108.893         88.2798 
       0.440253         99.3301         81.9193 
       0.455999          91.859         76.5273 
       0.471626         87.8458         71.7657 
        0.48727         85.7673         67.2322 
       0.502856         79.5926         63.0176 
       0.518488         76.0251         59.2303 
       0.534347         71.9343         55.7935 
       0.550082         69.5335         52.6248 
       0.565732         67.4228         49.6755 
       0.581496         63.0524         46.9383 
       0.597222         60.3549         44.4489 
       0.612804         58.3495         42.1645 
       0.628434          57.211         40.0243 
       0.644267         54.2013         38.0021 
       0.660051         51.9608         36.1343 
       0.675724           50.04         34.4132 
       0.691403         49.3567         32.8053 
       0.707174          47.722         31.2918 
       0.722871         46.1648         29.8807 
        0.73838         44.0983         28.5726 
       0.754018         42.0359         27.3336 
       0.769845         41.3599         26.1553 
        0.78569         39.9378         25.0463 
       0.801365         38.8679         24.0134 
       0.817031         37.4618         23.0404 
       0.832809         36.8235         22.1161 
       0.848511         35.6427         21.2477 
       0.864097         34.7524          20.433 
       0.879701         34.2301          19.661 
       0.895507         33.0338         18.9207 
       0.911279         31.9366         18.2208 
        0.92691         31.4425         17.5628 
       0.942635         30.8491         16.9343 
       0.958396         30.0619         16.3359 
       0.974128         29.2854          15.768 
       0.989692         28.2415         15.2333 
        1.00528          28.033          14.723 
        1.02113         27.2578         14.2286 
        1.03692         26.7392         13.7591 
        1.05264           26.25         13.3133 
        1.06832          25.786         12.8883 
        1.08405         25.0642         12.4811 
        1.09979         24.6831         12.0915 
        1.11537         24.0282         11.7227 
        1.13105          23.693         11.3674 
        1.14679         23.1154         11.0256 
        1.16256         22.7552         10.6975 
        1.17828         22.4036         10.3841 
        1.19395         22.0938         10.0845 
         1.2097          21.487         9.79543 
        1.22537         21.2022         9.51926 
          1.241         20.8002         9.25477 
        1.25666         20.5801         8.99984 
        1.27241         20.1975         8.75349 
        1.28819         19.4756          8.5161 
        1.30392         19.6786         8.28836 
        1.31957         19.1659         8.07011 
        1.33529         18.8605         7.85906 
        1.35108         18.6584         7.65485 
        1.36674         18.2637         7.45948 
         1.3824         18.0061         7.27123 
        1.39811         17.6917         7.08896 
        1.41389         17.4527         6.91234 
        1.42964         17.2341         6.74215 
        1.44531         16.9868         6.57861 
        1.46101          16.739         6.42024 
        1.47667         16.5147         6.26765 
        1.49229         16.1934          6.1205 
        1.50793         16.0339         5.97799 
        1.52367         15.8545         5.83918 
        1.53953         15.5561         5.70391 
        1.55526         15.3567         5.57408 
        1.57092         15.2941         5.44889 
        1.58662         15.0478         5.32732 
        1.60235         14.8301         5.20927 
        1.61809         14.6804          5.0948 
        1.63369          14.418         4.98485 
        1.64941         14.2872          4.8774 
        1.66519         14.0594         4.77279 
        1.68085         13.8542         4.67203 
        1.69652         13.8385          4.5742 
        1.71228         13.6009         4.47866 
        1.72806         13.3806         4.38582 
        1.74368         13.2734         4.29658 
        1.75933           13.18         4.20969 
        1.77505         12.9457         4.12483 
        1.79081         12.8419         4.04219 
         1.8065         12.7822         3.96221 
        1.82218         12.5919          3.8845 
        1.83797         12.4426         3.80837 
        1.85367          12.326         3.73473 
        1.86928          12.188         3.66352 
        1.88497         12.0606          3.5938 
        1.90073         11.8967         3.52566 
        1.91647         11.6459         3.45938 
        1.93218         11.6357         3.39497 
        1.94787         11.4394         3.33232 
        1.96363         11.3859         3.27103 
        1.97935           11.34         3.21142 
        1.99499         11.1755         3.15367 
        2.01064         11.0539         3.09727 
         2.0264         10.9076         3.04191 
        2.04216         10.9327         2.98796 
        2.05781         10.7846         2.93568 
        2.07353         10.6459         2.88447 
        2.08928         10.4542          2.8344 
        2.10499         10.3943         2.78567 
        2.12065         10.3881         2.73825 
        2.13633         10.2358          2.6919 
        2.15211         10.1344         2.64635 
        2.16785         9.98315         2.60199 
        2.18349         9.97682         2.55894 
        2.19916         9.83458         2.51679 
        2.21489         9.76265         2.47547 
        2.23063         9.71199         2.43505 
         2.2463         9.56083         2.39574 
        2.26194         9.48248          2.3574 
        2.27765          9.3898         2.31972 
        2.29341         9.25179         2.28277 
        2.30914         9.27509         2.24672 
        2.32486         9.14239         2.21148 
        2.34061         9.08104         2.17695 
        2.35635         8.98157         2.14319 
        2.37203         8.91619         2.11028 
        2.38768         8.84007         2.07814 
        2.40339         8.78016         2.04656 
        2.41914         8.70484         2.01557 
        2.43483         8.64446         1.98534 
         2.4505         8.55568         1.95579 
        2.46622         8.44781         1.92675 
        2.48195         8.45223         1.89831 
        2.49759         8.29161          1.8706 
        2.51328         8.27592         1.84338 
        2.52906         8.18182         1.81653 
        2.54479         8.11137         1.79033 
        2.56049         8.07805         1.76471 
        2.57618         8.00785         1.73961 
        2.59189         8.00041         1.71497 
        2.60758         7.88811         1.69086 
        2.62325         7.80647         1.66724 
        2.63898         7.79086           1.644 
        2.65468           7.693         1.62126 
        2.67044         7.62574         1.59885 
        2.68618         7.57068         1.57693 
        2.70184         7.55533         1.55551 
        2.71755         7.44774         1.53444 
        2.73329         7.39794         1.51373 
        2.74897         7.36262         1.49348 
        2.76462         7.29842         1.47365 
        2.78034         7.24803          1.4541 
        2.79607          7.1794          1.4349 
        2.81179         7.12894         1.41606 
        2.82749          7.0585         1.39759 
        2.84321         7.03397         1.37943 
        2.85893         6.98438         1.36161 
        2.87462         6.91838         1.34413 
        2.89033         6.87253         1.32695 
        2.90605         6.82798         1.31006 
        2.92176         6.75382         1.29348 
        2.93747         6.71336         1.27719 
        2.95318         6.65211         1.26119 
        2.96891         6.61872         1.24546 
        2.98456         6.56312         1.23006 
        3.00023         6.54462         1.21491 
        3.01596         6.45593         1.19998 
        3.03164         6.41787         1.18533 
        3.04738         6.39816          1.1709 
         3.0631         6.35327         1.15671 
        3.07883         6.29582         1.14276 
        3.09456         6.22342         1.12904 
        3.11026         6.21213         1.11558 
        3.12596         6.16055         1.10234 
        3.14163         6.12553         1.08934 
        3.15734         6.08194         1.07653 
        3.17308         6.03908          1.0639 
        3.18879         6.00713          1.0515 
        3.20447         5.95831         1.03933 
         3.2202         5.90142         1.02731 
         3.2359         5.86931         1.01551 
        3.25157         5.84259         1.00392 
        3.26729         5.80597        0.992479 
        3.28304         5.75444        0.981197 
        3.29877         5.72742        0.970108 
        3.31446         5.69529        0.959217 
        3.33014         5.63212        0.948505 
        3.34585         5.62008        0.937942 
        3.36158         5.56986        0.927526 
        3.37727         5.53577        0.917304 
        3.39294         5.50237        0.907247 
        3.40867         5.46392        0.897306 
        3.42439         5.39659        0.887522 
        3.44008         5.38045        0.877904 
        3.45578         5.34873        0.868424 
        3.47153         5.31031        0.859065 
        3.48724         5.28551        0.849862 
        3.50292         5.24863        0.840817 
        3.51859         5.21017        0.831909 
        3.53431         5.17941        0.823105 
        3.55007         5.16424        0.814409 
        3.56577         5.09562        0.805873 
        3.58146         5.07802        0.797466 
        3.59719         5.04683        0.789161 
        3.61292         5.02408        0.780978 
        3.62859         4.99245        0.772943 
        3.64429         4.94821        0.765008 
        3.66003         4.92989        0.757162 
        3.67578         4.90131        0.749429 
        3.69146         4.85713        0.741836 
        3.70712         4.83527        0.734362 
        3.72284          4.8037        0.726965 
        3.73853         4.77233        0.719685 
        3.75422         4.73767        0.712502 
        3.76993         4.71548        0.705413 
        3.78564         4.68302        0.698424 
        3.80137         4.64578         0.69152 
        3.81707         4.62599        0.684725 
        3.83279         4.58815        0.678017 
        3.84853         4.56303        0.671389 
        3.86424          4.5375        0.664864 
        3.87992          4.5063        0.658436 
        3.89561         4.47395        0.652094 
        3.91134          4.4434        0.645824 
        3.92704         4.41679        0.639644 
        3.94273         4.39171        0.633552 
        3.95845         4.35896         0.62753 
        3.97418         4.34579        0.621586 
        3.98988         4.32068        0.615727 
        4.00554         4.28461        0.609962 
        4.02125         4.24978        0.604254 
        4.03698         4.23099        0.598612 
        4.05268         4.19995        0.593055 
        4.06839          4.1735        0.587566 
         4.0841         4.15284        0.582148 
        4.09983         4.11969        0.576793 
        4.11555         4.09496        0.571507 
        4.13124         4.07483        0.566304 
        4.14693         4.04705        0.561161 
        4.16266         4.01729        0.556071 
        4.17839          3.9959        0.551049 
        4.19408         3.97141          0.5461 
        4.20977         3.94976        0.541211 
        4.22551         3.92103        0.536371 
        4.24123         3.88689        0.531596 
        4.25691         3.87587        0.526892 
        4.27259          3.8514        0.522245 
        4.28831         3.81261        0.517645 
        4.30404         3.80264        0.513097 
        4.31974         3.77946        0.508615 
        4.33543         3.74438        0.504188 
        4.35116         3.73237        0.499805 
        4.36688         3.70948        0.495476 
        4.38255         3.68663        0.491215 
        4.39825          3.6585        0.486996 
        4.41398         3.64874        0.482819 
         4.4297         3.61868        0.478695 
        4.44541         3.59725        0.474621 
        4.46111         3.56291        0.470598 
        4.47683         3.54822         0.46662 
        4.49251         3.53668        0.462696 
        4.50819          3.5046        0.458819 
         4.5239         3.48431        0.454981 
        4.53962          3.4684        0.451183 
        4.55535         3.44463        0.447427 
        4.57106         3.42115         0.44372 
        4.58678         3.40159        0.440055 
         4.6025         3.38627         0.43643 
        4.61821         3.37189        0.432848 
        4.63391         3.34246        0.429311 
         4.6496         3.32861        0.425815 
        4.66532         3.30914        0.422353 
        4.68103         3.27974        0.418932 
        4.69673         3.26901        0.415553 
        4.71241         3.24424        0.412214 
        4.72811         3.22823        0.408907 
        4.74384         3.22055        0.405633 
        4.75955         3.19597          0.4024 
        4.77525         3.16855        0.399205 
        4.79096         3.15783         0.39604 
        4.80669         3.14476        0.392909 
         4.8224         3.11978        0.389816 
        4.83809         3.10109         0.38676 
        4.85379         3.08262        0.383735 
         4.8695         3.06558        0.380741 
        4.88521         3.05337         0.37778 
        4.90093         3.04041         0.37485 
        4.91663         3.01647        0.371955 
        4.93234         3.00624        0.369087 
        4.94807         2.99169        0.366248 
        4.96377         2.96519        0.363445 
        4.97943          2.9576        0.360677 
        4.99514         2.92682        0.357932 
        5.01086         2.91451        0.355213 
        5.02654          2.9022         0.35253 
        5.04227         2.88891        0.349867 
          5.058         2.87621         0.34723 
        5.07371         2.86241        0.344626 
        5.08942         2.84202        0.342049 
        5.10513         2.82776        0.339498 
        5.12084         2.80795        0.336973 
        5.13656         2.79277        0.334474 
        5.15225         2.77171        0.332004 
        5.16796         2.76394        0.329557 
        5.18369         2.75025        0.327131 
         5.1994          2.7322        0.324735 
        5.21509         2.71781        0.322366 
        5.23079         2.70615        0.320017 
        5.24649         2.68966        0.317694 
        5.26217          2.6792        0.315396 
        5.27788         2.66354        0.313118 
        5.29359         2.65078        0.310862 
        5.30933         2.63557        0.308626 
        5.32504         2.62143        0.306415 
        5.34073         2.60265        0.304229 
        5.35646         2.59484         0.30206 
        5.37218          2.5807        0.299912 
        5.38789         2.56058        0.297788 
        5.40357         2.55265        0.295688 
        5.41929         2.54565        0.293604 
        5.43502         2.52772         0.29154 
         5.4507         2.50871        0.289501 
        5.46639         2.50143        0.287481 
        5.48212         2.48808        0.285476 
        5.49786         2.47068        0.283488 
        5.51353         2.46071        0.281529 
        5.52921         2.44428        0.279587 
        5.54495         2.43809        0.277658 
        5.56066         2.42275        0.275749 
        5.57637         2.40954        0.273859 
        5.59207         2.40039        0.271988 
        5.60778         2.38739        0.270134 
        5.62346         2.36981          0.2683 
        5.63916         2.36312        0.266482 
        5.65487         2.34774         0.26468 
         5.6706         2.34128        0.262893 
        5.68633          2.3296        0.261122 
        5.70203          2.3128        0.259371 
        5.71773         2.30334        0.257636 
        5.73344         2.29115        0.255917 
        5.74916         2.28477        0.254212 
        5.76486         2.26667        0.252524 
        5.78054         2.25485        0.250856 
        5.79626         2.24873        0.249197 
          5.812         2.23674        0.247552 
         5.8277         2.22594        0.245927 
        5.84339         2.21069        0.244317 
        5.85911         2.20422        0.242718 
        5.87484         2.18844        0.241135 
        5.89053         2.18556        0.239568 
        5.90623         2.17335        0.238015 
        5.92195          2.1577        0.236473 
        5.93767         2.14901        0.234946 
        5.95336         2.14593        0.233435 
        5.96905         2.13006        0.231938 
        5.98476         2.12158        0.230452 
        6.00048         2.10834        0.228979 
        6.01617         2.09761        0.227521 
        6.03185         2.08609        0.226077 
        6.04756         2.08084        0.224643 
        6.06331         2.07111        0.223218 
        6.07903         2.06317        0.221809 
        6.09473         2.04747        0.220413 
        6.11044         2.04174        0.219029 
        6.12616         2.02844        0.217656 
        6.14186         2.01892        0.216297 
        6.15755         2.01104         0.21495 
        6.17326          2.0039        0.213613 
        6.18898         1.99362        0.212287 
        6.20467         1.98628        0.210975 
        6.22036         1.97597        0.209674 
         6.2361         1.96837        0.208381 
         6.2518         1.95944        0.207101 
        6.26748         1.95028        0.205834 
        6.28319         1.94006        0.204575 
        6.29893         1.92999        0.203326 
        6.31463         1.92267        0.202089 
        6.33033         1.90958        0.200863 
        6.34604         1.90419        0.199646 
        6.36177         1.89802        0.198439 
        6.37747         1.88876        0.197243 
