# k  (h/Mpc)    Pcb(k)  (Mpc/h)^3    Pcb_linear(k) (Mpc/h)^3   ShotnoiseSubtracted = true
      0.0200456         9741.65         9882.68 
      0.0350414         7364.15         7184.37 
      0.0492313         5182.82         5220.03 
      0.0637834         4199.21         4339.36 
      0.0800726         3310.66         3444.05 
       0.096163         2580.84         2498.95 
       0.111083         2094.66         1993.23 
       0.126058          1751.8         1766.41 
       0.142273         1505.29         1496.54 
       0.158546         1234.33         1181.95 
        0.17375         1075.43         995.792 
       0.188953         990.909         901.667 
       0.204907         844.882         797.791 
       0.220756         755.818          674.98 
        0.23588         670.054         587.174 
         0.2514         600.006         533.441 
       0.267535         579.491         482.673 
       0.283568         505.341         425.653 
       0.299022         479.793         379.235 
       0.314451         478.784         346.595 
       0.330372         411.955         317.962 
       0.346141         381.731         288.599 
       0.361624         363.168         262.297 
       0.377134         336.765         241.354 
       0.392932         327.541          223.32 
       0.408854         310.633         205.858 
       0.424564         298.803         189.743 
       0.440253         269.629         175.913 
       0.455999         256.727         163.888 
       0.471626         254.687         152.837 
        0.48727         242.869           142.5 
       0.502856         221.841         133.213 
       0.518488          221.96         124.927 
       0.534347         206.281         117.224 
       0.550082         201.372         110.121 
       0.565732         199.154         103.623 
       0.581496         185.751         97.6717 
       0.597222         181.501         92.2137 
       0.612804         175.922         87.1948 
       0.628434          170.31         82.5168 
       0.644267         162.152         78.1434 
       0.660051         158.212         74.1125 
       0.675724         156.499         70.3905 
       0.691403         152.407         66.9209 
       0.707174         147.134         63.6657 
       0.722871         144.755         60.6399 
        0.73838         142.633         57.8432 
       0.754018         133.991         55.2017 
       0.769845         133.736         52.6965 
        0.78569         130.151         50.3446 
       0.801365          126.16         48.1597 
       0.817031          122.57         46.1065 
       0.832809         120.483         44.1605 
       0.848511          117.63         42.3361 
       0.864097         115.583         40.6278 
       0.879701         113.866         39.0125 
       0.895507         110.166         37.4665 
       0.911279         107.867         36.0078 
        0.92691         105.378         34.6393 
       0.942635         103.197         33.3346 
       0.958396         102.304         32.0946 
       0.974128         100.019         30.9203 
       0.989692          97.777         29.8166 
        1.00528         96.2942         28.7653 
        1.02113         93.7791         27.7485 
        1.03692         93.5721         26.7848 
        1.05264           92.24         25.8714 
        1.06832          89.168         25.0023 
        1.08405         88.4692         24.1709 
        1.09979         87.6965          23.377 
        1.11537         85.2908         22.6268 
        1.13105         84.1358         21.9051 
        1.14679            82.8         21.2122 
        1.16256         81.1257         20.5481 
        1.17828         80.4409         19.9147 
        1.19395         78.2361         19.3103 
         1.2097         78.2676         18.7279 
        1.22537         76.3573         18.1725 
          1.241         76.1411         17.6413 
        1.25666         73.4425         17.1301 
        1.27241          73.162         16.6369 
        1.28819         72.5554         16.1623 
        1.30392         71.0559         15.7076 
        1.31957         70.5375         15.2725 
        1.33529         69.4899         14.8524 
        1.35108         68.8707         14.4465 
        1.36674         67.7372         14.0586 
         1.3824          66.985         13.6854 
        1.39811         65.5023         13.3246 
        1.41389           64.55         12.9754 
        1.42964         63.9351         12.6394 
        1.44531         63.2526         12.3169 
        1.46101         62.6351         12.0051 
        1.47667         61.6264         11.7049 
        1.49229         60.8594         11.4159 
        1.50793         60.1726         11.1364 
        1.52367         59.6736         10.8644 
        1.53953         58.6944         10.5997 
        1.55526         57.7495          10.346 
        1.57092         57.5683         10.1016 
        1.58662         56.7159         9.86455 
        1.60235         55.9475         9.63468 
        1.61809         54.9892         9.41204 
        1.63369         54.3636         9.19842 
        1.64941         54.0497         8.98992 
        1.66519          52.818         8.78715 
        1.68085         52.5898         8.59209 
        1.69652         51.4761          8.4029 
        1.71228         51.2804         8.21834 
        1.72806         50.6366          8.0392 
        1.74368         49.9438          7.8672 
        1.75933         49.6079         7.69991 
        1.77505         49.0927          7.5367 
        1.79081         48.4099         7.37794 
         1.8065          47.918         7.22445 
        1.82218         46.6899         7.07546 
        1.83797         46.4204         6.92967 
        1.85367         46.0855         6.78879 
        1.86928         45.7634         6.65268 
        1.88497         44.8814         6.51957 
        1.90073         44.3478         6.38962 
        1.91647         44.2066         6.26333 
        1.93218         43.9512         6.14073 
        1.94787         43.1662         6.02159 
        1.96363         42.4776         5.90515 
        1.97935         42.1921         5.79203 
        1.99499         41.6784         5.68251 
        2.01064         41.1209         5.57568 
         2.0264         40.9847         5.47092 
        2.04216         40.3856         5.36891 
        2.05781            39.9         5.27015 
        2.07353          39.283         5.17352 
        2.08928         39.2607         5.07911 
        2.10499           38.84         4.98731 
        2.12065          38.291         4.89806 
        2.13633         38.1023         4.81092 
        2.15211         37.4458         4.72534 
        2.16785         36.9128         4.64208 
        2.18349         36.6119         4.56135 
        2.19916         36.2475         4.48237 
        2.21489         36.0156         4.40501 
        2.23063         35.5662         4.32942 
         2.2463         35.3314         4.25594 
        2.26194         34.7895         4.18436 
        2.27765         34.4197         4.11405 
        2.29341         34.0555         4.04518 
        2.30914         33.7267         3.97803 
        2.32486         33.2344         3.91245 
        2.34061         33.0528         3.84823 
        2.35635         32.7438         3.78552 
        2.37203         32.4456         3.72442 
        2.38768         32.1549         3.66479 
        2.40339         31.9078         3.60626 
        2.41914         31.5413         3.54887 
        2.43483         31.2801         3.49293 
         2.4505         30.9046         3.43829 
        2.46622         30.5287         3.38464 
        2.48195         30.3726         3.33212 
        2.49759         29.8735           3.281 
        2.51328         29.6138         3.23083 
        2.52906          29.458         3.18138 
        2.54479         29.1078         3.13315 
        2.56049         28.9814         3.08602 
        2.57618         28.5705          3.0399 
        2.59189         28.2644         2.99465 
        2.60758         28.0127          2.9504 
        2.62325         27.7358         2.90709 
        2.63898         27.5998          2.8645 
        2.65468         27.1774         2.82286 
        2.67044         26.9794         2.78186 
        2.68618          26.725         2.74178 
        2.70184         26.3974         2.70264 
        2.71755         26.1864         2.66417 
        2.73329         25.9086         2.62639 
        2.74897         25.6762         2.58947 
        2.76462         25.4929         2.55334 
        2.78034          25.143         2.51775 
        2.79607         24.9386          2.4828 
        2.81179         24.7185         2.44856 
        2.82749         24.4798         2.41499 
        2.84321          24.241         2.38202 
        2.85893         24.0627         2.34968 
        2.87462         23.8406         2.31799 
        2.89033         23.6097         2.28686 
        2.90605          23.334         2.25627 
        2.92176         23.0921         2.22626 
        2.93747         22.9307         2.19681 
        2.95318         22.8194         2.16789 
        2.96891         22.5041         2.13947 
        2.98456         22.3265         2.11169 
        3.00023         22.0174         2.08436 
        3.01596         21.7312         2.05743 
        3.03164         21.6356         2.03105 
        3.04738         21.4864         2.00506 
         3.0631         21.2687         1.97953 
        3.07883         21.0272         1.95445 
        3.09456         20.8346          1.9298 
        3.11026          20.603         1.90562 
        3.12596         20.3873         1.88185 
        3.14163         20.2511         1.85855 
        3.15734         20.1007         1.83558 
        3.17308         19.8763         1.81295 
        3.18879         19.6988         1.79076 
        3.20447         19.5956         1.76897 
         3.2202         19.3171         1.74748 
         3.2359          19.132         1.72639 
        3.25157         18.9644         1.70569 
        3.26729         18.8379         1.68527 
        3.28304         18.6871         1.66514 
        3.29877         18.5357         1.64537 
        3.31446           18.34         1.62596 
        3.33014         18.1141         1.60689 
        3.34585         18.0692         1.58809 
        3.36158         17.8028         1.56956 
        3.37727         17.6961         1.55139 
        3.39294         17.5354         1.53352 
        3.40867         17.3826         1.51586 
        3.42439         17.1783          1.4985 
        3.44008         17.0257         1.48144 
        3.45578         16.8836         1.46463 
        3.47153         16.7676         1.44805 
        3.48724         16.6197         1.43175 
        3.50292         16.4779         1.41575 
        3.51859         16.3331         1.39999 
        3.53431         16.1713         1.38443 
        3.55007         16.0209         1.36906 
        3.56577         15.9316         1.35399 
        3.58146         15.7474         1.33915 
        3.59719         15.6226          1.3245 
        3.61292         15.4927         1.31007 
        3.62859         15.2992         1.29591 
        3.64429         15.2036         1.28193 
        3.66003         15.1089         1.26812 
        3.67578         15.0201         1.25452 
        3.69146         14.8369         1.24116 
        3.70712         14.7084         1.22803 
        3.72284         14.5565         1.21504 
        3.73853         14.4905         1.20225 
        3.75422         14.2705         1.18965 
        3.76993         14.1918         1.17722 
        3.78564         14.0834         1.16497 
        3.80137         13.9481         1.15287 
        3.81707         13.7896         1.14097 
        3.83279         13.7528         1.12923 
        3.84853         13.6011         1.11763 
        3.86424         13.4565         1.10622 
        3.87992         13.3911         1.09499 
        3.89561         13.2458         1.08391 
        3.91134         13.1654         1.07296 
        3.92704         13.0374         1.06218 
        3.94273         12.9406         1.05155 
        3.95845         12.8313         1.04105 
        3.97418         12.6939         1.03069 
        3.98988         12.6173         1.02049 
        4.00554         12.4929         1.01045 
        4.02125         12.3993         1.00052 
        4.03698         12.3292        0.990709 
        4.05268         12.1878         0.98105 
        4.06839         12.0702        0.971512 
         4.0841         11.9946        0.962104 
        4.09983         11.8697        0.952807 
        4.11555          11.789        0.943637 
        4.13124         11.6756        0.934612 
        4.14693         11.6012        0.925698 
        4.16266         11.4973         0.91688 
        4.17839         11.3974        0.908181 
        4.19408         11.3349        0.899615 
        4.20977          11.221        0.891156 
        4.22551         11.1415        0.882785 
        4.24123         11.0617        0.874531 
        4.25691         10.9419        0.866404 
        4.27259          10.851        0.858378 
        4.28831         10.7886        0.850437 
        4.30404          10.687         0.84259 
        4.31974          10.611        0.834858 
        4.33543         10.4873        0.827228 
        4.35116         10.4542        0.819674 
        4.36688         10.3412        0.812218 
        4.38255         10.2447        0.804883 
        4.39825         10.1848        0.797622 
        4.41398         10.1128        0.790436 
         4.4297         10.0082        0.783346 
        4.44541         9.95865        0.776344 
        4.46111         9.85429        0.769434 
        4.47683         9.76641        0.762602 
        4.49251         9.69679        0.755867 
        4.50819         9.62625        0.749215 
         4.5239         9.57267        0.742634 
        4.53962         9.47343        0.736123 
        4.55535         9.41207        0.729688 
        4.57106         9.34875        0.723338 
        4.58678         9.27295        0.717063 
         4.6025         9.20434         0.71086 
        4.61821         9.13356        0.704732 
        4.63391         9.03709        0.698684 
         4.6496         8.96819         0.69271 
        4.66532         8.92669        0.686796 
        4.68103         8.81944        0.680953 
        4.69673         8.77011        0.675184 
        4.71241         8.70072        0.669488 
        4.72811         8.62789        0.663848 
        4.74384         8.59094        0.658266 
        4.75955         8.50682        0.652756 
        4.77525         8.44481        0.647312 
        4.79096         8.38399        0.641924 
        4.80669         8.30604        0.636595 
         4.8224         8.25029        0.631332 
        4.83809         8.19338        0.626134 
        4.85379         8.14479        0.620991 
         4.8695         8.07229        0.615902 
        4.88521         7.99485        0.610872 
        4.90093          7.9691        0.605898 
        4.91663         7.88748        0.600983 
        4.93234         7.83646        0.596117 
        4.94807         7.78076        0.591302 
        4.96377         7.71682         0.58655 
        4.97943         7.65341        0.581859 
        4.99514         7.60932        0.577208 
        5.01086         7.54979        0.572604 
        5.02654         7.49182        0.568062 
        5.04227         7.42107        0.563555 
          5.058         7.38236        0.559096 
        5.07371          7.3487        0.554693 
        5.08942         7.25497        0.550337 
        5.10513         7.21241        0.546028 
        5.12084         7.15367        0.541762 
        5.13656          7.1121        0.537543 
        5.15225         7.06302        0.533376 
        5.16796         7.01153        0.529247 
        5.18369         6.96699        0.525157 
         5.1994         6.92475        0.521118 
        5.21509         6.86374        0.517125 
        5.23079         6.79674        0.513169 
        5.24649         6.77105        0.509257 
        5.26217         6.72563        0.505389 
        5.27788         6.67164        0.501556 
        5.29359         6.62818        0.497762 
        5.30933         6.56255        0.494001 
        5.32504         6.53639        0.490286 
        5.34073         6.48206        0.486613 
        5.35646         6.44783         0.48297 
        5.37218         6.40187        0.479364 
        5.38789         6.35066          0.4758 
        5.40357          6.3024        0.472276 
        5.41929         6.27482        0.468781 
        5.43502         6.22248         0.46532 
         5.4507         6.17427        0.461903 
        5.46639         6.12735        0.458519 
        5.48212          6.0858        0.455161 
        5.49786          6.0482        0.451833 
        5.51353         6.01332        0.448555 
        5.52921         5.96684        0.445306 
        5.54495         5.92439        0.442079 
        5.56066         5.89046        0.438888 
        5.57637         5.84569        0.435729 
        5.59207         5.79218        0.432604 
        5.60778         5.78026        0.429508 
        5.62346         5.73008        0.426447 
        5.63916         5.68855        0.423413 
        5.65487         5.64095        0.420406 
         5.6706         5.61453        0.417425 
        5.68633         5.57631        0.414473 
        5.70203         5.53944        0.411554 
        5.71773         5.50142        0.408664 
        5.73344         5.47173        0.405801 
        5.74916          5.4278        0.402962 
        5.76486         5.40018        0.400154 
        5.78054         5.35011        0.397378 
        5.79626         5.32506        0.394619 
          5.812          5.2834        0.391885 
         5.8277         5.25099        0.389184 
        5.84339         5.21717        0.386508 
        5.85911         5.18194        0.383853 
        5.87484         5.15193        0.381223 
        5.89053         5.10341        0.378623 
        5.90623         5.08517        0.376045 
        5.92195         5.05755        0.373488 
        5.93767         5.00487        0.370955 
        5.95336         4.97878         0.36845 
        5.96905         4.94599         0.36597 
        5.98476         4.92009        0.363508 
        6.00048          4.8893        0.361069 
        6.01617          4.8571        0.358655 
        6.03185         4.83299        0.356266 
        6.04756         4.80177        0.353892 
        6.06331         4.76066        0.351536 
        6.07903         4.73194        0.349206 
        6.09473         4.70524        0.346899 
        6.11044         4.66545        0.344611 
        6.12616         4.63997        0.342344 
        6.14186         4.60956          0.3401 
        6.15755         4.58014        0.337875 
        6.17326         4.55643        0.335669 
        6.18898         4.53506        0.333482 
        6.20467         4.49831        0.331318 
        6.22036          4.4743        0.329173 
         6.2361         4.43807        0.327042 
         6.2518         4.41693        0.324933 
        6.26748         4.38873        0.322847 
        6.28319         4.36419        0.320773 
        6.29893         4.32946        0.318716 
        6.31463         4.31369        0.316681 
        6.33033         4.28393        0.314664 
        6.34604         4.25488        0.312663 
        6.36177         4.23281        0.310677 
        6.37747         4.20715        0.308713 
