# k  (h/Mpc)    Pcb(k)  (Mpc/h)^3    Pcb_linear(k) (Mpc/h)^3   ShotnoiseSubtracted = true
      0.0200456         14387.7         14684.6 
      0.0350414         10298.4         10675.2 
      0.0492313         7657.34         7756.39 
      0.0637834         6575.56         6447.81 
      0.0800726         5198.19         5117.47 
       0.096163         3620.51         3713.17 
       0.111083         2888.09         2961.72 
       0.126058         2663.12         2624.69 
       0.142273         2302.86         2223.69 
       0.158546            1956         1756.25 
        0.17375         1565.03         1479.64 
       0.188953         1518.83         1339.78 
       0.204907         1427.38         1185.43 
       0.220756         1222.21         1002.95 
        0.23588         1080.88         872.475 
         0.2514         940.889         792.635 
       0.267535         926.883         717.199 
       0.283568         840.338         632.473 
       0.299022         787.856         563.501 
       0.314451           746.3         515.001 
       0.330372          687.35         472.456 
       0.346141         632.724         428.826 
       0.361624         608.378         389.744 
       0.377134         564.617         358.626 
       0.392932         541.193         331.829 
       0.408854         521.734         305.883 
       0.424564         491.064         281.936 
       0.440253         479.871         261.388 
       0.455999         452.662          243.52 
       0.471626         427.366         227.099 
        0.48727         413.046         211.739 
       0.502856         400.686          197.94 
       0.518488         396.709         185.628 
       0.534347          370.96         174.182 
       0.550082         353.205         163.628 
       0.565732         351.248         153.972 
       0.581496         330.962         145.129 
       0.597222         325.362         137.019 
       0.612804         315.372         129.562 
       0.628434         303.255         122.611 
       0.644267         294.491         116.112 
       0.660051         288.528         110.123 
       0.675724         283.898         104.592 
       0.691403         275.377         99.4371 
       0.707174          265.24         94.6001 
       0.722871         262.009         90.1042 
        0.73838         257.616         85.9485 
       0.754018         250.712         82.0236 
       0.769845         242.132         78.3011 
        0.78569         241.815         74.8065 
       0.801365         233.292           71.56 
       0.817031         226.227         68.5091 
       0.832809         224.078         65.6176 
       0.848511         218.004         62.9067 
       0.864097         215.135         60.3683 
       0.879701         211.191         57.9683 
       0.895507         205.896         55.6711 
       0.911279         199.584         53.5036 
        0.92691         199.614         51.4701 
       0.942635          194.47         49.5315 
       0.958396         192.993         47.6891 
       0.974128          188.59         45.9442 
       0.989692         184.158         44.3041 
        1.00528         181.829         42.7421 
        1.02113         180.379         41.2312 
        1.03692         175.217         39.7992 
        1.05264         171.753         38.4421 
        1.06832         168.791         37.1506 
        1.08405         166.078         35.9153 
        1.09979         164.829         34.7356 
        1.11537         160.281         33.6209 
        1.13105         158.128         32.5486 
        1.14679         157.917         31.5191 
        1.16256         155.061         30.5322 
        1.17828         151.814         29.5911 
        1.19395         149.536         28.6929 
         1.2097           148.5         27.8276 
        1.22537         145.623         27.0023 
          1.241         143.635          26.213 
        1.25666         141.214         25.4535 
        1.27241         138.747         24.7205 
        1.28819         137.223         24.0153 
        1.30392         135.105         23.3398 
        1.31957         134.123         22.6933 
        1.33529         130.493          22.069 
        1.35108         129.701         21.4658 
        1.36674         128.385         20.8896 
         1.3824         125.854         20.3351 
        1.39811         125.304         19.7989 
        1.41389         122.948           19.28 
        1.42964         120.337         18.7807 
        1.44531         118.264         18.3016 
        1.46101         117.109         17.8382 
        1.47667         115.685         17.3923 
        1.49229         114.066         16.9628 
        1.50793         113.111         16.5474 
        1.52367         111.665         16.1433 
        1.53953         109.432           15.75 
        1.55526         108.432         15.3729 
        1.57092         107.137         15.0098 
        1.58662         105.217         14.6576 
        1.60235         104.679         14.3161 
        1.61809         102.584         13.9852 
        1.63369          101.77         13.6678 
        1.64941         100.862          13.358 
        1.66519         98.7079         13.0567 
        1.68085          98.166         12.7669 
        1.69652         95.6593         12.4858 
        1.71228         95.8335         12.2116 
        1.72806         94.4313         11.9454 
        1.74368         93.1822         11.6898 
        1.75933          91.819         11.4412 
        1.77505         90.8096         11.1987 
        1.79081         89.4466         10.9628 
         1.8065         88.4179         10.7347 
        1.82218          86.772         10.5134 
        1.83797         85.7662         10.2967 
        1.85367         84.9357         10.0874 
        1.86928         84.3809         9.88515 
        1.88497         82.6511         9.68737 
        1.90073         82.1607         9.49427 
        1.91647         81.0249         9.30661 
        1.93218         79.8856         9.12444 
        1.94787         79.2123         8.94742 
        1.96363         77.8223         8.77439 
        1.97935         77.0836         8.60631 
        1.99499         76.1759         8.44359 
        2.01064         75.3804         8.28484 
         2.0264           73.95         8.12919 
        2.04216         73.2013         7.97761 
        2.05781         72.3507         7.83086 
        2.07353         71.0556         7.68729 
        2.08928         70.1505           7.547 
        2.10499         69.5723          7.4106 
        2.12065         69.1425         7.27798 
        2.13633         68.2165         7.14849 
        2.15211         67.3786         7.02133 
        2.16785         66.5805         6.89762 
        2.18349         65.8176         6.77766 
        2.19916         64.9597         6.66031 
        2.21489         64.2548         6.54535 
        2.23063         63.7372         6.43304 
         2.2463         62.7756         6.32386 
        2.26194         62.2571         6.21749 
        2.27765         61.5702         6.11303 
        2.29341         60.7443          6.0107 
        2.30914         59.8236         5.91092 
        2.32486         59.0774         5.81346 
        2.34061         58.5021         5.71805 
        2.35635         57.9659         5.62486 
        2.37203         57.0207         5.53407 
        2.38768         56.4516         5.44547 
        2.40339         55.7555          5.3585 
        2.41914         55.3437         5.27322 
        2.43483         55.0163         5.19011 
         2.4505         54.2906         5.10892 
        2.46622         53.6437         5.02919 
        2.48195         52.9784         4.95117 
        2.49759         52.1325         4.87521 
        2.51328         51.6846         4.80065 
        2.52906         51.2847         4.72718 
        2.54479         50.6275         4.65552 
        2.56049         49.9645         4.58549 
        2.57618         49.5535         4.51696 
        2.59189         48.9689         4.44972 
        2.60758          48.636         4.38396 
        2.62325         47.9521         4.31962 
        2.63898         47.5215         4.25634 
        2.65468          46.989         4.19446 
        2.67044         46.2264         4.13354 
        2.68618         45.9632         4.07398 
        2.70184         45.2643         4.01583 
        2.71755         45.1384         3.95867 
        2.73329         44.3096         3.90253 
        2.74897         43.9292         3.84767 
        2.76462         43.4402         3.79398 
        2.78034         43.1482          3.7411 
        2.79607         42.5242         3.68917 
        2.81179         42.1265         3.63828 
        2.82749         41.4868         3.58841 
        2.84321         41.2076         3.53942 
        2.85893         40.7363         3.49137 
        2.87462         40.2263         3.44428 
        2.89033         39.8526         3.39802 
        2.90605         39.4685         3.35257 
        2.92176         39.0761         3.30798 
        2.93747         38.6708         3.26422 
        2.95318         38.2424         3.22124 
        2.96891         37.6717         3.17901 
        2.98456         37.5082         3.13773 
        3.00023         37.0602         3.09713 
        3.01596         36.7029         3.05711 
        3.03164         36.2276         3.01792 
        3.04738          36.038          2.9793 
         3.0631         35.5008         2.94137 
        3.07883         35.1962         2.90409 
        3.09456         34.8316         2.86747 
        3.11026         34.4201         2.83154 
        3.12596         34.1784         2.79622 
        3.14163         33.7693         2.76159 
        3.15734         33.2899         2.72747 
        3.17308         33.1607         2.69384 
        3.18879         32.8969         2.66087 
        3.20447         32.4048          2.6285 
         3.2202         32.0102         2.59657 
         3.2359         31.7921         2.56522 
        3.25157         31.4594         2.53447 
        3.26729          31.204         2.50412 
        3.28304         30.8295         2.47422 
        3.29877         30.5545         2.44484 
        3.31446         30.3065           2.416 
        3.33014         29.9532         2.38766 
        3.34585         29.7123         2.35972 
        3.36158          29.399         2.33219 
        3.37727          29.068         2.30519 
        3.39294         28.7853         2.27864 
        3.40867         28.5229         2.25241 
        3.42439         28.2654          2.2266 
        3.44008         28.0889         2.20126 
        3.45578         27.5916         2.17628 
        3.47153         27.3899         2.15164 
        3.48724         27.1507         2.12743 
        3.50292         26.8532         2.10364 
        3.51859         26.6401         2.08023 
        3.53431         26.4555          2.0571 
        3.55007         26.1528         2.03427 
        3.56577         25.8954         2.01187 
        3.58146         25.6908         1.98982 
        3.59719         25.3775         1.96805 
        3.61292         25.1673         1.94662 
        3.62859         24.9394         1.92558 
        3.64429          24.638         1.90481 
        3.66003         24.4206         1.88429 
        3.67578         24.2882         1.86408 
        3.69146         24.0263         1.84423 
        3.70712         23.7768         1.82472 
        3.72284         23.6421         1.80541 
        3.73853         23.4095         1.78642 
        3.75422         23.1353         1.76769 
        3.76993         22.9791         1.74921 
        3.78564         22.6716         1.73101 
        3.80137         22.5407         1.71303 
        3.81707         22.3441         1.69535 
        3.83279         22.0496         1.67791 
        3.84853         21.7917         1.66068 
        3.86424          21.643         1.64372 
        3.87992         21.4653         1.62703 
        3.89561         21.2922         1.61057 
        3.91134         21.1125          1.5943 
        3.92704         20.9099         1.57828 
        3.94273         20.6784         1.56249 
        3.95845         20.5123         1.54689 
        3.97418         20.3714          1.5315 
        3.98988         20.1628         1.51634 
        4.00554         20.0126         1.50142 
        4.02125         19.8468         1.48667 
        4.03698         19.5759         1.47208 
        4.05268         19.4371         1.45773 
        4.06839         19.2474         1.44356 
         4.0841         19.1585         1.42958 
        4.09983         18.9668         1.41577 
        4.11555          18.803         1.40214 
        4.13124         18.5511         1.38873 
        4.14693         18.3795         1.37548 
        4.16266         18.2564         1.36238 
        4.17839         18.0768         1.34946 
        4.19408         17.8898         1.33673 
        4.20977         17.8251         1.32416 
        4.22551         17.6492         1.31172 
        4.24123         17.4701         1.29946 
        4.25691         17.3573         1.28738 
        4.27259          17.177         1.27545 
        4.28831         17.0232         1.26366 
        4.30404         16.8727           1.252 
        4.31974         16.7046         1.24051 
        4.33543         16.6116         1.22917 
        4.35116         16.4718         1.21795 
        4.36688         16.2937         1.20687 
        4.38255         16.1772         1.19597 
        4.39825         16.0732         1.18518 
        4.41398         15.8939          1.1745 
         4.4297         15.7719         1.16397 
        4.44541         15.6704         1.15356 
        4.46111         15.5159         1.14329 
        4.47683         15.3731         1.13314 
        4.49251           15.29         1.12313 
        4.50819         15.1173         1.11325 
         4.5239          15.026         1.10347 
        4.53962         14.8704          1.0938 
        4.55535         14.7694         1.08424 
        4.57106          14.622          1.0748 
        4.58678         14.5619         1.06548 
         4.6025          14.396         1.05626 
        4.61821         14.2751         1.04715 
        4.63391         14.1789         1.03817 
         4.6496         14.0359         1.02929 
        4.66532          13.899          1.0205 
        4.68103          13.805         1.01182 
        4.69673         13.7469         1.00325 
        4.71241         13.6115        0.994785 
        4.72811         13.4827        0.986405 
        4.74384         13.3847         0.97811 
        4.75955         13.2748        0.969923 
        4.77525         13.1853        0.961834 
        4.79096         13.0759        0.953828 
        4.80669         12.9654        0.945909 
         4.8224         12.8479        0.938089 
        4.83809         12.7624        0.930365 
        4.85379         12.6389        0.922724 
         4.8695         12.5931        0.915162 
        4.88521           12.45        0.907688 
        4.90093         12.3559        0.900297 
        4.91663         12.2968        0.892994 
        4.93234          12.143        0.885764 
        4.94807         12.0842         0.87861 
        4.96377         11.9694        0.871548 
        4.97943         11.8996        0.864578 
        4.99514          11.777        0.857667 
        5.01086         11.7244        0.850826 
        5.02654         11.5993        0.844077 
        5.04227          11.535        0.837381 
          5.058         11.4523        0.830755 
        5.07371         11.3611        0.824213 
        5.08942         11.2618        0.817741 
        5.10513         11.1764        0.811337 
        5.12084         11.0906        0.804999 
        5.13656         11.0101         0.79873 
        5.15225         10.9146        0.792538 
        5.16796         10.8637        0.786402 
        5.18369         10.7512        0.780325 
         5.1994          10.692        0.774323 
        5.21509         10.5978         0.76839 
        5.23079         10.5431        0.762512 
        5.24649         10.4631          0.7567 
        5.26217         10.3566        0.750953 
        5.27788         10.2832        0.745257 
        5.29359         10.2372        0.739619 
        5.30933         10.1536        0.734031 
        5.32504         10.0854        0.728511 
        5.34073         9.99121        0.723053 
        5.35646         9.92485         0.71764 
        5.37218         9.85532        0.712281 
        5.38789         9.77863        0.706986 
        5.40357         9.71156        0.701751 
        5.41929         9.62039        0.696557 
        5.43502         9.59513        0.691414 
         5.4507         9.49555        0.686336 
        5.46639         9.43667        0.681309 
        5.48212         9.37649         0.67632 
        5.49786         9.29024        0.671374 
        5.51353         9.22605        0.666503 
        5.52921         9.15294        0.661675 
        5.54495         9.08302        0.656881 
        5.56066         9.02131         0.65214 
        5.57637         8.94915        0.647445 
        5.59207         8.90485        0.642802 
        5.60778         8.82552        0.638202 
        5.62346         8.77203        0.633653 
        5.63916         8.70448        0.629144 
        5.65487         8.64724        0.624677 
         5.6706         8.59241        0.620248 
        5.68633         8.51975         0.61586 
        5.70203         8.47988        0.611524 
        5.71773         8.41245         0.60723 
        5.73344         8.34939        0.602975 
        5.74916         8.27773        0.598757 
        5.76486         8.25269        0.594585 
        5.78054         8.17462        0.590459 
        5.79626         8.10428        0.586361 
          5.812         8.06813        0.582297 
         5.8277         8.00483        0.578284 
        5.84339         7.95493        0.574309 
        5.85911         7.89526        0.570363 
        5.87484         7.84108        0.566455 
        5.89053         7.78783        0.562591 
        5.90623          7.7267        0.558762 
        5.92195         7.69104        0.554962 
        5.93767         7.63876        0.551199 
        5.95336         7.58086        0.547477 
        5.96905         7.51175         0.54379 
        5.98476         7.48782        0.540133 
        6.00048         7.43308        0.536508 
        6.01617         7.38823        0.532921 
        6.03185          7.3306        0.529371 
        6.04756         7.26964        0.525845 
        6.06331         7.23775        0.522344 
        6.07903         7.19401        0.518881 
        6.09473         7.12331        0.515454 
        6.11044         7.09324        0.512054 
        6.12616         7.04066        0.508685 
        6.14186         6.98999         0.50535 
        6.15755         6.93668        0.502045 
        6.17326         6.90206        0.498767 
        6.18898         6.86045        0.495517 
        6.20467         6.81014        0.492302 
        6.22036         6.76461        0.489115 
         6.2361         6.72552        0.485948 
         6.2518         6.67736        0.482814 
        6.26748         6.62281        0.479714 
        6.28319         6.58534        0.476634 
        6.29893         6.55428        0.473577 
        6.31463         6.51257        0.470553 
        6.33033         6.47096        0.467556 
        6.34604         6.42339        0.464582 
        6.36177         6.37218        0.461632 
        6.37747         6.35041        0.458713 
