# k  (h/Mpc)    Pcb(k)  (Mpc/h)^3    Pcb_linear(k) (Mpc/h)^3   ShotnoiseSubtracted = true
      0.0200456         2600.85         2634.57 
      0.0350414         1946.27         1915.24 
      0.0492313         1393.74         1391.58 
      0.0637834         1138.77         1156.81 
      0.0800726         900.803         918.129 
       0.096163         680.352         666.183 
       0.111083           547.8         531.364 
       0.126058         468.158         470.897 
       0.142273         396.696         398.953 
       0.158546         320.661          315.09 
        0.17375         274.915         265.463 
       0.188953         247.899          240.37 
       0.204907         211.939         212.679 
       0.220756         186.425         179.939 
        0.23588           163.1         156.531 
         0.2514          147.47         142.207 
       0.267535         136.867         128.673 
       0.283568          120.05         113.472 
       0.299022         109.859         101.098 
       0.314451         103.777         92.3968 
       0.330372         92.4748         84.7637 
       0.346141         84.6328          76.936 
       0.361624         77.9033         69.9242 
       0.377134          71.202         64.3413 
       0.392932         68.9043         59.5338 
       0.408854         63.1095         54.8787 
       0.424564         60.1661         50.5824 
       0.440253         54.8475         46.8958 
       0.455999         50.1983         43.6901 
       0.471626          47.592         40.7441 
        0.48727         46.2043         37.9883 
       0.502856         43.0319         35.5126 
       0.518488         40.3736         33.3036 
       0.534347         38.0175         31.2501 
       0.550082         36.5463         29.3566 
       0.565732         35.1514         27.6243 
       0.581496         32.9604         26.0378 
       0.597222         31.2142         24.5827 
       0.612804          29.774         23.2448 
       0.628434         29.1862         21.9977 
       0.644267         27.5981         20.8318 
       0.660051         26.2278         19.7572 
       0.675724         25.0185          18.765 
       0.691403          24.511         17.8401 
       0.707174          23.505         16.9723 
       0.722871          22.719         16.1657 
        0.73838         21.5262         15.4201 
       0.754018         20.4362         14.7159 
       0.769845         19.9212         14.0481 
        0.78569         19.2846         13.4211 
       0.801365          18.563         12.8386 
       0.817031         17.8865         12.2913 
       0.832809         17.3474         11.7725 
       0.848511         16.7969         11.2861 
       0.864097          16.241         10.8307 
       0.879701         15.9676         10.4001 
       0.895507         15.3612         9.98799 
       0.911279           14.73         9.59913 
        0.92691          14.436         9.23429 
       0.942635         14.0731         8.88649 
       0.958396         13.5863         8.55594 
       0.974128         13.2535         8.24288 
       0.989692         12.6575         7.94864 
        1.00528         12.5712         7.66839 
        1.02113         12.1408         7.39732 
        1.03692         11.8638         7.14041 
        1.05264         11.5826         6.89692 
        1.06832         11.3275         6.66522 
        1.08405         11.0217         6.44359 
        1.09979         10.7448         6.23195 
        1.11537         10.4733         6.03195 
        1.13105         10.2775         5.83956 
        1.14679         10.0519         5.65486 
        1.16256         9.81662         5.47781 
        1.17828         9.61056         5.30896 
        1.19395         9.41785         5.14782 
         1.2097         9.11914         4.99257 
        1.22537         8.95711          4.8445 
          1.241         8.72651          4.7029 
        1.25666         8.68907         4.56662 
        1.27241          8.4958         4.43513 
        1.28819         8.15341         4.30861 
        1.30392         8.10653         4.18741 
        1.31957         7.91335         4.07142 
        1.33529         7.80243         3.95942 
        1.35108         7.63041          3.8512 
        1.36674         7.44736         3.74781 
         1.3824         7.36378         3.64833 
        1.39811         7.22601         3.55213 
        1.41389         7.05312         3.45905 
        1.42964          6.9622         3.36947 
        1.44531         6.82764          3.2835 
        1.46101         6.75087         3.20036 
        1.47667         6.60393         3.12036 
        1.49229         6.43526         3.04331 
        1.50793         6.36198         2.96878 
        1.52367         6.24114         2.89628 
        1.53953         6.13377         2.82571 
        1.55526         6.08131         2.75807 
        1.57092         5.95883         2.69293 
        1.58662         5.86396         2.62974 
        1.60235         5.78581         2.56846 
        1.61809         5.69679          2.5091 
        1.63369         5.58313         2.45216 
        1.64941         5.49635         2.39657 
        1.66519         5.43218         2.34252 
        1.68085         5.33571         2.29052 
        1.69652         5.27918         2.24008 
        1.71228         5.21967         2.19088 
        1.72806         5.11821         2.14313 
        1.74368         5.06452         2.09728 
        1.75933         4.98759         2.05268 
        1.77505         4.88842         2.00917 
        1.79081         4.85494         1.96685 
         1.8065         4.79958         1.92593 
        1.82218         4.72052         1.88621 
        1.83797         4.63371         1.84734 
        1.85367         4.57388         1.80979 
        1.86928         4.54465          1.7735 
        1.88497         4.45215         1.73802 
        1.90073         4.40865         1.70337 
        1.91647         4.33928         1.66971 
        1.93218         4.29377         1.63702 
        1.94787         4.24152         1.60526 
        1.96363          4.1947         1.57422 
        1.97935         4.14786         1.54407 
        1.99499         4.09699         1.51487 
        2.01064         4.05036         1.48639 
         2.0264         3.99558         1.45846 
        2.04216         3.94644         1.43127 
        2.05781          3.8998         1.40494 
        2.07353         3.86967         1.37918 
        2.08928         3.79685         1.35401 
        2.10499         3.75927         1.32954 
        2.12065         3.76287         1.30575 
        2.13633         3.70188         1.28252 
        2.15211         3.63664          1.2597 
        2.16785         3.59927         1.23751 
        2.18349         3.57539         1.21599 
        2.19916         3.53672         1.19493 
        2.21489          3.4975         1.17431 
        2.23063         3.45039         1.15416 
         2.2463         3.40955         1.13457 
        2.26194         3.37186         1.11549 
        2.27765         3.31572         1.09674 
        2.29341         3.29149         1.07838 
        2.30914         3.25833         1.06048 
        2.32486         3.24227           1.043 
        2.34061         3.20582         1.02588 
        2.35635         3.17306         1.00916 
        2.37203         3.15613        0.992872 
        2.38768         3.12795        0.976977 
        2.40339         3.07291        0.961373 
        2.41914         3.04499        0.946073 
        2.43483          3.0129        0.931161 
         2.4505         2.99175        0.916595 
        2.46622         2.96096        0.902292 
        2.48195         2.94279        0.888292 
        2.49759         2.90434        0.874665 
        2.51328         2.88188        0.861288 
        2.52906         2.85243        0.848107 
        2.54479         2.82632         0.83525 
        2.56049         2.79908        0.822686 
        2.57618         2.77493        0.810391 
        2.59189          2.7705        0.798328 
        2.60758         2.73889        0.786531 
        2.62325         2.69048        0.774986 
        2.63898         2.66987        0.763632 
        2.65468         2.64752         0.75253 
        2.67044          2.6441        0.741602 
        2.68618         2.61804        0.730916 
        2.70184         2.59181        0.720483 
        2.71755         2.56076        0.710228 
        2.73329         2.53856        0.700156 
        2.74897         2.51918        0.690313 
        2.76462         2.49508        0.680681 
        2.78034         2.48668        0.671193 
        2.79607         2.45809        0.661876 
        2.81179         2.43837        0.652747 
        2.82749         2.41354          0.6438 
        2.84321         2.39979        0.635011 
        2.85893         2.37287        0.626389 
        2.87462         2.36437        0.617941 
        2.89033         2.34682        0.609642 
        2.90605         2.32877        0.601487 
        2.92176         2.30454        0.593487 
        2.93747          2.2873        0.585636 
        2.95318         2.26927        0.577925 
        2.96891         2.25946        0.570349 
        2.98456         2.24118        0.562943 
        3.00023         2.22504        0.555658 
        3.01596          2.1986        0.548479 
        3.03164          2.1842        0.541447 
        3.04738         2.17459        0.534518 
         3.0631         2.15662        0.527713 
        3.07883         2.14145        0.521025 
        3.09456         2.11973        0.514455 
        3.11026         2.10828        0.508008 
        3.12596         2.09105        0.501673 
        3.14163         2.08413         0.49546 
        3.15734         2.06166        0.489338 
        3.17308         2.05341        0.483304 
        3.18879         2.03943        0.477389 
        3.20447         2.01488        0.471581 
         3.2202         2.01697        0.465852 
         3.2359         1.99614        0.460228 
        3.25157         1.97761        0.454711 
        3.26729         1.96396        0.449267 
        3.28304         1.95135        0.443901 
        3.29877         1.93402        0.438631 
        3.31446           1.927        0.433457 
        3.33014         1.91136        0.428372 
        3.34585         1.89865         0.42336 
        3.36158         1.88397        0.418421 
        3.37727         1.88026        0.413576 
        3.39294         1.86268        0.408812 
        3.40867         1.85624        0.404106 
        3.42439         1.84033        0.399477 
        3.44008         1.82589        0.394929 
        3.45578         1.81356        0.390449 
        3.47153         1.80596        0.386028 
        3.48724          1.7921        0.381684 
        3.50292         1.77471        0.377416 
        3.51859         1.77386        0.373216 
        3.53431         1.75427        0.369066 
        3.55007         1.75208         0.36497 
        3.56577         1.73692        0.360952 
        3.58146         1.72836        0.356996 
        3.59719         1.71649         0.35309 
        3.61292         1.70648        0.349244 
        3.62859         1.69475         0.34547 
        3.64429         1.68635        0.341744 
        3.66003         1.67433        0.338062 
        3.67578         1.66387        0.334435 
        3.69146         1.65203        0.330875 
        3.70712         1.64226        0.327374 
        3.72284         1.63222         0.32391 
        3.73853         1.62491        0.320502 
        3.75422         1.61435        0.317142 
        3.76993         1.60299        0.313828 
        3.78564         1.59139        0.310562 
        3.80137         1.58354        0.307337 
        3.81707         1.57245        0.304165 
        3.83279         1.57253        0.301034 
        3.84853         1.55879        0.297943 
        3.86424         1.54573        0.294902 
        3.87992          1.5397        0.291907 
        3.89561         1.52624        0.288953 
        3.91134         1.52285        0.286035 
        3.92704         1.51234         0.28316 
        3.94273         1.50629        0.280328 
        3.95845         1.49174        0.277529 
        3.97418         1.48724        0.274767 
        3.98988         1.48075        0.272047 
        4.00554         1.46886        0.269371 
        4.02125         1.46127        0.266724 
        4.03698         1.45102        0.264108 
        4.05268         1.44221        0.261533 
        4.06839         1.43076         0.25899 
         4.0841         1.42166        0.256482 
        4.09983         1.41101        0.254004 
        4.11555           1.404        0.251559 
        4.13124          1.3934        0.249153 
        4.14693         1.38501        0.246777 
        4.16266         1.37947        0.244426 
        4.17839         1.36983        0.242107 
        4.19408         1.36264        0.239824 
        4.20977         1.35359        0.237568 
        4.22551          1.3483        0.235337 
        4.24123          1.3359        0.233136 
        4.25691         1.32771         0.23097 
        4.27259          1.3189         0.22883 
        4.28831         1.31749        0.226713 
        4.30404           1.305        0.224621 
        4.31974         1.29714         0.22256 
        4.33543         1.29074        0.220526 
        4.35116         1.28353        0.218513 
        4.36688          1.2768        0.216525 
        4.38255         1.26975        0.214569 
        4.39825         1.26427        0.212634 
        4.41398         1.25616        0.210718 
         4.4297         1.24894        0.208828 
        4.44541         1.24157        0.206961 
        4.46111         1.23279        0.205119 
        4.47683         1.23031        0.203298 
        4.49251         1.22353        0.201502 
        4.50819         1.21716        0.199729 
         4.5239         1.21088        0.197975 
        4.53962          1.2035        0.196239 
        4.55535         1.19972        0.194523 
        4.57106         1.19115        0.192831 
        4.58678         1.19099        0.191158 
         4.6025         1.18153        0.189504 
        4.61821         1.17945        0.187871 
        4.63391         1.17304        0.186258 
         4.6496         1.16336        0.184666 
        4.66532         1.16281        0.183089 
        4.68103         1.15558        0.181532 
        4.69673         1.15293        0.179994 
        4.71241         1.14483        0.178475 
        4.72811         1.14293        0.176972 
        4.74384         1.13709        0.175483 
        4.75955         1.13462        0.174015 
        4.77525         1.12621        0.172563 
        4.79096         1.12084        0.171127 
        4.80669         1.11907        0.169706 
         4.8224         1.11381        0.168303 
        4.83809         1.11053        0.166918 
        4.85379         1.10563        0.165547 
         4.8695          1.0994         0.16419 
        4.88521         1.09758        0.162849 
        4.90093         1.09358        0.161523 
        4.91663         1.08851        0.160213 
        4.93234         1.08483        0.158916 
        4.94807         1.07894        0.157632 
        4.96377         1.07628        0.156365 
        4.97943         1.07444        0.155115 
        4.99514         1.07271        0.153875 
        5.01086         1.06426        0.152647 
        5.02654         1.06025        0.151436 
        5.04227         1.05755        0.150235 
          5.058         1.05529        0.149046 
        5.07371         1.05015        0.147873 
        5.08942         1.04807        0.146711 
        5.10513         1.04803        0.145563 
        5.12084         1.04143        0.144426 
        5.13656         1.03682        0.143301 
        5.15225         1.03142         0.14219 
        5.16796         1.02927        0.141089 
        5.18369         1.02798        0.139999 
         5.1994         1.02607        0.138922 
        5.21509         1.02056        0.137857 
        5.23079           1.019        0.136803 
        5.24649         1.01512         0.13576 
        5.26217         1.01275        0.134729 
        5.27788         1.00764        0.133707 
        5.29359         1.00616        0.132696 
        5.30933         1.00409        0.131693 
        5.32504        0.999948        0.130703 
        5.34073        0.998562        0.129723 
        5.35646         0.99415        0.128752 
        5.37218          0.9917        0.127791 
        5.38789         0.99196        0.126841 
        5.40357        0.987847        0.125902 
        5.41929         0.98725         0.12497 
        5.43502        0.981788        0.124047 
         5.4507        0.977566        0.123136 
        5.46639        0.976892        0.122234 
        5.48212        0.972695        0.121339 
        5.49786        0.972394        0.120452 
        5.51353        0.971233        0.119578 
        5.52921        0.966121        0.118712 
        5.54495        0.964229        0.117852 
        5.56066        0.963529        0.117001 
        5.57637        0.962985        0.116159 
        5.59207        0.958815        0.115326 
        5.60778        0.957554          0.1145 
        5.62346        0.955125        0.113684 
        5.63916        0.953689        0.112875 
        5.65487        0.949468        0.112074 
         5.6706        0.948535        0.111279 
        5.68633        0.944618        0.110492 
        5.70203        0.945223        0.109714 
        5.71773        0.941491        0.108944 
        5.73344        0.937924         0.10818 
        5.74916        0.938079        0.107423 
        5.76486        0.934348        0.106675 
        5.78054        0.933659        0.105935 
        5.79626        0.931656        0.105199 
          5.812        0.929722         0.10447 
         5.8277        0.927147         0.10375 
        5.84339        0.928603        0.103037 
        5.85911        0.924139        0.102329 
        5.87484         0.92375        0.101628 
        5.89053        0.918364        0.100935 
        5.90623        0.919134        0.100248 
        5.92195        0.916235       0.0995661 
        5.93767        0.915014        0.098891 
        5.95336        0.912316       0.0982232 
        5.96905        0.910871       0.0975619 
        5.98476          0.9083       0.0969057 
        6.00048        0.908588       0.0962553 
        6.01617        0.906268       0.0956118 
        6.03185        0.903498       0.0949749 
        6.04756        0.904145       0.0943423 
        6.06331        0.899869       0.0937141 
        6.07903        0.900578       0.0930929 
        6.09473         0.89904        0.092478 
        6.11044        0.896453        0.091868 
        6.12616         0.89457       0.0912636 
        6.14186        0.892072       0.0906653 
        6.15755         0.89042       0.0900724 
        6.17326        0.888902       0.0894843 
        6.18898        0.887416       0.0889011 
        6.20467        0.885868       0.0883242 
        6.22036        0.882708       0.0877525 
         6.2361         0.88189       0.0871843 
         6.2518        0.881404        0.086622 
        6.26748        0.879762       0.0860659 
        6.28319        0.877455       0.0855132 
        6.29893        0.874918       0.0849648 
        6.31463        0.874267       0.0844222 
        6.33033        0.873946       0.0838845 
        6.34604        0.872391       0.0833511 
        6.36177        0.870583       0.0828218 
        6.37747        0.867865       0.0822981 
