# k  (h/Mpc)    Pcb(k)  (Mpc/h)^3    Pcb_linear(k) (Mpc/h)^3   ShotnoiseSubtracted = true
      0.0200456         4589.47         4663.27 
      0.0350414         3334.67         3390.04 
      0.0492313         2461.45         2463.14 
      0.0637834         2079.43         2047.58 
      0.0800726         1648.12         1625.12 
       0.096163         1166.14         1179.16 
       0.111083         924.922         940.532 
       0.126058         843.345         833.502 
       0.142273         724.346          706.16 
       0.158546         585.601         557.718 
        0.17375         476.939         469.877 
       0.188953         448.763         425.463 
       0.204907         417.189         376.448 
       0.220756         348.763         318.498 
        0.23588         304.547         277.066 
         0.2514         269.936         251.711 
       0.267535         253.256         227.755 
       0.283568          228.23          200.85 
       0.299022         208.914         178.947 
       0.314451         189.284         163.545 
       0.330372         175.838         150.034 
       0.346141         158.628         136.179 
       0.361624         149.344         123.768 
       0.377134         140.533         113.886 
       0.392932         126.565         105.377 
       0.408854         121.669         97.1369 
       0.424564         116.162         89.5325 
       0.440253         107.984          83.007 
       0.455999         101.649         77.3328 
       0.471626          94.248         72.1183 
        0.48727         91.0577         67.2404 
       0.502856         86.3838         62.8584 
       0.518488         83.1411         58.9484 
       0.534347         79.8135         55.3136 
       0.550082         73.4225         51.9621 
       0.565732         69.7123         48.8959 
       0.581496         67.4875         46.0877 
       0.597222           65.28         43.5122 
       0.612804         61.5253          41.144 
       0.628434         59.8997         38.9366 
       0.644267         58.1373         36.8729 
       0.660051         55.9059         34.9709 
       0.675724         53.3455         33.2146 
       0.691403         51.7387         31.5775 
       0.707174         50.1742         30.0415 
       0.722871         48.4115         28.6137 
        0.73838         47.0693          27.294 
       0.754018         44.8639         26.0476 
       0.769845         43.8113         24.8655 
        0.78569         42.5595         23.7557 
       0.801365         41.0344         22.7248 
       0.817031         40.0898         21.7559 
       0.832809         39.3652         20.8377 
       0.848511         37.1804         19.9768 
       0.864097         36.4975         19.1707 
       0.879701         35.8114         18.4086 
       0.895507         35.2001          17.679 
       0.911279         34.0718         16.9908 
        0.92691         33.2597          16.345 
       0.942635         32.0456         15.7294 
       0.958396         31.7076         15.1443 
       0.974128         30.7485         14.5901 
       0.989692         30.3646         14.0693 
        1.00528         29.6713         13.5733 
        1.02113         28.6081         13.0935 
        1.03692         28.0581         12.6387 
        1.05264         27.6119         12.2078 
        1.06832         26.9268         11.7977 
        1.08405         26.3848         11.4054 
        1.09979         25.8532         11.0307 
        1.11537         25.2312         10.6767 
        1.13105         25.0111         10.3362 
        1.14679         24.6592         10.0093 
        1.16256         23.8122          9.6959 
        1.17828         23.6351         9.39702 
        1.19395         22.9995          9.1118 
         1.2097         22.8351           8.837 
        1.22537           22.33         8.57491 
          1.241         21.9217         8.32427 
        1.25666         21.3541         8.08307 
        1.27241         21.0595         7.85032 
        1.28819          20.583         7.62637 
        1.30392         20.4237         7.41184 
        1.31957         20.2173         7.20655 
        1.33529         19.9216          7.0083 
        1.35108         19.4521         6.81675 
        1.36674         19.1748         6.63375 
         1.3824         18.7867         6.45765 
        1.39811         18.5489         6.28738 
        1.41389         18.3748         6.12262 
        1.42964         18.0682         5.96406 
        1.44531         17.9442          5.8119 
        1.46101         17.4408         5.66474 
        1.47667         17.2441         5.52313 
        1.49229         17.0589         5.38675 
        1.50793         16.8273         5.25484 
        1.52367         16.6104          5.1265 
        1.53953         16.4072          5.0016 
        1.55526         16.1232         4.88187 
        1.57092         15.8786         4.76656 
        1.58662         15.7323         4.65472 
        1.60235         15.5044         4.54625 
        1.61809         15.3246         4.44119 
        1.63369         15.1249         4.34039 
        1.64941         14.8423         4.24201 
        1.66519         14.7755         4.14633 
        1.68085         14.5446         4.05429 
        1.69652         14.3566         3.96502 
        1.71228          14.191         3.87793 
        1.72806         14.0824          3.7934 
        1.74368         13.8589         3.71224 
        1.75933         13.7088          3.6333 
        1.77505         13.5423         3.55629 
        1.79081         13.3432         3.48138 
         1.8065         13.2734         3.40895 
        1.82218          13.023         3.33865 
        1.83797         12.8946         3.26985 
        1.85367         12.7447         3.20338 
        1.86928         12.7053         3.13916 
        1.88497         12.4537         3.07635 
        1.90073          12.434         3.01502 
        1.91647         12.2693         2.95543 
        1.93218         12.1611         2.89758 
        1.94787          12.008         2.84136 
        1.96363         11.9194         2.78642 
        1.97935         11.7436         2.73304 
        1.99499         11.5862         2.68137 
        2.01064         11.4847         2.63096 
         2.0264         11.3821         2.58153 
        2.04216         11.2511         2.53339 
        2.05781         11.0865         2.48679 
        2.07353         11.0304         2.44119 
        2.08928         10.9106         2.39665 
        2.10499         10.8404         2.35333 
        2.12065         10.6679         2.31121 
        2.13633         10.6553         2.27009 
        2.15211         10.4837         2.22971 
        2.16785         10.4481         2.19042 
        2.18349         10.3669         2.15233 
        2.19916         10.2229         2.11507 
        2.21489         10.1319         2.07856 
        2.23063         10.0241         2.04289 
         2.2463         9.90875         2.00822 
        2.26194         9.82374         1.97444 
        2.27765         9.78909         1.94127 
        2.29341         9.66953         1.90877 
        2.30914         9.52184         1.87709 
        2.32486         9.48019         1.84614 
        2.34061         9.39572         1.81584 
        2.35635         9.33036         1.78624 
        2.37203         9.25271         1.75741 
        2.38768         9.10269         1.72928 
        2.40339         9.05155         1.70166 
        2.41914         8.94334         1.67458 
        2.43483         8.92462         1.64818 
         2.4505          8.8462          1.6224 
        2.46622         8.74878         1.59708 
        2.48195         8.68442         1.57231 
        2.49759         8.60963         1.54818 
        2.51328         8.51679         1.52451 
        2.52906         8.46939         1.50118 
        2.54479         8.38241         1.47842 
        2.56049         8.34081         1.45618 
        2.57618         8.28057         1.43442 
        2.59189         8.16055         1.41307 
        2.60758         8.14626         1.39218 
        2.62325         8.07027         1.37175 
        2.63898         7.94807         1.35165 
        2.65468         7.87555           1.332 
        2.67044         7.84473         1.31266 
        2.68618         7.77286         1.29374 
        2.70184         7.72196         1.27528 
        2.71755         7.64116         1.25712 
        2.73329         7.57876          1.2393 
        2.74897         7.53328         1.22188 
        2.76462         7.50234         1.20483 
        2.78034         7.39845         1.18803 
        2.79607         7.35434         1.17154 
        2.81179         7.31075         1.15538 
        2.82749         7.25399         1.13955 
        2.84321         7.23028         1.12399 
        2.85893         7.15552         1.10873 
        2.87462          7.0737         1.09377 
        2.89033         7.01551         1.07908 
        2.90605         6.96825         1.06465 
        2.92176         6.91206         1.05049 
        2.93747         6.86251         1.03659 
        2.95318          6.8445         1.02294 
        2.96891         6.76096         1.00954 
        2.98456         6.70196        0.996427 
        3.00023         6.64529        0.983532 
        3.01596         6.61749        0.970824 
        3.03164         6.57515        0.958378 
        3.04738         6.54312        0.946114 
         3.0631          6.4628        0.934068 
        3.07883         6.41447        0.922231 
        3.09456         6.36789        0.910602 
        3.11026         6.33375        0.899191 
        3.12596          6.2908        0.887976 
        3.14163         6.22386        0.876979 
        3.15734         6.18654        0.866143 
        3.17308         6.14564        0.855463 
        3.18879         6.08571        0.844993 
        3.20447         6.06958        0.834713 
         3.2202         5.99168        0.824572 
         3.2359         5.97955        0.814618 
        3.25157         5.92197        0.804852 
        3.26729         5.90504        0.795216 
        3.28304         5.83929        0.785719 
        3.29877         5.79095         0.77639 
        3.31446         5.75713        0.767233 
        3.33014         5.72512        0.758231 
        3.34585         5.69004         0.74936 
        3.36158         5.64125        0.740617 
        3.37727         5.61124        0.732042 
        3.39294         5.58423         0.72361 
        3.40867         5.51822         0.71528 
        3.42439         5.50003        0.707086 
        3.44008         5.44957        0.699037 
        3.45578         5.40893        0.691106 
        3.47153         5.37849        0.683282 
        3.48724         5.34965        0.675592 
        3.50292         5.30989        0.668038 
        3.51859         5.27029        0.660603 
        3.53431         5.21856        0.653259 
        3.55007         5.20482        0.646008 
        3.56577         5.17345        0.638896 
        3.58146         5.14614        0.631894 
        3.59719         5.09748         0.62498 
        3.61292         5.07734        0.618173 
        3.62859         5.02542        0.611492 
        3.64429         4.99759        0.604897 
        3.66003         4.96365         0.59838 
        3.67578         4.93183        0.591961 
        3.69146         4.87442         0.58566 
        3.70712         4.86924        0.579462 
        3.72284         4.83426        0.573331 
        3.73853         4.80494        0.567299 
        3.75422         4.76846        0.561352 
        3.76993         4.74353        0.555485 
        3.78564         4.70113        0.549704 
        3.80137         4.68254        0.543996 
        3.81707         4.65051        0.538381 
        3.83279         4.61493         0.53284 
        3.84853         4.57216        0.527369 
        3.86424         4.54556        0.521985 
        3.87992         4.52442        0.516684 
        3.89561         4.50803        0.511457 
        3.91134         4.45769        0.506291 
        3.92704         4.42658        0.501202 
        3.94273         4.40962        0.496189 
        3.95845         4.38659        0.491234 
        3.97418         4.35279        0.486347 
        3.98988         4.33243        0.481532 
        4.00554         4.30073        0.476796 
        4.02125         4.27205        0.472109 
        4.03698         4.23392        0.467479 
        4.05268         4.20198        0.462921 
        4.06839         4.19012         0.45842 
         4.0841         4.14794        0.453981 
        4.09983         4.12209        0.449594 
        4.11555         4.08627        0.445267 
        4.13124           4.065        0.441009 
        4.14693         4.03591        0.436803 
        4.16266          4.0179        0.432641 
        4.17839         3.98987        0.428537 
        4.19408          3.9502        0.424495 
        4.20977         3.93539        0.420503 
        4.22551         3.90215        0.416554 
        4.24123          3.8873        0.412659 
        4.25691         3.86303        0.408824 
        4.27259         3.84917        0.405037 
        4.28831         3.81218         0.40129 
        4.30404         3.78889        0.397587 
        4.31974         3.76356        0.393939 
        4.33543         3.72529        0.390338 
        4.35116         3.70663        0.386774 
        4.36688         3.68678        0.383256 
        4.38255         3.65793        0.379794 
        4.39825         3.65005        0.376368 
        4.41398         3.63152        0.372977 
         4.4297         3.60252        0.369632 
        4.44541         3.57749        0.366328 
        4.46111         3.56302        0.363067 
        4.47683         3.52373        0.359844 
        4.49251          3.5093        0.356666 
        4.50819         3.49098        0.353527 
         4.5239         3.47274        0.350421 
        4.53962         3.45396        0.347349 
        4.55535         3.43231        0.344313 
        4.57106         3.40541        0.341316 
        4.58678         3.38423        0.338355 
         4.6025         3.36804        0.335429 
        4.61821         3.35047        0.332537 
        4.63391         3.33177        0.329683 
         4.6496         3.31509        0.326864 
        4.66532         3.27833        0.324073 
        4.68103         3.25835        0.321317 
        4.69673         3.24447        0.318594 
        4.71241         3.21662        0.315907 
        4.72811          3.2052        0.313245 
        4.74384         3.19163        0.310611 
        4.75955         3.17212        0.308011 
        4.77525         3.15232        0.305443 
        4.79096          3.1261          0.3029 
        4.80669         3.11367        0.300385 
         4.8224         3.10247        0.297902 
        4.83809          3.0779        0.295449 
        4.85379         3.06127        0.293023 
         4.8695         3.04475        0.290621 
        4.88521         3.02646        0.288248 
        4.90093         3.01086        0.285901 
        4.91663         2.99385        0.283581 
        4.93234         2.97383        0.281286 
        4.94807         2.96264        0.279014 
        4.96377         2.93792        0.276771 
        4.97943         2.92357        0.274558 
        4.99514         2.89911        0.272363 
        5.01086         2.88674         0.27019 
        5.02654         2.87037        0.268047 
        5.04227         2.85996        0.265921 
          5.058           2.851        0.263817 
        5.07371         2.82434        0.261739 
        5.08942         2.81317        0.259684 
        5.10513         2.79622         0.25765 
        5.12084         2.77965        0.255638 
        5.13656         2.76691        0.253647 
        5.15225         2.74692         0.25168 
        5.16796         2.72711        0.249732 
        5.18369         2.71719        0.247802 
         5.1994         2.70549        0.245896 
        5.21509         2.68852        0.244012 
        5.23079         2.67307        0.242145 
        5.24649         2.65974          0.2403 
        5.26217         2.64919        0.238475 
        5.27788         2.62493        0.236666 
        5.29359          2.6133        0.234875 
        5.30933         2.60332        0.233101 
        5.32504         2.58241        0.231348 
        5.34073         2.56969        0.229615 
        5.35646         2.55879        0.227896 
        5.37218         2.53799        0.226194 
        5.38789         2.53433        0.224512 
        5.40357         2.51965         0.22285 
        5.41929         2.50276          0.2212 
        5.43502         2.48852        0.219567 
         5.4507         2.47622        0.217955 
        5.46639         2.46342        0.216358 
        5.48212         2.45323        0.214774 
        5.49786         2.43911        0.213203 
        5.51353         2.42067        0.211656 
        5.52921          2.4149        0.210123 
        5.54495          2.4009        0.208601 
        5.56066         2.38769        0.207095 
        5.57637         2.37499        0.205604 
        5.59207           2.362         0.20413 
        5.60778         2.35552        0.202669 
        5.62346         2.33812        0.201224 
        5.63916         2.32473        0.199793 
        5.65487         2.31526        0.198374 
         5.6706         2.30236        0.196968 
        5.68633          2.2913        0.195574 
        5.70203         2.27728        0.194197 
        5.71773         2.26706        0.192834 
        5.73344         2.25298        0.191482 
        5.74916         2.24524        0.190143 
        5.76486         2.23692        0.188818 
        5.78054         2.22641        0.187508 
        5.79626         2.21758        0.186206 
          5.812         2.19741        0.184916 
         5.8277          2.1874        0.183641 
        5.84339         2.17619        0.182379 
        5.85911         2.16935        0.181126 
        5.87484         2.15626        0.179885 
        5.89053         2.14641        0.178658 
        5.90623         2.13684        0.177442 
        5.92195         2.12589        0.176235 
        5.93767         2.11715         0.17504 
        5.95336         2.10248        0.173858 
        5.96905         2.09467        0.172688 
        5.98476          2.0813        0.171526 
        6.00048         2.07085        0.170375 
        6.01617         2.06715        0.169236 
        6.03185         2.05359        0.168108 
        6.04756         2.04175        0.166989 
        6.06331         2.03263        0.165877 
        6.07903         2.02199        0.164777 
        6.09473         2.01772        0.163689 
        6.11044         2.00504        0.162609 
        6.12616         1.99397        0.161539 
        6.14186         1.98949         0.16048 
        6.15755         1.97873        0.159431 
        6.17326         1.96718         0.15839 
        6.18898         1.96181        0.157358 
        6.20467         1.94951        0.156337 
        6.22036         1.94082        0.155325 
         6.2361         1.92843        0.154319 
         6.2518         1.92082        0.153324 
        6.26748         1.91376        0.152339 
        6.28319         1.90541        0.151361 
        6.29893         1.89957         0.15039 
        6.31463         1.88986         0.14943 
        6.33033         1.87593        0.148478 
        6.34604         1.87053        0.147534 
        6.36177         1.86438        0.146597 
        6.37747         1.85573         0.14567 
