# k  (h/Mpc)    Pcb(k)  (Mpc/h)^3    Pcb_linear(k) (Mpc/h)^3   ShotnoiseSubtracted = true
      0.0200456         2227.32          2260.4 
      0.0350414         1627.29         1643.23 
      0.0492313         1196.41         1193.94 
      0.0637834         1004.08         992.513 
      0.0800726         796.034         787.733 
       0.096163         568.022         571.569 
       0.111083         450.709         455.898 
       0.126058         407.163         404.019 
       0.142273         348.023         342.293 
       0.158546         278.008         270.339 
        0.17375         228.777         227.761 
       0.188953         211.901         206.232 
       0.204907         194.724         182.473 
       0.220756         162.338         154.384 
        0.23588         141.433           134.3 
         0.2514         126.394          122.01 
       0.267535         116.462         110.399 
       0.283568         104.114         97.3567 
       0.299022         94.3881         86.7398 
       0.314451         84.5489         79.2743 
       0.330372         78.6133         72.7252 
       0.346141         71.2779         66.0092 
       0.361624         66.0316         59.9934 
       0.377134         61.9718         55.2034 
       0.392932         55.0486         51.0786 
       0.408854         52.9555         47.0846 
       0.424564            49.7         43.3985 
       0.440253         45.7781         40.2355 
       0.455999          43.142         37.4851 
       0.471626         40.4092         34.9575 
        0.48727         38.3456          32.593 
       0.502856         35.9073          30.469 
       0.518488         34.2975         28.5737 
       0.534347         32.8762         26.8118 
       0.550082         30.0388         25.1873 
       0.565732         27.9652          23.701 
       0.581496         27.3743         22.3398 
       0.597222         26.4035         21.0914 
       0.612804         24.5982         19.9435 
       0.628434         23.7051         18.8735 
       0.644267         22.9993         17.8732 
       0.660051         21.7539         16.9513 
       0.675724         20.6269         16.0999 
       0.691403         19.9573         15.3064 
       0.707174         19.1823         14.5618 
       0.722871         18.4107         13.8698 
        0.73838         17.7132         13.2301 
       0.754018         17.0559         12.6259 
       0.769845          16.407         12.0529 
        0.78569         15.8764          11.515 
       0.801365         15.2482         11.0152 
       0.817031         14.8088         10.5456 
       0.832809         14.4645         10.1005 
       0.848511         13.5785         9.68324 
       0.864097         13.2764         9.29251 
       0.879701         12.8873         8.92308 
       0.895507         12.3717         8.56946 
       0.911279         12.1305         8.23583 
        0.92691         11.7539          7.9228 
       0.942635         11.2489          7.6244 
       0.958396         10.9528         7.34079 
       0.974128         10.6577          7.0722 
       0.989692         10.5328         6.81975 
        1.00528         10.1725          6.5793 
        1.02113          9.7574         6.34672 
        1.03692         9.54623          6.1263 
        1.05264         9.31563          5.9174 
        1.06832         9.09331          5.7186 
        1.08405         8.77191         5.52845 
        1.09979         8.57688         5.34687 
        1.11537         8.43034         5.17527 
        1.13105         8.19709         5.01021 
        1.14679         8.04409         4.85173 
        1.16256         7.77794         4.69984 
        1.17828         7.69892         4.55496 
        1.19395         7.42161         4.41671 
         1.2097         7.25639         4.28351 
        1.22537         7.07141         4.15646 
          1.241         6.96179         4.03498 
        1.25666         6.86207         3.91806 
        1.27241         6.64899         3.80524 
        1.28819         6.49377         3.69669 
        1.30392         6.40916          3.5927 
        1.31957         6.27005         3.49319 
        1.33529         6.14623         3.39709 
        1.35108         5.98358         3.30424 
        1.36674         5.94683         3.21554 
         1.3824         5.72664         3.13018 
        1.39811         5.65248         3.04765 
        1.41389         5.56014         2.96778 
        1.42964         5.46322         2.89092 
        1.44531         5.36124         2.81717 
        1.46101         5.24973         2.74584 
        1.47667         5.14717         2.67719 
        1.49229         5.09528         2.61109 
        1.50793         4.95336         2.54715 
        1.52367         4.90881         2.48494 
        1.53953         4.79551          2.4244 
        1.55526          4.7132         2.36636 
        1.57092         4.66323         2.31047 
        1.58662         4.55096         2.25625 
        1.60235         4.49291         2.20368 
        1.61809         4.41265         2.15275 
        1.63369         4.33713         2.10389 
        1.64941         4.27369          2.0562 
        1.66519         4.22078         2.00983 
        1.68085         4.13251         1.96521 
        1.69652         4.06015         1.92194 
        1.71228         4.01092         1.87973 
        1.72806         3.94424         1.83875 
        1.74368          3.8742         1.79941 
        1.75933         3.83444         1.76115 
        1.77505         3.78014         1.72382 
        1.79081         3.70099         1.68751 
         1.8065         3.66462          1.6524 
        1.82218          3.6203         1.61832 
        1.83797         3.58223         1.58498 
        1.85367         3.51108         1.55275 
        1.86928         3.47398         1.52162 
        1.88497         3.41665         1.49118 
        1.90073          3.3564         1.46145 
        1.91647          3.3139         1.43257 
        1.93218         3.28859         1.40453 
        1.94787         3.25478         1.37728 
        1.96363         3.19414         1.35064 
        1.97935         3.14987         1.32477 
        1.99499          3.0944         1.29972 
        2.01064         3.07037         1.27529 
         2.0264         3.02931         1.25133 
        2.04216         3.00022           1.228 
        2.05781         2.95431         1.20541 
        2.07353          2.9227         1.18331 
        2.08928         2.89449         1.16171 
        2.10499         2.84883         1.14071 
        2.12065         2.83117          1.1203 
        2.13633         2.78401         1.10037 
        2.15211         2.75043         1.08079 
        2.16785         2.72436         1.06175 
        2.18349         2.69176         1.04329 
        2.19916         2.64179         1.02522 
        2.21489         2.63042         1.00753 
        2.23063         2.58506        0.990239 
         2.2463         2.56743        0.973433 
        2.26194         2.53168         0.95706 
        2.27765         2.51511         0.94098 
        2.29341         2.47959        0.925228 
        2.30914          2.4505        0.909869 
        2.32486         2.43722        0.894868 
        2.34061          2.4037         0.88018 
        2.35635         2.36789        0.865836 
        2.37203         2.36045         0.85186 
        2.38768         2.33122        0.838223 
        2.40339         2.30692        0.824835 
        2.41914         2.27884        0.811708 
        2.43483         2.26252        0.798914 
         2.4505         2.22653        0.786417 
        2.46622         2.22143        0.774145 
        2.48195         2.18559        0.762134 
        2.49759         2.16677        0.750442 
        2.51328         2.14515        0.738965 
        2.52906         2.13518        0.727656 
        2.54479         2.10328        0.716625 
        2.56049         2.08672        0.705845 
        2.57618         2.06748        0.695296 
        2.59189         2.05913        0.684947 
        2.60758         2.02584        0.674825 
        2.62325         2.00987        0.664919 
        2.63898         1.98683        0.655179 
        2.65468         1.97044        0.645653 
        2.67044         1.95945        0.636277 
        2.68618         1.93242        0.627108 
        2.70184         1.91822        0.618157 
        2.71755         1.90257        0.609359 
        2.73329         1.88236        0.600718 
        2.74897         1.87031        0.592273 
        2.76462         1.85131        0.584009 
        2.78034         1.83898        0.575868 
        2.79607         1.81696        0.567874 
        2.81179         1.80526        0.560042 
        2.82749         1.78698        0.552365 
        2.84321         1.77499        0.544824 
        2.85893          1.7608        0.537427 
        2.87462         1.74369        0.530179 
        2.89033         1.72303        0.523058 
        2.90605         1.71079        0.516062 
        2.92176         1.70002        0.509198 
        2.93747         1.68447        0.502462 
        2.95318         1.67114        0.495846 
        2.96891         1.66085        0.489346 
        2.98456         1.64645        0.482992 
        3.00023         1.63253        0.476741 
        3.01596         1.62206        0.470582 
        3.03164         1.61211        0.464549 
        3.04738         1.59108        0.458604 
         3.0631         1.57898        0.452765 
        3.07883           1.571        0.447028 
        3.09456         1.56247        0.441391 
        3.11026         1.54624        0.435859 
        3.12596         1.53451        0.430423 
        3.14163         1.52485        0.425093 
        3.15734         1.51302         0.41984 
        3.17308         1.49827        0.414663 
        3.18879         1.49434        0.409588 
        3.20447         1.48101        0.404605 
         3.2202         1.46737         0.39969 
         3.2359          1.4564        0.394865 
        3.25157         1.44991        0.390131 
        3.26729         1.43352         0.38546 
        3.28304         1.43228        0.380857 
        3.29877         1.41356        0.376335 
        3.31446         1.40399        0.371896 
        3.33014         1.40167        0.367533 
        3.34585         1.39046        0.363233 
        3.36158         1.37593        0.358995 
        3.37727         1.37201        0.354838 
        3.39294         1.35652        0.350751 
        3.40867         1.34602        0.346713 
        3.42439         1.34086        0.342742 
        3.44008         1.33438         0.33884 
        3.45578         1.32562        0.334996 
        3.47153          1.3137        0.331203 
        3.48724         1.30438        0.327476 
        3.50292         1.29886        0.323814 
        3.51859         1.29357         0.32021 
        3.53431         1.28253         0.31665 
        3.55007         1.27293        0.313136 
        3.56577         1.26626        0.309688 
        3.58146          1.2609        0.306294 
        3.59719         1.24845        0.302943 
        3.61292         1.24623        0.299643 
        3.62859         1.23493        0.296405 
        3.64429         1.22627        0.293208 
        3.66003          1.2173        0.290049 
        3.67578         1.21049        0.286938 
        3.69146         1.20577        0.283883 
        3.70712         1.19334        0.280879 
        3.72284         1.19149        0.277907 
        3.73853         1.18162        0.274984 
        3.75422         1.17613        0.272101 
        3.76993         1.16981        0.269257 
        3.78564         1.16201        0.266455 
        3.80137         1.15191        0.263688 
        3.81707          1.1496        0.260966 
        3.83279         1.13859         0.25828 
        3.84853         1.13388        0.255628 
        3.86424         1.12503        0.253019 
        3.87992         1.12521        0.250449 
        3.89561         1.11411        0.247915 
        3.91134         1.10843        0.245411 
        3.92704         1.10101        0.242945 
        3.94273         1.09709        0.240514 
        3.95845         1.08994        0.238113 
        3.97418          1.0818        0.235744 
        3.98988         1.07532         0.23341 
        4.00554         1.06836        0.231114 
        4.02125         1.06265        0.228843 
        4.03698         1.05337        0.226598 
        4.05268         1.04709        0.224389 
        4.06839          1.0356        0.222207 
         4.0841          1.0325        0.220056 
        4.09983         1.02492        0.217929 
        4.11555         1.01905        0.215832 
        4.13124         1.01058        0.213768 
        4.14693         1.00213        0.211729 
        4.16266        0.995532        0.209712 
        4.17839        0.991847        0.207722 
        4.19408        0.986188        0.205763 
        4.20977        0.976659        0.203828 
        4.22551        0.974195        0.201914 
        4.24123        0.967601        0.200025 
        4.25691        0.959735        0.198167 
        4.27259        0.956534        0.196331 
        4.28831        0.949876        0.194515 
        4.30404        0.945503         0.19272 
        4.31974        0.936061        0.190951 
        4.33543        0.932416        0.189206 
        4.35116        0.929059        0.187479 
        4.36688        0.921808        0.185773 
        4.38255         0.91608        0.184095 
        4.39825        0.914732        0.182435 
        4.41398        0.907789        0.180791 
         4.4297        0.902724        0.179169 
        4.44541        0.898546        0.177568 
        4.46111        0.896394        0.175987 
        4.47683        0.892549        0.174425 
        4.49251        0.886502        0.172884 
        4.50819        0.882808        0.171363 
         4.5239        0.877013        0.169858 
        4.53962        0.875433        0.168369 
        4.55535        0.867777        0.166897 
        4.57106         0.86775        0.165444 
        4.58678        0.862168        0.164009 
         4.6025        0.859036         0.16259 
        4.61821        0.854921        0.161189 
        4.63391        0.850551        0.159805 
         4.6496        0.845396        0.158439 
        4.66532        0.844148        0.157086 
        4.68103        0.839598         0.15575 
        4.69673        0.836833         0.15443 
        4.71241        0.833292        0.153127 
        4.72811        0.831387        0.151837 
        4.74384        0.826098        0.150561 
        4.75955         0.82273          0.1493 
        4.77525        0.819305        0.148055 
        4.79096        0.816778        0.146823 
        4.80669        0.815678        0.145604 
         4.8224        0.811845          0.1444 
        4.83809        0.809758        0.143211 
        4.85379        0.806779        0.142035 
         4.8695        0.805428        0.140871 
        4.88521        0.798346        0.139721 
        4.90093        0.798627        0.138583 
        4.91663        0.798093        0.137459 
        4.93234        0.792418        0.136346 
        4.94807        0.791198        0.135245 
        4.96377        0.787515        0.134158 
        4.97943        0.786543        0.133085 
        4.99514         0.78497        0.132021 
        5.01086        0.781896        0.130968 
        5.02654        0.781479        0.129929 
        5.04227        0.776958        0.128898 
          5.058        0.775789        0.127878 
        5.07371        0.774445        0.126871 
        5.08942        0.771062        0.125875 
        5.10513        0.769816        0.124889 
        5.12084        0.768779        0.123914 
        5.13656        0.767087        0.122949 
        5.15225        0.765347        0.121996 
        5.16796        0.762847        0.121051 
        5.18369        0.760331        0.120116 
         5.1994        0.760028        0.119192 
        5.21509        0.758134        0.118278 
        5.23079        0.756947        0.117374 
        5.24649        0.755942        0.116479 
        5.26217        0.751537        0.115594 
        5.27788        0.753654        0.114718 
        5.29359        0.750942         0.11385 
        5.30933        0.748472         0.11299 
        5.32504         0.74932         0.11214 
        5.34073        0.748023          0.1113 
        5.35646        0.745319        0.110466 
        5.37218         0.74443        0.109642 
        5.38789        0.744522        0.108826 
        5.40357        0.741428        0.108021 
        5.41929        0.741506        0.107221 
        5.43502        0.740678         0.10643 
         5.4507        0.740614        0.105648 
        5.46639        0.738443        0.104874 
        5.48212        0.736514        0.104106 
        5.49786        0.735057        0.103345 
        5.51353        0.734474        0.102595 
        5.52921        0.733738        0.101852 
        5.54495        0.733519        0.101114 
        5.56066        0.731467        0.100384 
        5.57637        0.732853       0.0996614 
        5.59207        0.731323       0.0989466 
        5.60778        0.728796       0.0982385 
        5.62346        0.729951       0.0975383 
        5.63916        0.728356       0.0968443 
        5.65487        0.727474       0.0961567 
         5.6706        0.729563       0.0954749 
        5.68633         0.72696       0.0947995 
        5.70203        0.726373        0.094132 
        5.71773        0.725773       0.0934711 
        5.73344        0.723373       0.0928161 
        5.74916        0.724102       0.0921668 
        5.76486        0.723418       0.0915246 
        5.78054        0.722165       0.0908895 
        5.79626        0.720792       0.0902586 
          5.812        0.721945       0.0896332 
         5.8277         0.72108       0.0890154 
        5.84339        0.719785       0.0884035 
        5.85911        0.719145       0.0877961 
        5.87484        0.719292       0.0871945 
        5.89053        0.718735       0.0865998 
        5.90623        0.717589       0.0860104 
        5.92195        0.716783       0.0854254 
        5.93767        0.714513       0.0848461 
        5.95336        0.715937       0.0842732 
        5.96905        0.715709       0.0837058 
        5.98476        0.712988       0.0831428 
        6.00048        0.715307       0.0825848 
        6.01617        0.713447       0.0820326 
        6.03185        0.712578       0.0814862 
        6.04756        0.713135       0.0809434 
        6.06331        0.713428       0.0804045 
        6.07903        0.711559       0.0798715 
        6.09473        0.711405       0.0793439 
        6.11044        0.712067       0.0788206 
        6.12616        0.710131        0.078302 
        6.14186         0.71008       0.0777887 
        6.15755        0.710046         0.07728 
        6.17326        0.709159       0.0767754 
        6.18898        0.708764       0.0762751 
        6.20467        0.709515       0.0757801 
        6.22036        0.706002       0.0752896 
         6.2361        0.707131       0.0748021 
         6.2518        0.707455       0.0743196 
        6.26748         0.70633       0.0738425 
        6.28319        0.705998       0.0733683 
        6.29893        0.705617       0.0728978 
        6.31463        0.705208       0.0724323 
        6.33033        0.704688       0.0719709 
        6.34604        0.705036       0.0715133 
        6.36177        0.704075       0.0710592 
        6.37747        0.703834       0.0706098 
