# k  (h/Mpc)    Pcb(k)  (Mpc/h)^3    Pcb_linear(k) (Mpc/h)^3   ShotnoiseSubtracted = true
      0.0200456         5105.17         5188.57 
      0.0350414         3705.59         3771.91 
      0.0492313         2737.02          2740.6 
      0.0637834         2314.97         2278.24 
      0.0800726         1834.64         1808.18 
       0.096163          1296.3         1311.99 
       0.111083         1028.22         1046.48 
       0.126058         938.876         927.393 
       0.142273         807.012         785.706 
       0.158546         654.209         620.543 
        0.17375         531.883         522.807 
       0.188953         501.859          473.39 
       0.204907         467.288         418.853 
       0.220756         391.064         354.375 
        0.23588         341.678         308.276 
         0.2514         302.384         280.065 
       0.267535         284.722         253.411 
       0.283568         256.891         223.475 
       0.299022         235.562         199.104 
       0.314451         214.114         181.968 
       0.330372         198.786         166.935 
       0.346141         179.184         151.519 
       0.361624         169.205          137.71 
       0.377134         159.148         126.715 
       0.392932         143.965         117.247 
       0.408854         138.308         108.079 
       0.424564         132.266         99.6179 
       0.440253         123.327         92.3573 
       0.455999         116.079          86.044 
       0.471626         107.476         80.2421 
        0.48727          104.03         74.8148 
       0.502856         98.9336         69.9391 
       0.518488          95.459         65.5887 
       0.534347         91.5508         61.5444 
       0.550082         84.3598         57.8154 
       0.565732         80.4062         54.4038 
       0.581496         77.6613         51.2792 
       0.597222         75.1149         48.4137 
       0.612804         70.9863         45.7787 
       0.628434         69.2546         43.3227 
       0.644267         67.1147         41.0265 
       0.660051         64.7774         38.9103 
       0.675724         61.9708         36.9561 
       0.691403         60.1163         35.1346 
       0.707174         58.2395         33.4255 
       0.722871         56.3716         31.8369 
        0.73838         54.9263         30.3686 
       0.754018         52.2829         28.9818 
       0.769845         51.1206         27.6665 
        0.78569         49.7177         26.4317 
       0.801365         47.9545         25.2846 
       0.817031         46.7931         24.2066 
       0.832809         46.0226          23.185 
       0.848511         43.5924         22.2271 
       0.864097         42.7238         21.3302 
       0.879701         41.9977         20.4822 
       0.895507         41.3402         19.6705 
       0.911279          40.096         18.9047 
        0.92691         39.1166         18.1862 
       0.942635         37.7165         17.5012 
       0.958396         37.4246         16.8502 
       0.974128         36.3259         16.2337 
       0.989692         35.8081         15.6542 
        1.00528         35.0099         15.1023 
        1.02113         33.8381         14.5684 
        1.03692         33.1856         14.0624 
        1.05264         32.7115         13.5829 
        1.06832         31.8856         13.1266 
        1.08405         31.3367         12.6901 
        1.09979         30.7167         12.2733 
        1.11537         29.8609         11.8794 
        1.13105         29.7454         11.5005 
        1.14679         29.3087         11.1368 
        1.16256         28.3776         10.7881 
        1.17828         28.0324         10.4556 
        1.19395         27.3987         10.1382 
         1.2097         27.1971         9.83245 
        1.22537         26.6832         9.54083 
          1.241         26.1413         9.26197 
        1.25666         25.4742         8.99359 
        1.27241         25.2097         8.73462 
        1.28819         24.5675         8.48545 
        1.30392         24.3722         8.24676 
        1.31957         24.1702         8.01833 
        1.33529         23.8752         7.79775 
        1.35108         23.3109         7.58463 
        1.36674         22.9343         7.38101 
         1.3824         22.4883         7.18508 
        1.39811         22.2729         6.99563 
        1.41389         22.0419         6.81231 
        1.42964         21.6435         6.63588 
        1.44531         21.5268         6.46658 
        1.46101         20.9519         6.30285 
        1.47667         20.7234         6.14529 
        1.49229          20.527         5.99355 
        1.50793          20.243         5.84677 
        1.52367         20.0129         5.70398 
        1.53953         19.7834         5.56501 
        1.55526         19.4151         5.43179 
        1.57092         19.1444          5.3035 
        1.58662         18.9435         5.17905 
        1.60235          18.705         5.05836 
        1.61809         18.4858         4.94147 
        1.63369         18.2617         4.82932 
        1.64941         17.9041         4.71985 
        1.66519         17.8399          4.6134 
        1.68085         17.5537         4.51098 
        1.69652         17.3357         4.41166 
        1.71228         17.1707         4.31476 
        1.72806         16.9897         4.22071 
        1.74368         16.7491         4.13041 
        1.75933         16.5697         4.04258 
        1.77505         16.3741         3.95689 
        1.79081         16.1496         3.87354 
         1.8065         16.0787         3.79295 
        1.82218         15.7822         3.71473 
        1.83797         15.5844         3.63819 
        1.85367         15.4369         3.56423 
        1.86928          15.351         3.49277 
        1.88497         15.0898         3.42288 
        1.90073         15.0731         3.35465 
        1.91647         14.8415         3.28835 
        1.93218         14.7057         3.22398 
        1.94787         14.5728         3.16143 
        1.96363         14.4478          3.1003 
        1.97935         14.2657         3.04091 
        1.99499         14.0661         2.98341 
        2.01064         13.9444         2.92732 
         2.0264         13.7965         2.87232 
        2.04216         13.6546         2.81877 
        2.05781         13.4526         2.76691 
        2.07353         13.3643         2.71618 
        2.08928         13.2409         2.66662 
        2.10499         13.1171         2.61842 
        2.12065         12.9199         2.57156 
        2.13633          12.911         2.52581 
        2.15211         12.7037         2.48088 
        2.16785         12.6856         2.43717 
        2.18349         12.5737         2.39478 
        2.19916         12.3873         2.35332 
        2.21489         12.3014          2.3127 
        2.23063         12.1551         2.27301 
         2.2463         12.0292         2.23444 
        2.26194         11.9314         2.19686 
        2.27765         11.8784         2.15994 
        2.29341         11.7292         2.12379 
        2.30914         11.5523         2.08853 
        2.32486         11.5356          2.0541 
        2.34061         11.4099         2.02038 
        2.35635         11.3008         1.98746 
        2.37203         11.2405         1.95538 
        2.38768         11.0671         1.92407 
        2.40339          10.956         1.89334 
        2.41914         10.8643         1.86321 
        2.43483         10.8311         1.83384 
         2.4505         10.7251         1.80516 
        2.46622         10.6152         1.77699 
        2.48195         10.5533         1.74942 
        2.49759         10.4438         1.72258 
        2.51328          10.327         1.69624 
        2.52906         10.2526         1.67028 
        2.54479         10.1559         1.64496 
        2.56049         10.1193         1.62021 
        2.57618          10.041           1.596 
        2.59189         9.89151         1.57224 
        2.60758         9.87526         1.54901 
        2.62325         9.80609         1.52627 
        2.63898         9.64228         1.50391 
        2.65468          9.5615         1.48205 
        2.67044         9.51029         1.46052 
        2.68618          9.4066         1.43948 
        2.70184         9.35749         1.41893 
        2.71755          9.2622         1.39873 
        2.73329         9.16426          1.3789 
        2.74897         9.11411         1.35951 
        2.76462         9.09597         1.34055 
        2.78034         8.93372         1.32186 
        2.79607         8.90046         1.30351 
        2.81179         8.82456         1.28553 
        2.82749         8.79242         1.26791 
        2.84321         8.70383          1.2506 
        2.85893         8.63412         1.23362 
        2.87462         8.56116         1.21698 
        2.89033         8.46476         1.20064 
        2.90605         8.41294         1.18458 
        2.92176         8.35486         1.16882 
        2.93747         8.28795         1.15336 
        2.95318         8.26256         1.13817 
        2.96891         8.17012         1.12326 
        2.98456         8.08639         1.10867 
        3.00023         8.03233         1.09432 
        3.01596         7.99263         1.08018 
        3.03164         7.94186         1.06634 
        3.04738         7.89303         1.05269 
         3.0631         7.78785         1.03929 
        3.07883         7.74652         1.02612 
        3.09456         7.69466         1.01318 
        3.11026         7.62086         1.00048 
        3.12596          7.5845        0.988003 
        3.14163         7.50349        0.975767 
        3.15734         7.45973         0.96371 
        3.17308         7.40569        0.951827 
        3.18879         7.33168        0.940177 
        3.20447           7.294        0.928739 
         3.2202         7.21898        0.917457 
         3.2359         7.19635        0.906381 
        3.25157          7.1374        0.895515 
        3.26729         7.09752        0.884794 
        3.28304         7.01636        0.874227 
        3.29877         6.96384        0.863847 
        3.31446         6.93124        0.853658 
        3.33014         6.86902        0.843642 
        3.34585         6.84726        0.833772 
        3.36158         6.78214        0.824045 
        3.37727         6.74498        0.814503 
        3.39294         6.70454        0.805121 
        3.40867         6.61647        0.795853 
        3.42439         6.59411        0.786736 
        3.44008         6.53347         0.77778 
        3.45578         6.49415        0.768956 
        3.47153         6.45739         0.76025 
        3.48724         6.41218        0.751694 
        3.50292         6.37812         0.74329 
        3.51859         6.31657        0.735018 
        3.53431         6.26266        0.726846 
        3.55007         6.24091        0.718778 
        3.56577         6.19906        0.710865 
        3.58146          6.1595        0.703074 
        3.59719         6.09969        0.695382 
        3.61292         6.07838        0.687807 
        3.62859         6.02018        0.680374 
        3.64429         5.98753        0.673036 
        3.66003         5.92784        0.665785 
        3.67578         5.90774        0.658642 
        3.69146         5.84114        0.651632 
        3.70712         5.83402        0.644736 
        3.72284         5.76369        0.637914 
        3.73853         5.74012        0.631203 
        3.75422         5.69513        0.624586 
        3.76993         5.67421        0.618058 
        3.78564         5.61344        0.611626 
        3.80137         5.59028        0.605275 
        3.81707         5.54492        0.599027 
        3.83279          5.5183        0.592862 
        3.84853         5.45958        0.586775 
        3.86424          5.4194        0.580784 
        3.87992         5.39468        0.574886 
        3.89561          5.3625         0.56907 
        3.91134         5.31754        0.563322 
        3.92704         5.27759         0.55766 
        3.94273         5.24704        0.552082 
        3.95845         5.22025         0.54657 
        3.97418         5.18834        0.541131 
        3.98988         5.14528        0.535774 
        4.00554          5.1143        0.530505 
        4.02125         5.08387         0.52529 
        4.03698         5.04478        0.520138 
        4.05268         5.01124        0.515067 
        4.06839         4.98765        0.510059 
         4.0841         4.94242         0.50512 
        4.09983         4.90631        0.500239 
        4.11555         4.86003        0.495425 
        4.13124         4.83379        0.490687 
        4.14693         4.79196        0.486006 
        4.16266         4.75947        0.481377 
        4.17839         4.73648         0.47681 
        4.19408         4.68963        0.472313 
        4.20977         4.66573        0.467871 
        4.22551          4.6283        0.463477 
        4.24123         4.60777        0.459143 
        4.25691         4.58386        0.454876 
        4.27259          4.5559        0.450662 
        4.28831         4.52178        0.446493 
        4.30404         4.48378        0.442373 
        4.31974         4.45813        0.438314 
        4.33543         4.41265        0.434308 
        4.35116         4.39319        0.430342 
        4.36688          4.3494        0.426428 
        4.38255         4.32473        0.422576 
        4.39825           4.317        0.418764 
        4.41398         4.28638        0.414992 
         4.4297         4.25638        0.411269 
        4.44541         4.22537        0.407593 
        4.46111         4.20558        0.403965 
        4.47683         4.15752        0.400378 
        4.49251         4.14673        0.396842 
        4.50819         4.11825         0.39335 
         4.5239         4.09441        0.389895 
        4.53962         4.07914        0.386477 
        4.55535         4.04662        0.383098 
        4.57106         4.02329        0.379764 
        4.58678         3.99334         0.37647 
         4.6025         3.97554        0.373213 
        4.61821         3.94446        0.369996 
        4.63391         3.92049        0.366821 
         4.6496         3.90319        0.363684 
        4.66532         3.86996        0.360579 
        4.68103          3.8366        0.357512 
        4.69673         3.82193        0.354483 
        4.71241         3.79075        0.351492 
        4.72811          3.7748        0.348531 
        4.74384         3.76209          0.3456 
        4.75955         3.72481        0.342707 
        4.77525         3.69752        0.339849 
        4.79096         3.67449        0.337021 
        4.80669         3.65429        0.334222 
         4.8224         3.63765        0.331459 
        4.83809         3.61347         0.32873 
        4.85379         3.59206         0.32603 
         4.8695         3.56557        0.323358 
        4.88521         3.54076        0.320718 
        4.90093         3.53467        0.318106 
        4.91663         3.50608        0.315526 
        4.93234         3.48573        0.312971 
        4.94807         3.46886        0.310443 
        4.96377         3.43238        0.307948 
        4.97943         3.41645        0.305485 
        4.99514          3.3929        0.303043 
        5.01086         3.38122        0.300626 
        5.02654         3.35553        0.298242 
        5.04227         3.34046        0.295876 
          5.058         3.32698        0.293534 
        5.07371          3.2991        0.291223 
        5.08942         3.28511        0.288936 
        5.10513         3.26193        0.286674 
        5.12084         3.24291        0.284434 
        5.13656         3.22646        0.282219 
        5.15225          3.2057        0.280031 
        5.16796          3.1874        0.277863 
        5.18369         3.17286        0.275716 
         5.1994         3.14972        0.273595 
        5.21509         3.13086        0.271499 
        5.23079         3.11292        0.269422 
        5.24649         3.10069        0.267368 
        5.26217         3.07906        0.265338 
        5.27788         3.05641        0.263325 
        5.29359         3.04138        0.261333 
        5.30933         3.02553        0.259359 
        5.32504         3.00495        0.257408 
        5.34073           2.987         0.25548 
        5.35646         2.97887        0.253567 
        5.37218         2.95404        0.251674 
        5.38789         2.93777        0.249803 
        5.40357          2.9244        0.247953 
        5.41929         2.90218        0.246118 
        5.43502         2.89253        0.244301 
         5.4507         2.87508        0.242506 
        5.46639          2.8551         0.24073 
        5.48212         2.84199        0.238967 
        5.49786         2.82118         0.23722 
        5.51353         2.80653        0.235499 
        5.52921         2.80037        0.233793 
        5.54495         2.77971        0.232099 
        5.56066         2.76278        0.230423 
        5.57637         2.74782        0.228765 
        5.59207         2.73471        0.227124 
        5.60778         2.72131        0.225499 
        5.62346         2.69926        0.223892 
        5.63916         2.68595        0.222298 
        5.65487         2.67531         0.22072 
         5.6706         2.65664        0.219155 
        5.68633         2.64449        0.217605 
        5.70203         2.62927        0.216073 
        5.71773         2.61142        0.214555 
        5.73344         2.59614        0.213052 
        5.74916         2.58513        0.211562 
        5.76486         2.57501        0.210087 
        5.78054          2.5597         0.20863 
        5.79626          2.5503        0.207182 
          5.812         2.53108        0.205746 
         5.8277         2.52108        0.204328 
        5.84339          2.5054        0.202923 
        5.85911         2.49503        0.201529 
        5.87484         2.48153        0.200148 
        5.89053         2.46585        0.198783 
        5.90623         2.45374         0.19743 
        5.92195          2.4414        0.196087 
        5.93767          2.4272        0.194758 
        5.95336         2.41298        0.193442 
        5.96905         2.40185         0.19214 
        5.98476         2.38936        0.190848 
        6.00048         2.37589        0.189567 
        6.01617         2.36532        0.188299 
        6.03185         2.34995        0.187045 
        6.04756         2.33626        0.185799 
        6.06331         2.32452        0.184562 
        6.07903         2.31174        0.183339 
        6.09473         2.30572        0.182128 
        6.11044         2.28637        0.180926 
        6.12616         2.27617        0.179736 
        6.14186         2.26873        0.178558 
        6.15755         2.25909         0.17739 
        6.17326         2.24654        0.176232 
        6.18898         2.23728        0.175083 
        6.20467         2.22194        0.173947 
        6.22036            2.21        0.172821 
         6.2361         2.20173        0.171702 
         6.2518         2.19221        0.170595 
        6.26748         2.17544          0.1695 
        6.28319         2.16648        0.168411 
        6.29893         2.15768        0.167331 
        6.31463         2.14757        0.166263 
        6.33033         2.13052        0.165204 
        6.34604          2.1257        0.164153 
        6.36177         2.11557        0.163111 
        6.37747         2.10542        0.162079 
