# k  (h/Mpc)    Pcb(k)  (Mpc/h)^3    Pcb_linear(k) (Mpc/h)^3   ShotnoiseSubtracted = true
      0.0200456         20400.2         20752.3 
      0.0350414         15552.1         15086.2 
      0.0492313         10742.3         10961.4 
      0.0637834         8662.36         9112.08 
      0.0800726         6801.13         7232.03 
       0.096163         5449.68         5247.47 
       0.111083         4437.89         4185.52 
       0.126058          3669.8         3709.22 
       0.142273         3208.76         3142.52 
       0.158546         2634.03         2481.94 
        0.17375         2346.83         2091.03 
       0.188953         2217.91         1893.38 
       0.204907          1906.1         1675.25 
       0.220756         1720.96         1417.37 
        0.23588         1535.59         1232.99 
         0.2514         1387.22         1120.16 
       0.267535         1340.69         1013.55 
       0.283568         1190.52         893.813 
       0.299022         1135.59         796.341 
       0.314451         1179.71         727.802 
       0.330372         1035.73         667.677 
       0.346141         951.675         606.018 
       0.361624         913.025         550.788 
       0.377134         873.153         506.812 
       0.392932         834.689         468.943 
       0.408854         798.464         432.275 
       0.424564         780.081         398.434 
       0.440253         720.222         369.394 
       0.455999         688.651         344.143 
       0.471626         701.291         320.938 
        0.48727         661.407         299.231 
       0.502856         629.559          279.73 
       0.518488         614.742          262.33 
       0.534347         586.304         246.154 
       0.550082         559.435          231.24 
       0.565732         552.589         217.595 
       0.581496         540.328         205.097 
       0.597222         527.118         193.636 
       0.612804         514.841         183.097 
       0.628434         493.315         173.274 
       0.644267         478.235          164.09 
       0.660051         472.397         155.626 
       0.675724         462.556          147.81 
       0.691403         450.802         140.525 
       0.707174         435.431         133.689 
       0.722871         429.229         127.336 
        0.73838         421.427         121.463 
       0.754018         408.839         115.916 
       0.769845         404.859         110.655 
        0.78569         396.219         105.717 
       0.801365         382.501         101.129 
       0.817031         379.719         96.8173 
       0.832809         373.421          92.731 
       0.848511         366.177            88.9 
       0.864097         356.926         85.3128 
       0.879701          354.92         81.9211 
       0.895507         342.064         78.6746 
       0.911279         336.227         75.6116 
        0.92691         333.088         72.7378 
       0.942635         329.492         69.9981 
       0.958396          318.29         67.3944 
       0.974128         315.049         64.9285 
       0.989692         304.097         62.6108 
        1.00528         302.914         60.4033 
        1.02113          297.93         58.2681 
        1.03692         292.426         56.2444 
        1.05264         287.614         54.3265 
        1.06832          283.69         52.5014 
        1.08405         279.555         50.7557 
        1.09979         274.822         49.0886 
        1.11537         267.936         47.5132 
        1.13105         264.368         45.9978 
        1.14679         260.795         44.5429 
        1.16256         258.786         43.1483 
        1.17828          254.42         41.8182 
        1.19395          247.75         40.5489 
         1.2097         247.577         39.3261 
        1.22537         243.165         38.1597 
          1.241         237.115         37.0443 
        1.25666         235.343         35.9709 
        1.27241         231.479         34.9352 
        1.28819         227.263         33.9386 
        1.30392         226.046         32.9839 
        1.31957         219.475         32.0703 
        1.33529         216.605          31.188 
        1.35108         215.531         30.3356 
        1.36674         209.502         29.5212 
         1.3824         208.285         28.7376 
        1.39811         206.334         27.9799 
        1.41389         200.274         27.2466 
        1.42964          198.14          26.541 
        1.44531         196.415         25.8639 
        1.46101          192.88          25.209 
        1.47667         190.566         24.5788 
        1.49229         187.737         23.9719 
        1.50793          184.84         23.3849 
        1.52367         182.481         22.8137 
        1.53953         178.459         22.2579 
        1.55526         177.463         21.7251 
        1.57092         175.949          21.212 
        1.58662         171.527         20.7142 
        1.60235         169.888         20.2315 
        1.61809         167.356          19.764 
        1.63369          164.26         19.3154 
        1.64941         162.444         18.8776 
        1.66519         160.376         18.4518 
        1.68085         157.631         18.0422 
        1.69652          155.92          17.645 
        1.71228         153.311         17.2574 
        1.72806         151.856         16.8812 
        1.74368         149.823         16.5201 
        1.75933         148.627         16.1688 
        1.77505         146.271         15.8261 
        1.79081         143.019         15.4927 
         1.8065         141.605         15.1704 
        1.82218         138.979         14.8575 
        1.83797         138.104         14.5514 
        1.85367          136.14         14.2555 
        1.86928         134.232         13.9697 
        1.88497         132.997         13.6902 
        1.90073         131.494         13.4173 
        1.91647         128.928         13.1521 
        1.93218         127.439         12.8947 
        1.94787         125.471         12.6445 
        1.96363         124.885            12.4 
        1.97935         123.176         12.1625 
        1.99499         121.494         11.9325 
        2.01064          118.95         11.7082 
         2.0264         118.115         11.4882 
        2.04216         116.404          11.274 
        2.05781         114.713         11.0666 
        2.07353         113.356         10.8637 
        2.08928         111.927         10.6655 
        2.10499         110.808         10.4727 
        2.12065         109.524         10.2853 
        2.13633         108.433         10.1023 
        2.15211          106.54         9.92257 
        2.16785         105.238         9.74774 
        2.18349         103.795         9.57822 
        2.19916         102.844         9.41238 
        2.21489         101.742         9.24992 
        2.23063         99.8833         9.09119 
         2.2463         98.8887         8.93691 
        2.26194         97.9468         8.78659 
        2.27765         96.5817         8.63896 
        2.29341         95.6389         8.49434 
        2.30914         94.4028         8.35333 
        2.32486         92.6731         8.21561 
        2.34061         92.0631         8.08077 
        2.35635         90.9855         7.94907 
        2.37203         89.3778         7.82077 
        2.38768         88.6388         7.69557 
        2.40339          87.731         7.57265 
        2.41914         86.3031         7.45214 
        2.43483         85.6754         7.33468 
         2.4505         84.5444         7.21995 
        2.46622         83.4815         7.10728 
        2.48195         82.6916         6.99701 
        2.49759         81.4898         6.88967 
        2.51328          80.794          6.7843 
        2.52906         79.3583         6.68047 
        2.54479         78.5681          6.5792 
        2.56049         77.4087         6.48023 
        2.57618         76.4968         6.38338 
        2.59189         76.0663         6.28837 
        2.60758         74.5172         6.19544 
        2.62325         74.2579          6.1045 
        2.63898         73.3043         6.01507 
        2.65468         72.4356         5.92762 
        2.67044         71.3208         5.84154 
        2.68618          70.775         5.75736 
        2.70184         69.7973         5.67518 
        2.71755         69.0919         5.59441 
        2.73329         68.0503         5.51507 
        2.74897         67.6688         5.43754 
        2.76462         66.8132         5.36167 
        2.78034         65.6731         5.28694 
        2.79607         65.0651         5.21355 
        2.81179         64.6187         5.14164 
        2.82749         64.0203         5.07116 
        2.84321         63.2117         5.00193 
        2.85893         62.4614         4.93401 
        2.87462          61.751         4.86747 
        2.89033         61.2026          4.8021 
        2.90605          60.646         4.73787 
        2.92176         59.8176         4.67485 
        2.93747         59.3194           4.613 
        2.95318         58.3983         4.55227 
        2.96891         57.9328          4.4926 
        2.98456         57.2539         4.43426 
        3.00023         56.6695         4.37687 
        3.01596         56.2003         4.32032 
        3.03164         55.4882         4.26493 
        3.04738         55.1597         4.21036 
         3.0631         54.1504         4.15675 
        3.07883         53.6675         4.10408 
        3.09456         53.0738         4.05232 
        3.11026         52.5291         4.00154 
        3.12596         52.0812         3.95164 
        3.14163         51.3777          3.9027 
        3.15734         50.8269         3.85447 
        3.17308         50.3767         3.80695 
        3.18879         49.8376         3.76035 
        3.20447         49.4473          3.7146 
         3.2202         48.7609         3.66948 
         3.2359         48.1977         3.62518 
        3.25157         47.8448         3.58172 
        3.26729         47.2698         3.53884 
        3.28304         46.8461         3.49658 
        3.29877         46.3327         3.45506 
        3.31446         45.9736         3.41431 
        3.33014         45.4141         3.37425 
        3.34585         44.8387         3.33477 
        3.36158         44.4918         3.29586 
        3.37727         44.0111          3.2577 
        3.39294         43.6892         3.22018 
        3.40867         43.2124         3.18311 
        3.42439         42.7729         3.14665 
        3.44008         42.2078         3.11082 
        3.45578         41.9182         3.07553 
        3.47153         41.4142         3.04071 
        3.48724         41.0004         3.00649 
        3.50292         40.6257         2.97288 
        3.51859         40.1698         2.93979 
        3.53431         39.6811         2.90711 
        3.55007         39.3896         2.87484 
        3.56577         39.0982         2.84319 
        3.58146         38.6107         2.81203 
        3.59719         38.2295         2.78126 
        3.61292         37.7998         2.75097 
        3.62859         37.5735         2.72124 
        3.64429         37.2137         2.69189 
        3.66003         36.8468         2.66289 
        3.67578         36.5192         2.63432 
        3.69146         36.2026         2.60628 
        3.70712         35.7744          2.5787 
        3.72284         35.4877         2.55141 
        3.73853         35.1764         2.52457 
        3.75422         34.8588         2.49811 
        3.76993         34.5147           2.472 
        3.78564          34.266         2.44627 
        3.80137         33.8977         2.42087 
        3.81707         33.5289         2.39588 
        3.83279          33.251         2.37122 
        3.84853         32.9246         2.34688 
        3.86424         32.5836         2.32292 
        3.87992         32.4336         2.29933 
        3.89561           32.11         2.27606 
        3.91134         31.8835         2.25307 
        3.92704         31.5002         2.23043 
        3.94273         31.2206         2.20812 
        3.95845         30.9854         2.18607 
        3.97418         30.6556         2.16432 
        3.98988          30.318         2.14289 
        4.00554         30.0833         2.12182 
        4.02125         29.8924         2.10096 
        4.03698         29.5224         2.08036 
        4.05268          29.312         2.06007 
        4.06839         28.9469         2.04004 
         4.0841         28.8069         2.02029 
        4.09983          28.518         2.00077 
        4.11555          28.253         1.98151 
        4.13124         28.0232         1.96256 
        4.14693         27.7854         1.94384 
        4.16266         27.4583         1.92532 
        4.17839         27.2799         1.90706 
        4.19408          27.036         1.88907 
        4.20977         26.7995         1.87131 
        4.22551         26.5668         1.85373 
        4.24123         26.3511          1.8364 
        4.25691         26.1024         1.81933 
        4.27259         25.9681         1.80248 
        4.28831         25.6371          1.7858 
        4.30404         25.4352         1.76932 
        4.31974         25.1513         1.75309 
        4.33543         25.0177         1.73707 
        4.35116         24.7915         1.72121 
        4.36688         24.5791         1.70555 
        4.38255         24.4419         1.69015 
        4.39825          24.127          1.6749 
        4.41398         23.9477         1.65981 
         4.4297         23.7405         1.64492 
        4.44541         23.6057         1.63022 
        4.46111         23.3968         1.61571 
        4.47683         23.1585         1.60136 
        4.49251         22.9853         1.58722 
        4.50819          22.821         1.57325 
         4.5239         22.5885         1.55943 
        4.53962         22.4535         1.54576 
        4.55535         22.1996         1.53225 
        4.57106          22.052         1.51891 
        4.58678         21.8601         1.50573 
         4.6025         21.6446         1.49271 
        4.61821         21.4802         1.47984 
        4.63391         21.2764         1.46714 
         4.6496         21.1292          1.4546 
        4.66532         20.9964         1.44218 
        4.68103         20.7356         1.42991 
        4.69673         20.6638          1.4178 
        4.71241          20.463         1.40583 
        4.72811         20.2827         1.39399 
        4.74384         20.1164         1.38227 
        4.75955         19.9923          1.3707 
        4.77525         19.8166         1.35927 
        4.79096         19.6486         1.34795 
        4.80669         19.5143         1.33676 
         4.8224         19.3645         1.32571 
        4.83809           19.19          1.3148 
        4.85379          19.034           1.304 
         4.8695         18.8953         1.29331 
        4.88521         18.7327         1.28275 
        4.90093          18.585          1.2723 
        4.91663         18.4589         1.26198 
        4.93234         18.2795         1.25177 
        4.94807          18.167         1.24166 
        4.96377          18.061         1.23168 
        4.97943         17.8254         1.22183 
        4.99514         17.7214         1.21206 
        5.01086         17.5776         1.20239 
        5.02654         17.4679         1.19285 
        5.04227            17.3         1.18339 
          5.058          17.168         1.17403 
        5.07371           17.06         1.16478 
        5.08942         16.9003         1.15563 
        5.10513         16.7746         1.14659 
        5.12084          16.677         1.13763 
        5.13656         16.4978         1.12877 
        5.15225         16.3833         1.12002 
        5.16796         16.2792         1.11135 
        5.18369         16.1591         1.10276 
         5.1994         16.0571         1.09428 
        5.21509         15.9322         1.08589 
        5.23079          15.805         1.07759 
        5.24649         15.7087         1.06937 
        5.26217         15.5805         1.06125 
        5.27788         15.4355          1.0532 
        5.29359         15.3321         1.04523 
        5.30933         15.2206         1.03734 
        5.32504         15.0661         1.02953 
        5.34073         15.0008         1.02182 
        5.35646         14.8899         1.01417 
        5.37218         14.7375          1.0066 
        5.38789         14.6434        0.999115 
        5.40357          14.547        0.991717 
        5.41929         14.4455        0.984377 
        5.43502         14.3152         0.97711 
         5.4507         14.2369        0.969933 
        5.46639         14.1398        0.962828 
        5.48212          14.024        0.955778 
        5.49786          13.923        0.948789 
        5.51353         13.8197        0.941905 
        5.52921         13.7149        0.935082 
        5.54495         13.5975        0.928307 
        5.56066         13.5204        0.921606 
        5.57637         13.4083        0.914973 
        5.59207         13.3128         0.90841 
        5.60778         13.2153        0.901909 
        5.62346         13.1415        0.895481 
        5.63916         13.0171        0.889109 
        5.65487         12.9365        0.882796 
         5.6706         12.8435        0.876537 
        5.68633         12.7702        0.870336 
        5.70203         12.6651        0.864208 
        5.71773         12.5767         0.85814 
        5.73344          12.485        0.852127 
        5.74916         12.4036        0.846166 
        5.76486         12.3232         0.84027 
        5.78054         12.2351        0.834439 
        5.79626         12.1246        0.828648 
          5.812         12.0583        0.822905 
         5.8277         11.9773        0.817233 
        5.84339         11.8812        0.811615 
        5.85911         11.7955        0.806039 
        5.87484         11.7283        0.800517 
        5.89053         11.6359        0.795057 
        5.90623         11.5424        0.789645 
        5.92195         11.4433        0.784274 
        5.93767         11.3751        0.778956 
        5.95336         11.3317        0.773696 
        5.96905         11.2359        0.768487 
        5.98476         11.1884        0.763318 
        6.00048         11.0825        0.758195 
        6.01617         11.0089        0.753126 
        6.03185         10.9437         0.74811 
        6.04756         10.8569        0.743126 
        6.06331         10.7789        0.738178 
        6.07903         10.7037        0.733285 
        6.09473         10.6458        0.728441 
        6.11044         10.5569        0.723637 
        6.12616         10.4751        0.718876 
        6.14186         10.4022        0.714163 
        6.15755         10.3546        0.709493 
        6.17326          10.274         0.70486 
        6.18898         10.1933        0.700267 
        6.20467          10.141        0.695723 
        6.22036         10.0811        0.691219 
         6.2361         9.98924        0.686744 
         6.2518         9.95663        0.682315 
        6.26748         9.88612        0.677934 
        6.28319         9.82087        0.673581 
        6.29893         9.74949        0.669261 
        6.31463          9.6821        0.664987 
        6.33033         9.61509        0.660752 
        6.34604         9.53868         0.65655 
        6.36177         9.50226        0.652381 
        6.37747         9.42929        0.648255 
