# k  (h/Mpc)    Pcb(k)  (Mpc/h)^3    Pcb_linear(k) (Mpc/h)^3   ShotnoiseSubtracted = true
      0.0200456          6502.6         6613.25 
      0.0350414         4707.84         4807.61 
      0.0492313         3482.59         3493.12 
      0.0637834         2954.21          2903.8 
      0.0800726         2340.56         2304.67 
       0.096163         1648.36         1672.24 
       0.111083         1307.94         1333.82 
       0.126058         1198.06         1182.04 
       0.142273         1031.54         1001.45 
       0.158546         842.448         790.932 
        0.17375         682.101          666.36 
       0.188953         647.907         603.373 
       0.204907         605.265         533.862 
       0.220756         508.211          451.68 
        0.23588         444.728         392.922 
         0.2514          392.11         356.966 
       0.267535         372.604         322.993 
       0.283568         336.957         284.836 
       0.299022         310.376         253.774 
       0.314451         284.603         231.933 
       0.330372         263.753         212.772 
       0.346141          237.47         193.123 
       0.361624         225.816         175.523 
       0.377134         211.934         161.508 
       0.392932         194.105         149.441 
       0.408854         186.214         137.755 
       0.424564         178.415         126.971 
       0.440253         167.792         117.717 
       0.455999         157.911          109.67 
       0.471626         145.983         102.275 
        0.48727         141.694         95.3575 
       0.502856         135.527          89.143 
       0.518488         131.713         83.5981 
       0.534347          125.81         78.4433 
       0.550082          116.42         73.6904 
       0.565732          112.04          69.342 
       0.581496         107.618         65.3595 
       0.597222         104.139         61.7071 
       0.612804         99.0464         58.3487 
       0.628434         96.8711         55.2183 
       0.644267         93.6079         52.2916 
       0.660051         91.1656         49.5943 
       0.675724         87.8672         47.1036 
       0.691403         85.2216         44.7818 
       0.707174         82.1954         42.6035 
       0.722871          80.354         40.5788 
        0.73838         78.6075         38.7072 
       0.754018         74.7623         36.9396 
       0.769845         73.2908         35.2632 
        0.78569         71.4319         33.6894 
       0.801365         69.0637         32.2273 
       0.817031         66.9804         30.8533 
       0.832809         66.1687         29.5511 
       0.848511         63.2316         28.3303 
       0.864097           61.73         27.1871 
       0.879701          60.891         26.1062 
       0.895507         59.8533         25.0717 
       0.911279         58.5283         24.0956 
        0.92691           57.02         23.1797 
       0.942635         55.1236         22.3067 
       0.958396         54.9023          21.477 
       0.974128         53.4438         20.6911 
       0.989692         52.4236         19.9525 
        1.00528         51.3489         19.2491 
        1.02113         49.9837         18.5686 
        1.03692         48.8713         17.9237 
        1.05264         48.4613         17.3125 
        1.06832          47.189         16.7309 
        1.08405         46.6083         16.1746 
        1.09979         45.9026         15.6433 
        1.11537         44.2196         15.1413 
        1.13105         44.4893         14.6584 
        1.14679         43.6114         14.1947 
        1.16256         42.6544         13.7503 
        1.17828         41.7012         13.3264 
        1.19395         41.1624          12.922 
         1.2097         40.5841         12.5323 
        1.22537         40.2403         12.1606 
          1.241         39.2262         11.8051 
        1.25666         38.3813         11.4631 
        1.27241         38.1144          11.133 
        1.28819         37.0789         10.8154 
        1.30392         36.6555         10.5112 
        1.31957         36.4176           10.22 
        1.33529         36.0368         9.93887 
        1.35108         35.4223         9.66722 
        1.36674         34.7808         9.40769 
         1.3824              34         9.15796 
        1.39811         33.9169          8.9165 
        1.41389         33.3974         8.68284 
        1.42964         32.8012         8.45797 
        1.44531         32.5328         8.24218 
        1.46101           31.75         8.03349 
        1.47667         31.6263         7.83266 
        1.49229         31.3271         7.63926 
        1.50793         30.7879         7.45218 
        1.52367         30.4899         7.27018 
        1.53953         30.2279         7.09306 
        1.55526          29.611         6.92326 
        1.57092         29.2911         6.75973 
        1.58662         28.9142         6.60112 
        1.60235         28.6213         6.44729 
        1.61809         28.2281          6.2983 
        1.63369         27.9025         6.15536 
        1.64941         27.4276         6.01584 
        1.66519         27.2651         5.88014 
        1.68085         26.8976         5.74961 
        1.69652         26.6007         5.62301 
        1.71228         26.3857         5.49952 
        1.72806         25.9568         5.37964 
        1.74368         25.6194         5.26454 
        1.75933         25.3504         5.15259 
        1.77505         25.2076         5.04337 
        1.79081         24.7942         4.93714 
         1.8065         24.6151         4.83442 
        1.82218         24.3438         4.73473 
        1.83797         23.9885         4.63716 
        1.85367         23.7319         4.54289 
        1.86928         23.5071         4.45181 
        1.88497         23.1366         4.36274 
        1.90073         23.1688         4.27578 
        1.91647         22.7545         4.19127 
        1.93218         22.5707         4.10922 
        1.94787         22.3819          4.0295 
        1.96363         22.1977         3.95158 
        1.97935         21.9475         3.87588 
        1.99499         21.6789          3.8026 
        2.01064          21.528         3.73111 
         2.0264         21.1544         3.66101 
        2.04216         21.0004         3.59274 
        2.05781         20.7782         3.52666 
        2.07353         20.5884           3.462 
        2.08928          20.509         3.39882 
        2.10499         20.2221         3.33739 
        2.12065         19.8951         3.27766 
        2.13633         19.8643         3.21935 
        2.15211         19.5051         3.16208 
        2.16785         19.4475         3.10637 
        2.18349         19.2572         3.05234 
        2.19916         19.0539         2.99949 
        2.21489         18.8559         2.94772 
        2.23063         18.6996         2.89714 
         2.2463         18.5311         2.84797 
        2.26194         18.4158         2.80007 
        2.27765         18.1473         2.75302 
        2.29341         17.9363         2.70694 
        2.30914         17.8348           2.662 
        2.32486         17.7216         2.61811 
        2.34061         17.5184         2.57514 
        2.35635         17.2735         2.53317 
        2.37203         17.1928         2.49229 
        2.38768          17.053         2.45239 
        2.40339         16.8418         2.41322 
        2.41914         16.6945         2.37481 
        2.43483         16.5554         2.33738 
         2.4505         16.3675         2.30082 
        2.46622         16.2485         2.26492 
        2.48195         16.0779         2.22977 
        2.49759         15.9516         2.19557 
        2.51328         15.8017         2.16199 
        2.52906         15.6941          2.1289 
        2.54479          15.545         2.09663 
        2.56049         15.4225         2.06509 
        2.57618         15.3129         2.03423 
        2.59189         15.1489         2.00395 
        2.60758         15.0312         1.97433 
        2.62325         14.9253         1.94535 
        2.63898          14.746         1.91686 
        2.65468         14.6723         1.88899 
        2.67044         14.4928         1.86156 
        2.68618         14.4006         1.83473 
        2.70184         14.2638         1.80854 
        2.71755         14.1125          1.7828 
        2.73329         14.0165         1.75752 
        2.74897         13.8713         1.73281 
        2.76462         13.8672         1.70863 
        2.78034          13.642         1.68482 
        2.79607         13.5241         1.66143 
        2.81179         13.4105         1.63851 
        2.82749         13.3216         1.61606 
        2.84321         13.1699         1.59399 
        2.85893         13.0913         1.57235 
        2.87462         12.9913         1.55114 
        2.89033         12.8187         1.53031 
        2.90605         12.7487         1.50984 
        2.92176         12.6602         1.48976 
        2.93747         12.5603         1.47005 
        2.95318         12.4181          1.4507 
        2.96891         12.3111         1.43168 
        2.98456         12.2397         1.41309 
        3.00023         12.1561          1.3948 
        3.01596         12.0378         1.37678 
        3.03164         11.9532         1.35913 
        3.04738         11.8233         1.34174 
         3.0631         11.7388         1.32465 
        3.07883         11.6147         1.30787 
        3.09456         11.5598         1.29138 
        3.11026         11.3951         1.27519 
        3.12596         11.3834         1.25929 
        3.14163         11.2684         1.24369 
        3.15734         11.1613         1.22833 
        3.17308          11.092         1.21318 
        3.18879          11.038         1.19833 
        3.20447         10.8907         1.18375 
         3.2202         10.8103         1.16937 
         3.2359         10.7722         1.15526 
        3.25157         10.6729         1.14141 
        3.26729         10.5656         1.12774 
        3.28304         10.4701         1.11427 
        3.29877         10.3757         1.10104 
        3.31446         10.3268         1.08806 
        3.33014           10.22         1.07529 
        3.34585          10.188         1.06271 
        3.36158         10.1025         1.05031 
        3.37727         9.99906         1.03815 
        3.39294         9.92372         1.02619 
        3.40867         9.80214         1.01438 
        3.42439         9.75717         1.00276 
        3.44008         9.68505        0.991343 
        3.45578         9.61216        0.980097 
        3.47153         9.57146           0.969 
        3.48724         9.48791        0.958095 
        3.50292         9.39136        0.947383 
        3.51859         9.34045        0.936839 
        3.53431         9.25329        0.926424 
        3.55007         9.19085        0.916141 
        3.56577         9.13232        0.906055 
        3.58146          9.0595        0.896124 
        3.59719         8.97538         0.88632 
        3.61292         8.90801        0.876666 
        3.62859         8.82468        0.867192 
        3.64429         8.78144        0.857839 
        3.66003          8.6932        0.848596 
        3.67578         8.61017        0.839493 
        3.69146         8.58185        0.830557 
        3.70712         8.52126        0.821768 
        3.72284          8.4376        0.813073 
        3.73853         8.38049        0.804519 
        3.75422         8.32039        0.796085 
        3.76993         8.25586        0.787765 
        3.78564         8.18098        0.779566 
        3.80137         8.13626        0.771471 
        3.81707         8.05375        0.763508 
        3.83279         8.03372        0.755651 
        3.84853         7.95445        0.747892 
        3.86424         7.87022        0.740256 
        3.87992         7.80927        0.732739 
        3.89561         7.78037        0.725326 
        3.91134         7.71157           0.718 
        3.92704         7.65762        0.710783 
        3.94273         7.59507        0.703673 
        3.95845         7.55457        0.696647 
        3.97418          7.4713        0.689716 
        3.98988         7.43337        0.682888 
        4.00554         7.36408        0.676171 
        4.02125         7.31654        0.669525 
        4.03698         7.27153        0.662958 
        4.05268         7.21994        0.656494 
        4.06839          7.1517        0.650112 
         4.0841         7.10646        0.643816 
        4.09983         7.07666        0.637595 
        4.11555         7.02229        0.631459 
        4.13124         6.96885         0.62542 
        4.14693         6.89643        0.619454 
        4.16266          6.8495        0.613553 
        4.17839         6.79864        0.607733 
        4.19408         6.73876           0.602 
        4.20977         6.69048         0.59634 
        4.22551            6.64        0.590738 
        4.24123           6.592        0.585214 
        4.25691         6.54255        0.579776 
        4.27259         6.50309        0.574405 
        4.28831         6.45273        0.569092 
        4.30404         6.39641         0.56384 
        4.31974         6.35524        0.558667 
        4.33543         6.30826        0.553561 
        4.35116         6.26751        0.548506 
        4.36688         6.21299        0.543517 
        4.38255         6.16259        0.538608 
        4.39825         6.11759        0.533749 
        4.41398         6.08475         0.52894 
         4.4297         6.06126        0.524196 
        4.44541         5.99333        0.519511 
        4.46111         5.98285        0.514886 
        4.47683         5.90123        0.510315 
        4.49251         5.89055        0.505808 
        4.50819          5.8292        0.501356 
         4.5239         5.78385        0.496952 
        4.53962         5.76133        0.492596 
        4.55535          5.7006        0.488289 
        4.57106         5.66871         0.48404 
        4.58678         5.63499        0.479841 
         4.6025         5.58303         0.47569 
        4.61821         5.54968         0.47159 
        4.63391         5.51727        0.467542 
         4.6496         5.47003        0.463544 
        4.66532         5.45149        0.459587 
        4.68103         5.38661        0.455677 
        4.69673         5.37073        0.451817 
        4.71241         5.32593        0.448005 
        4.72811         5.28457        0.444231 
        4.74384          5.2528        0.440495 
        4.75955         5.20922        0.436808 
        4.77525         5.17954        0.433166 
        4.79096         5.14344         0.42956 
        4.80669         5.11157        0.425994 
         4.8224         5.08178        0.422472 
        4.83809         5.03482        0.418993 
        4.85379         4.99121        0.415552 
         4.8695         4.97313        0.412146 
        4.88521         4.94224        0.408781 
        4.90093         4.89325        0.405452 
        4.91663         4.87148        0.402163 
        4.93234         4.84679        0.398907 
        4.94807          4.7977        0.395685 
        4.96377         4.76921        0.392505 
        4.97943         4.73221        0.389366 
        4.99514         4.69994        0.386253 
        5.01086         4.66861        0.383172 
        5.02654         4.65158        0.380133 
        5.04227         4.61418        0.377117 
          5.058         4.57731        0.374133 
        5.07371         4.55584        0.371187 
        5.08942          4.5236        0.368272 
        5.10513         4.49709        0.365389 
        5.12084         4.46948        0.362534 
        5.13656         4.44049        0.359711 
        5.15225         4.40862        0.356922 
        5.16796         4.37883        0.354159 
        5.18369         4.34396        0.351422 
         5.1994         4.32174        0.348719 
        5.21509         4.29322        0.346047 
        5.23079         4.26902          0.3434 
        5.24649         4.23388        0.340783 
        5.26217         4.21418        0.338194 
        5.27788         4.18198        0.335629 
        5.29359         4.15155         0.33309 
        5.30933         4.12737        0.330574 
        5.32504         4.10685        0.328087 
        5.34073         4.07165        0.325629 
        5.35646         4.04895        0.323192 
        5.37218         4.02173        0.320778 
        5.38789         4.00217        0.318394 
        5.40357         3.97512        0.316036 
        5.41929          3.9442        0.313697 
        5.43502         3.92972        0.311381 
         5.4507         3.89193        0.309094 
        5.46639         3.87387         0.30683 
        5.48212         3.85864        0.304583 
        5.49786         3.83422        0.302356 
        5.51353         3.80004        0.300162 
        5.52921         3.77774        0.297988 
        5.54495          3.7463        0.295829 
        5.56066         3.73523        0.293693 
        5.57637         3.70723        0.291579 
        5.59207         3.68694        0.289488 
        5.60778         3.66387        0.287416 
        5.62346         3.63028        0.285368 
        5.63916         3.61416        0.283337 
        5.65487         3.59437        0.281326 
         5.6706         3.57696        0.279331 
        5.68633         3.55097        0.277355 
        5.70203         3.52282        0.275402 
        5.71773         3.51343        0.273468 
        5.73344         3.49014        0.271552 
        5.74916         3.46912        0.269652 
        5.76486         3.44567        0.267773 
        5.78054         3.42265        0.265915 
        5.79626         3.40902         0.26407 
          5.812         3.39031         0.26224 
         5.8277         3.37336        0.260432 
        5.84339         3.34631        0.258642 
        5.85911          3.3287        0.256865 
        5.87484         3.31051        0.255105 
        5.89053         3.28342        0.253365 
        5.90623         3.26462         0.25164 
        5.92195         3.24835        0.249929 
        5.93767         3.23419        0.248234 
        5.95336         3.21575        0.246558 
        5.96905         3.19608        0.244898 
        5.98476         3.17554        0.243251 
        6.00048         3.15259        0.241618 
        6.01617         3.13971        0.240003 
        6.03185         3.11619        0.238404 
        6.04756          3.1025        0.236816 
        6.06331         3.07703        0.235239 
        6.07903         3.06648         0.23368 
        6.09473         3.04906        0.232136 
        6.11044         3.02732        0.230605 
        6.12616         3.01259        0.229088 
        6.14186         3.00008        0.227586 
        6.15755          2.9759        0.226098 
        6.17326         2.96774        0.224622 
        6.18898         2.94636        0.223158 
        6.20467         2.92577         0.22171 
        6.22036         2.90664        0.220275 
         6.2361         2.89707        0.218848 
         6.2518          2.8785        0.217437 
        6.26748         2.86106        0.216041 
        6.28319         2.84589        0.214654 
        6.29893         2.83144        0.213277 
        6.31463         2.81694        0.211915 
        6.33033         2.80645        0.210565 
        6.34604         2.78447        0.209226 
        6.36177         2.76871        0.207898 
        6.37747         2.75436        0.206583 
