# k  (h/Mpc)    Pcb(k)  (Mpc/h)^3    Pcb_linear(k) (Mpc/h)^3   ShotnoiseSubtracted = true
      0.0200456         12910.3         13168.2 
      0.0350414         9258.29         9572.86 
      0.0492313         6879.24         6955.46 
      0.0637834         5895.95         5782.01 
      0.0800726         4662.95         4589.04 
       0.096163         3252.47         3329.75 
       0.111083          2591.1         2655.89 
       0.126058         2388.51         2353.66 
       0.142273         2064.48         1994.07 
       0.158546         1741.49          1574.9 
        0.17375         1394.94         1326.85 
       0.188953         1350.33         1201.43 
       0.204907         1268.68         1063.02 
       0.220756         1082.75         899.381 
        0.23588         955.539         782.383 
         0.2514         832.813         710.787 
       0.267535         816.441         643.141 
       0.283568         740.223         567.164 
       0.299022         692.235         505.313 
       0.314451         653.438         461.822 
       0.330372         602.179          423.67 
       0.346141          550.59         384.545 
       0.361624         529.448         349.499 
       0.377134         491.665         321.594 
       0.392932         469.359         297.565 
       0.408854         451.329         274.297 
       0.424564         426.786         252.824 
       0.440253         415.099         234.397 
       0.455999          390.95         218.374 
       0.471626         366.977         203.649 
        0.48727         355.478         189.875 
       0.502856         344.311         177.501 
       0.518488         340.808          166.46 
       0.534347         319.472         156.196 
       0.550082         302.434         146.732 
       0.565732         299.449         138.073 
       0.581496         283.024         130.143 
       0.597222          277.43         122.871 
       0.612804         268.376         116.183 
       0.628434         258.177          109.95 
       0.644267         250.303         104.123 
       0.660051         246.368         98.7516 
       0.675724         241.722         93.7922 
       0.691403         234.742         89.1692 
       0.707174         225.518         84.8317 
       0.722871         223.158            80.8 
        0.73838         218.774         77.0735 
       0.754018         212.997         73.5538 
       0.769845         205.842         70.2157 
        0.78569         204.853          67.082 
       0.801365         198.029         64.1707 
       0.817031         191.949         61.4348 
       0.832809           189.7         58.8419 
       0.848511         184.769         56.4109 
       0.864097          182.32         54.1347 
       0.879701         178.359         51.9825 
       0.895507         173.762         49.9224 
       0.911279         169.171         47.9788 
        0.92691         168.801         46.1553 
       0.942635         164.548         44.4169 
       0.958396         163.938         42.7647 
       0.974128          159.66            41.2 
       0.989692         155.851         39.7293 
        1.00528         153.472         38.3285 
        1.02113         152.537         36.9736 
        1.03692          147.33         35.6895 
        1.05264         145.051         34.4725 
        1.06832          142.35         33.3144 
        1.08405         140.346         32.2067 
        1.09979         139.668         31.1488 
        1.11537         135.195         30.1492 
        1.13105         134.222         29.1876 
        1.14679         133.448         28.2644 
        1.16256         131.293         27.3795 
        1.17828         128.406         26.5355 
        1.19395         126.592         25.7301 
         1.2097          124.92         24.9541 
        1.22537         123.632          24.214 
          1.241         121.179         23.5063 
        1.25666           119.2         22.8251 
        1.27241         117.334         22.1679 
        1.28819           115.9         21.5355 
        1.30392          114.33         20.9297 
        1.31957         113.047           20.35 
        1.33529         110.402         19.7902 
        1.35108         109.319         19.2493 
        1.36674         108.349         18.7325 
         1.3824         106.095         18.2353 
        1.39811         105.266         17.7544 
        1.41389         103.652         17.2892 
        1.42964         101.739         16.8414 
        1.44531         99.6505         16.4118 
        1.46101         98.8328         15.9962 
        1.47667         97.9838         15.5963 
        1.49229         96.3063         15.2112 
        1.50793          95.483         14.8387 
        1.52367         94.1643         14.4763 
        1.53953         92.5392         14.1236 
        1.55526         91.7451         13.7855 
        1.57092         90.8502         13.4599 
        1.58662           88.96         13.1441 
        1.60235         88.6105         12.8378 
        1.61809         86.9731         12.5411 
        1.63369         86.2347         12.2565 
        1.64941         85.4454         11.9787 
        1.66519         83.3898         11.7085 
        1.68085          82.879         11.4486 
        1.69652         81.0111         11.1965 
        1.71228         81.0413         10.9506 
        1.72806         79.7241         10.7119 
        1.74368          78.784         10.4827 
        1.75933          77.538         10.2598 
        1.77505         76.9152         10.0423 
        1.79081         75.6089         9.83079 
         1.8065         74.8383         9.62626 
        1.82218         73.6153         9.42774 
        1.83797         72.9004         9.23348 
        1.85367         72.1503         9.04577 
        1.86928         71.9091         8.86441 
        1.88497         70.3312         8.68705 
        1.90073         69.4785         8.51389 
        1.91647         69.0028         8.34561 
        1.93218         67.9305         8.18225 
        1.94787         67.1708          8.0235 
        1.96363         66.1765         7.86835 
        1.97935         65.8563         7.71762 
        1.99499         64.7012          7.5717 
        2.01064         64.2703         7.42935 
         2.0264         62.9372         7.28976 
        2.04216         62.3861         7.15384 
        2.05781          61.684         7.02224 
        2.07353          60.749         6.89349 
        2.08928         59.9899          6.7677 
        2.10499         59.6074         6.64538 
        2.12065         58.9996         6.52645 
        2.13633         58.3642         6.41034 
        2.15211         57.8655         6.29631 
        2.16785         57.1692         6.18537 
        2.18349         56.6649          6.0778 
        2.19916         55.8353         5.97257 
        2.21489         55.3811         5.86948 
        2.23063         54.8464         5.76876 
         2.2463         54.1717         5.67086 
        2.26194         53.2956         5.57547 
        2.27765         52.9487          5.4818 
        2.29341         52.3333         5.39003 
        2.30914         51.5302         5.30056 
        2.32486         50.7543         5.21316 
        2.34061         50.4312          5.1276 
        2.35635         49.8463         5.04403 
        2.37203         49.1801         4.96262 
        2.38768         48.7592         4.88317 
        2.40339         48.1504         4.80518 
        2.41914         47.8625         4.72871 
        2.43483         47.4285         4.65417 
         2.4505         46.9582         4.58137 
        2.46622         46.4045         4.50988 
        2.48195         45.8482         4.43991 
        2.49759          45.157         4.37179 
        2.51328         44.7175         4.30493 
        2.52906         44.3036         4.23905 
        2.54479         43.8436         4.17479 
        2.56049         43.1995         4.11199 
        2.57618         42.9393         4.05053 
        2.59189          42.371         3.99024 
        2.60758         42.0477         3.93128 
        2.62325          41.492         3.87357 
        2.63898         41.1011         3.81682 
        2.65468         40.5483         3.76133 
        2.67044         39.9496         3.70671 
        2.68618         39.7582          3.6533 
        2.70184         39.3048         3.60115 
        2.71755         39.0743         3.54989 
        2.73329         38.4063         3.49956 
        2.74897         38.0807         3.45036 
        2.76462         37.5856         3.40221 
        2.78034         37.3971         3.35479 
        2.79607         36.9271         3.30822 
        2.81179         36.5904         3.26259 
        2.82749         36.0094         3.21787 
        2.84321         35.7936         3.17394 
        2.85893         35.3986         3.13085 
        2.87462         34.9254         3.08862 
        2.89033         34.6036         3.04714 
        2.90605         34.3762         3.00638 
        2.92176         33.9839         2.96639 
        2.93747         33.6812         2.92715 
        2.95318         33.2691         2.88861 
        2.96891         32.7846         2.85075 
        2.98456         32.6489         2.81373 
        3.00023         32.2192         2.77732 
        3.01596          31.848         2.74143 
        3.03164          31.648         2.70629 
        3.04738          31.348         2.67165 
         3.0631          30.953         2.63764 
        3.07883         30.6433         2.60422 
        3.09456         30.3806         2.57138 
        3.11026         30.0658         2.53915 
        3.12596         29.7721         2.50749 
        3.14163         29.4387         2.47643 
        3.15734         29.1949         2.44583 
        3.17308         28.8449         2.41567 
        3.18879         28.6105         2.38611 
        3.20447         28.3218         2.35708 
         3.2202         28.0234         2.32844 
         3.2359         27.7786         2.30033 
        3.25157         27.5812         2.27276 
        3.26729         27.2943         2.24555 
        3.28304         26.9754         2.21873 
        3.29877         26.6087         2.19239 
        3.31446         26.4583         2.16653 
        3.33014         26.2148         2.14111 
        3.34585         26.0506         2.11606 
        3.36158         25.6466         2.09137 
        3.37727         25.4111         2.06715 
        3.39294           25.23         2.04334 
        3.40867         24.9484         2.01982 
        3.42439         24.6977         1.99668 
        3.44008         24.4822         1.97395 
        3.45578         24.2717         1.95156 
        3.47153          24.013         1.92946 
        3.48724         23.7535         1.90775 
        3.50292         23.6088         1.88642 
        3.51859         23.3193         1.86543 
        3.53431         23.1776         1.84469 
        3.55007         22.9063         1.82421 
        3.56577         22.6708         1.80413 
        3.58146         22.5664         1.78435 
        3.59719         22.2749         1.76483 
        3.61292         22.1031         1.74561 
        3.62859          21.862         1.72674 
        3.64429          21.666         1.70812 
        3.66003         21.4576         1.68972 
        3.67578         21.2677         1.67159 
        3.69146          21.076          1.6538 
        3.70712         20.8472          1.6363 
        3.72284         20.7103         1.61898 
        3.73853         20.4897         1.60195 
        3.75422         20.3008         1.58516 
        3.76993         20.1291         1.56859 
        3.78564         19.9064         1.55226 
        3.80137         19.7603         1.53615 
        3.81707         19.6108         1.52029 
        3.83279         19.3854         1.50465 
        3.84853         19.2149         1.48919 
        3.86424         19.0808         1.47399 
        3.87992         18.8903         1.45902 
        3.89561         18.7047         1.44426 
        3.91134         18.5887         1.42967 
        3.92704         18.3982          1.4153 
        3.94273         18.2394         1.40115 
        3.95845           18.03         1.38716 
        3.97418         17.9179         1.37336 
        3.98988         17.7158         1.35976 
        4.00554         17.5969         1.34639 
        4.02125         17.4275         1.33315 
        4.03698         17.2336         1.32008 
        4.05268         17.1338         1.30721 
        4.06839         16.9122          1.2945 
         4.0841         16.8783         1.28196 
        4.09983         16.6381         1.26957 
        4.11555         16.5318         1.25735 
        4.13124         16.4011         1.24533 
        4.14693         16.2335         1.23345 
        4.16266         16.0752          1.2217 
        4.17839         15.9556         1.21011 
        4.19408         15.8112          1.1987 
        4.20977         15.6799         1.18743 
        4.22551         15.5604         1.17627 
        4.24123         15.4417         1.16527 
        4.25691         15.3371         1.15445 
        4.27259         15.1828         1.14375 
        4.28831         15.0058         1.13317 
        4.30404         14.9178         1.12271 
        4.31974         14.7756         1.11241 
        4.33543         14.6535         1.10224 
        4.35116         14.5288         1.09218 
        4.36688         14.4125         1.08225 
        4.38255         14.2996         1.07247 
        4.39825         14.2137          1.0628 
        4.41398         14.0528         1.05322 
         4.4297         13.9298         1.04377 
        4.44541         13.8364         1.03444 
        4.46111         13.7439         1.02524 
        4.47683         13.5986         1.01613 
        4.49251         13.5123         1.00716 
        4.50819          13.392        0.998296 
         4.5239         13.3016        0.989527 
        4.53962         13.1535        0.980852 
        4.55535         13.0672        0.972277 
        4.57106          12.969        0.963816 
        4.58678         12.8272        0.955455 
         4.6025         12.7329         0.94719 
        4.61821         12.6251        0.939025 
        4.63391         12.5758        0.930966 
         4.6496         12.4136        0.923005 
        4.66532         12.3062        0.915125 
        4.68103         12.2026         0.90734 
        4.69673         12.1569        0.899653 
        4.71241         12.0247        0.892063 
        4.72811         11.9377        0.884548 
        4.74384         11.8316         0.87711 
        4.75955         11.7428        0.869769 
        4.77525          11.668        0.862515 
        4.79096          11.579        0.855336 
        4.80669         11.4742        0.848234 
         4.8224         11.3745        0.841222 
        4.83809         11.3166        0.834296 
        4.85379         11.1842        0.827443 
         4.8695         11.1505        0.820662 
        4.88521         11.0329         0.81396 
        4.90093         10.9536        0.807332 
        4.91663         10.8676        0.800783 
        4.93234         10.7775          0.7943 
        4.94807         10.6917        0.787884 
        4.96377         10.6175        0.781552 
        4.97943         10.5323        0.775302 
        4.99514         10.4642        0.769104 
        5.01086         10.3709        0.762969 
        5.02654         10.2832        0.756917 
        5.04227          10.231        0.750913 
          5.058         10.1202        0.744971 
        5.07371         10.0755        0.739104 
        5.08942         9.97361        0.733301 
        5.10513         9.90947        0.727558 
        5.12084         9.85278        0.721875 
        5.13656         9.76345        0.716253 
        5.15225         9.70059          0.7107 
        5.16796          9.6177        0.705198 
        5.18369         9.54633        0.699748 
         5.1994          9.4721        0.694367 
        5.21509         9.41004        0.689046 
        5.23079         9.31843        0.683775 
        5.24649          9.2799        0.678563 
        5.26217         9.17756        0.673409 
        5.27788         9.13384        0.668302 
        5.29359         9.04026        0.663246 
        5.30933         8.99204        0.658235 
        5.32504         8.91916        0.653284 
        5.34073         8.87453         0.64839 
        5.35646         8.78736        0.643536 
        5.37218         8.72235        0.638731 
        5.38789         8.67709        0.633982 
        5.40357         8.61378        0.629288 
        5.41929         8.54406         0.62463 
        5.43502         8.47253        0.620019 
         5.4507         8.41239        0.615465 
        5.46639         8.34854        0.610957 
        5.48212         8.29865        0.606483 
        5.49786         8.24348        0.602048 
        5.51353         8.18381         0.59768 
        5.52921         8.12321        0.593351 
        5.54495         8.07187        0.589051 
        5.56066         8.00223        0.584799 
        5.57637         7.94922         0.58059 
        5.59207         7.89581        0.576426 
        5.60778         7.84011        0.572301 
        5.62346         7.78441        0.568222 
        5.63916         7.74107        0.564179 
        5.65487          7.6735        0.560173 
         5.6706         7.63026        0.556201 
        5.68633         7.56259        0.552266 
        5.70203         7.52076        0.548378 
        5.71773         7.46072        0.544527 
        5.73344          7.4126        0.540712 
        5.74916         7.36627        0.536929 
        5.76486         7.32702        0.533188 
        5.78054         7.26156        0.529488 
        5.79626         7.21025        0.525813 
          5.812         7.15674        0.522169 
         5.8277         7.10991         0.51857 
        5.84339         7.07196        0.515005 
        5.85911         7.01202        0.511467 
        5.87484           6.977        0.507963 
        5.89053         6.92924        0.504498 
        5.90623         6.86597        0.501064 
        5.92195         6.82677        0.497656 
        5.93767         6.78218        0.494282 
        5.95336         6.74215        0.490944 
        5.96905         6.69139        0.487639 
        5.98476         6.65535        0.484359 
        6.00048         6.60576        0.481108 
        6.01617         6.56091        0.477891 
        6.03185          6.5115        0.474708 
        6.04756         6.47018        0.471546 
        6.06331         6.43373        0.468406 
        6.07903         6.39425        0.465302 
        6.09473         6.34883        0.462228 
        6.11044         6.28813        0.459179 
        6.12616         6.26085        0.456158 
        6.14186         6.22957        0.453168 
        6.15755         6.17601        0.450204 
        6.17326         6.11882        0.447265 
        6.18898         6.08503         0.44435 
        6.20467          6.0563        0.441467 
        6.22036         6.00621        0.438609 
         6.2361         5.96993        0.435769 
         6.2518         5.93113        0.432958 
        6.26748         5.89761        0.430179 
        6.28319         5.84869        0.427416 
        6.29893         5.81979        0.424675 
        6.31463         5.78479        0.421963 
        6.33033         5.73434        0.419276 
        6.34604         5.70545         0.41661 
        6.36177         5.67419        0.413964 
        6.37747         5.64295        0.411346 
