# k  (h/Mpc)    Pcb(k)  (Mpc/h)^3    Pcb_linear(k) (Mpc/h)^3   ShotnoiseSubtracted = true
      0.0200456          7102.4         7225.29 
      0.0350414         5136.81         5252.54 
      0.0492313         3802.08          3816.4 
      0.0637834         3228.94         3172.54 
      0.0800726         2557.86         2517.96 
       0.096163         1799.19            1827 
       0.111083         1427.94         1457.26 
       0.126058         1309.39         1291.43 
       0.142273         1128.07         1094.13 
       0.158546         924.216         864.131 
        0.17375          747.16          728.03 
       0.188953         711.496         659.214 
       0.204907         665.369          583.27 
       0.220756         559.532         493.482 
        0.23588         489.973         429.287 
         0.2514         431.372         390.002 
       0.267535         411.415         352.885 
       0.283568         372.293         311.197 
       0.299022         343.554         277.261 
       0.314451         316.171         253.398 
       0.330372         292.778         232.464 
       0.346141         263.611         210.996 
       0.361624         251.289         191.767 
       0.377134         235.562         176.456 
       0.392932         216.859         163.271 
       0.408854         207.959         150.504 
       0.424564         199.232         138.722 
       0.440253         188.065         128.611 
       0.455999         176.975          119.82 
       0.471626         163.645          111.74 
        0.48727         158.923         104.183 
       0.502856          152.31          97.393 
       0.518488         148.472          91.335 
       0.534347         141.514         85.7031 
       0.550082         131.188         80.5103 
       0.565732         126.725         75.7595 
       0.581496         121.463         71.4084 
       0.597222         117.611          67.418 
       0.612804         112.106         63.7487 
       0.628434         109.606         60.3286 
       0.644267         105.854         57.1311 
       0.660051         103.443         54.1841 
       0.675724         99.9818         51.4629 
       0.691403         96.9489         48.9263 
       0.707174          93.311         46.5464 
       0.722871         91.5862         44.3342 
        0.73838         89.6683         42.2895 
       0.754018         85.3674         40.3583 
       0.769845         83.7299         38.5267 
        0.78569         81.6584         36.8073 
       0.801365         79.0688         35.2099 
       0.817031          76.494         33.7087 
       0.832809         75.6231          32.286 
       0.848511         72.5716         30.9522 
       0.864097         70.7498         29.7032 
       0.879701         69.8434         28.5223 
       0.895507         68.5369          27.392 
       0.911279         67.2139         26.3256 
        0.92691         65.4943          25.325 
       0.942635         63.4313         24.3711 
       0.958396          63.188         23.4646 
       0.974128         61.5414          22.606 
       0.989692         60.2493         21.7991 
        1.00528         59.0455         21.0305 
        1.02113         57.6753         20.2871 
        1.03692         56.2426         19.5825 
        1.05264         55.9099         18.9148 
        1.06832         54.4224         18.2793 
        1.08405          53.779         17.6715 
        1.09979         53.1049         17.0911 
        1.11537         51.0904         16.5426 
        1.13105         51.4752          16.015 
        1.14679         50.3667         15.5084 
        1.16256         49.4307         15.0229 
        1.17828         48.2214         14.5598 
        1.19395          47.741         14.1179 
         1.2097         46.8769         13.6921 
        1.22537         46.6642          13.286 
          1.241         45.4434         12.8977 
        1.25666         44.5371         12.5239 
        1.27241         44.2093         12.1633 
        1.28819         43.0874         11.8163 
        1.30392         42.5248         11.4839 
        1.31957         42.2358         11.1659 
        1.33529         41.7141         10.8587 
        1.35108         41.1964         10.5619 
        1.36674         40.4805         10.2784 
         1.3824         39.5048         10.0055 
        1.39811         39.4165          9.7417 
        1.41389         38.7988         9.48642 
        1.42964         38.1357         9.24074 
        1.44531         37.7485         9.00498 
        1.46101         36.8932         8.77698 
        1.47667         36.8243         8.55756 
        1.49229         36.4476         8.34626 
        1.50793         35.7683         8.14187 
        1.52367         35.3907         7.94302 
        1.53953         35.1474          7.7495 
        1.55526         34.4471         7.56399 
        1.57092         34.1076         7.38533 
        1.58662         33.6576         7.21204 
        1.60235         33.3239         7.04398 
        1.61809         32.8011          6.8812 
        1.63369         32.4041         6.72502 
        1.64941         31.9074         6.57259 
        1.66519         31.6404         6.42434 
        1.68085         31.3115         6.28173 
        1.69652          30.941         6.14341 
        1.71228         30.7109         6.00849 
        1.72806          30.193         5.87751 
        1.74368         29.7925         5.75176 
        1.75933         29.4699         5.62945 
        1.77505         29.3346         5.51013 
        1.79081         28.8248         5.39406 
         1.8065         28.5518         5.28184 
        1.82218         28.3139         5.17292 
        1.83797         27.9126         5.06632 
        1.85367         27.5617         4.96333 
        1.86928         27.3392         4.86382 
        1.88497         26.9089          4.7665 
        1.90073         26.8898         4.67149 
        1.91647         26.4396         4.57916 
        1.93218         26.2311         4.48952 
        1.94787         25.9444         4.40242 
        1.96363         25.7686         4.31729 
        1.97935         25.4526         4.23459 
        1.99499         25.1492         4.15452 
        2.01064         24.9928         4.07641 
         2.0264         24.5313         3.99983 
        2.04216         24.3235         3.92525 
        2.05781         24.0919         3.85304 
        2.07353         23.8654          3.7824 
        2.08928          23.822         3.71337 
        2.10499         23.5243         3.64626 
        2.12065         23.1013         3.58101 
        2.13633         23.0386         3.51729 
        2.15211         22.5917         3.45473 
        2.16785         22.5036         3.39385 
        2.18349         22.3034         3.33483 
        2.19916         22.0917         3.27709 
        2.21489         21.8172         3.22053 
        2.23063         21.6637         3.16527 
         2.2463         21.4977         3.11155 
        2.26194         21.3392         3.05921 
        2.27765         21.0106         3.00781 
        2.29341         20.7656         2.95746 
        2.30914         20.6863         2.90837 
        2.32486         20.4872         2.86042 
        2.34061         20.2774         2.81347 
        2.35635         19.9889         2.76761 
        2.37203         19.8797         2.72294 
        2.38768         19.6963         2.67935 
        2.40339         19.5275         2.63656 
        2.41914         19.3226          2.5946 
        2.43483         19.1258          2.5537 
         2.4505         18.9223         2.51376 
        2.46622         18.7508         2.47453 
        2.48195         18.5752         2.43614 
        2.49759         18.3747         2.39876 
        2.51328         18.2293         2.36208 
        2.52906         18.1176         2.32593 
        2.54479         17.9075         2.29067 
        2.56049         17.7306         2.25621 
        2.57618         17.5987         2.22249 
        2.59189         17.4823         2.18941 
        2.60758         17.3191         2.15705 
        2.62325          17.173         2.12539 
        2.63898         17.0239         2.09426 
        2.65468         16.8835         2.06381 
        2.67044         16.6898         2.03384 
        2.68618         16.5723         2.00453 
        2.70184         16.4399         1.97592 
        2.71755         16.2423         1.94779 
        2.73329         16.1305         1.92017 
        2.74897         15.9333         1.89318 
        2.76462         15.9815         1.86676 
        2.78034         15.7117         1.84074 
        2.79607         15.5692         1.81519 
        2.81179         15.4578         1.79015 
        2.82749         15.3233         1.76562 
        2.84321         15.1856         1.74151 
        2.85893         15.0598         1.71787 
        2.87462         14.9167          1.6947 
        2.89033         14.7559         1.67194 
        2.90605         14.6933         1.64958 
        2.92176         14.4996         1.62763 
        2.93747         14.4388          1.6061 
        2.95318         14.2615         1.58495 
        2.96891          14.134         1.56418 
        2.98456         14.0546         1.54387 
        3.00023         13.9283         1.52389 
        3.01596         13.8281          1.5042 
        3.03164         13.7034         1.48492 
        3.04738         13.5473         1.46591 
         3.0631          13.462         1.44725 
        3.07883         13.3131         1.42891 
        3.09456         13.2381         1.41089 
        3.11026         13.0825         1.39321 
        3.12596         13.0029         1.37583 
        3.14163         12.9116          1.3588 
        3.15734         12.7743           1.342 
        3.17308         12.6707         1.32546 
        3.18879         12.6113         1.30924 
        3.20447         12.4662         1.29331 
         3.2202          12.357          1.2776 
         3.2359         12.3027         1.26217 
        3.25157         12.1935         1.24704 
        3.26729         12.0497         1.23211 
        3.28304         11.9645          1.2174 
        3.29877         11.8545         1.20294 
        3.31446         11.7749         1.18875 
        3.33014         11.6616         1.17481 
        3.34585         11.5938         1.16106 
        3.36158         11.5313         1.14752 
        3.37727         11.3869         1.13423 
        3.39294         11.3085         1.12116 
        3.40867         11.1986         1.10826 
        3.42439         11.1106         1.09556 
        3.44008         11.0454         1.08309 
        3.45578         10.9548          1.0708 
        3.47153         10.8917         1.05868 
        3.48724         10.7888         1.04676 
        3.50292         10.6771         1.03506 
        3.51859         10.6339         1.02354 
        3.53431         10.5327         1.01216 
        3.55007         10.4548         1.00093 
        3.56577         10.3798        0.989908 
        3.58146         10.3107        0.979059 
        3.59719         10.1936        0.968347 
        3.61292         10.1135          0.9578 
        3.62859         10.0165        0.947449 
        3.64429         9.98734        0.937231 
        3.66003         9.86354        0.927132 
        3.67578         9.78299        0.917186 
        3.69146         9.73659        0.907424 
        3.70712          9.6575        0.897821 
        3.72284         9.58821        0.888321 
        3.73853         9.49931        0.878976 
        3.75422         9.46372        0.869761 
        3.76993         9.36815        0.860671 
        3.78564         9.27775        0.851714 
        3.80137         9.22698         0.84287 
        3.81707         9.12931        0.834169 
        3.83279         9.08018        0.825585 
        3.84853         8.99256        0.817108 
        3.86424          8.9245        0.808766 
        3.87992         8.83636        0.800553 
        3.89561         8.80159        0.792453 
        3.91134         8.74014        0.784449 
        3.92704         8.65575        0.776565 
        3.94273         8.61056        0.768797 
        3.95845         8.54789         0.76112 
        3.97418         8.44377        0.753547 
        3.98988         8.39685        0.746088 
        4.00554         8.33793        0.738749 
        4.02125         8.27768        0.731488 
        4.03698         8.22098        0.724314 
        4.05268         8.16316        0.717252 
        4.06839         8.07243        0.710279 
         4.0841         8.03412          0.7034 
        4.09983         7.97762        0.696603 
        4.11555         7.91355        0.689899 
        4.13124         7.85407        0.683301 
        4.14693         7.77821        0.676784 
        4.16266         7.72407        0.670337 
        4.17839         7.67859        0.663977 
        4.19408         7.61319        0.657714 
        4.20977            7.56         0.65153 
        4.22551         7.49434         0.64541 
        4.24123         7.43664        0.639375 
        4.25691         7.36839        0.633434 
        4.27259           7.327        0.627566 
        4.28831         7.26649         0.62176 
        4.30404         7.22839        0.616023 
        4.31974         7.16127         0.61037 
        4.33543          7.1111        0.604792 
        4.35116         7.05532        0.599269 
        4.36688         7.00039        0.593818 
        4.38255         6.94857        0.588455 
        4.39825         6.87883        0.583146 
        4.41398         6.85954        0.577893 
         4.4297         6.81046        0.572709 
        4.44541         6.74074         0.56759 
        4.46111         6.71566        0.562538 
        4.47683         6.64542        0.557543 
        4.49251         6.62138        0.552619 
        4.50819         6.55403        0.547756 
         4.5239         6.50682        0.542944 
        4.53962         6.47867        0.538184 
        4.55535         6.41239        0.533479 
        4.57106         6.36785        0.528837 
        4.58678         6.32233        0.524249 
         4.6025         6.27533        0.519714 
        4.61821         6.21999        0.515234 
        4.63391         6.19283        0.510813 
         4.6496         6.13455        0.506444 
        4.66532         6.11992        0.502121 
        4.68103         6.03404        0.497849 
        4.69673         6.02198        0.493632 
        4.71241         5.97136        0.489467 
        4.72811         5.91628        0.485343 
        4.74384         5.87812        0.481262 
        4.75955         5.82934        0.477234 
        4.77525         5.81136        0.473254 
        4.79096         5.75675        0.469315 
        4.80669         5.73164        0.465418 
         4.8224         5.69238        0.461571 
        4.83809         5.64141         0.45777 
        4.85379         5.58483        0.454011 
         4.8695         5.56854         0.45029 
        4.88521         5.52817        0.446612 
        4.90093         5.46965        0.442976 
        4.91663         5.45265        0.439382 
        4.93234         5.41804        0.435825 
        4.94807         5.37076        0.432305 
        4.96377          5.3278         0.42883 
        4.97943         5.28643        0.425401 
        4.99514         5.24696           0.422 
        5.01086         5.22194        0.418634 
        5.02654         5.19431        0.415314 
        5.04227         5.14827        0.412019 
          5.058         5.11603        0.408759 
        5.07371         5.08171         0.40554 
        5.08942         5.04526        0.402355 
        5.10513         5.01907        0.399205 
        5.12084         4.99057        0.396086 
        5.13656         4.95481        0.393001 
        5.15225           4.925        0.389955 
        5.16796          4.8905        0.386936 
        5.18369         4.84465        0.383946 
         5.1994         4.81944        0.380993 
        5.21509         4.78131        0.378073 
        5.23079         4.75844        0.375181 
        5.24649         4.72438        0.372321 
        5.26217         4.69034        0.369494 
        5.27788         4.65576        0.366691 
        5.29359         4.62138        0.363917 
        5.30933         4.60277        0.361168 
        5.32504         4.56508        0.358451 
        5.34073         4.53273        0.355766 
        5.35646          4.5012        0.353102 
        5.37218         4.47076        0.350466 
        5.38789         4.44328         0.34786 
        5.40357         4.41133        0.345284 
        5.41929         4.38366        0.342729 
        5.43502         4.36737        0.340199 
         5.4507         4.33073          0.3377 
        5.46639         4.29971        0.335226 
        5.48212         4.27499        0.332771 
        5.49786         4.24636        0.330338 
        5.51353         4.21886        0.327942 
        5.52921         4.19128        0.325566 
        5.54495         4.16851        0.323207 
        5.56066         4.14207        0.320874 
        5.57637         4.11373        0.318564 
        5.59207         4.08436         0.31628 
        5.60778         4.06226        0.314016 
        5.62346          4.0319        0.311778 
        5.63916         4.01331         0.30956 
        5.65487          3.9795        0.307362 
         5.6706         3.95789        0.305182 
        5.68633         3.93462        0.303024 
        5.70203         3.90889         0.30089 
        5.71773          3.8877        0.298777 
        5.73344         3.86406        0.296684 
        5.74916         3.83873        0.294608 
        5.76486         3.81826        0.292555 
        5.78054         3.79478        0.290525 
        5.79626         3.76616        0.288509 
          5.812         3.74838        0.286509 
         5.8277           3.725        0.284535 
        5.84339         3.69599        0.282579 
        5.85911         3.68097        0.280637 
        5.87484          3.6565        0.278715 
        5.89053         3.63802        0.276813 
        5.90623         3.60874        0.274929 
        5.92195         3.58857        0.273059 
        5.93767         3.57499        0.271208 
        5.95336         3.55283        0.269377 
        5.96905         3.52178        0.267563 
        5.98476         3.50398        0.265763 
        6.00048         3.47854         0.26398 
        6.01617         3.46258        0.262215 
        6.03185         3.43636        0.260468 
        6.04756         3.43134        0.258733 
        6.06331         3.39479         0.25701 
        6.07903         3.37938        0.255307 
        6.09473         3.36246         0.25362 
        6.11044         3.34004        0.251947 
        6.12616         3.32755         0.25029 
        6.14186         3.30699        0.248649 
        6.15755         3.28312        0.247023 
        6.17326         3.26537         0.24541 
        6.18898         3.24344        0.243811 
        6.20467         3.22802        0.242229 
        6.22036         3.20361        0.240661 
         6.2361         3.18439        0.239102 
         6.2518         3.17353         0.23756 
        6.26748         3.15214        0.236035 
        6.28319         3.12969        0.234519 
        6.29893         3.11603        0.233016 
        6.31463         3.09665        0.231527 
        6.33033         3.08883        0.230053 
        6.34604         3.06117         0.22859 
        6.36177         3.04284        0.227138 
        6.37747         3.02439        0.225702 
