# k  (h/Mpc)    Pcb(k)  (Mpc/h)^3    Pcb_linear(k) (Mpc/h)^3   ShotnoiseSubtracted = true
      0.0200456         5944.08         6024.79 
      0.0350414         4473.46         4379.82 
      0.0492313         3174.51         3182.29 
      0.0637834         2580.85         2645.41 
      0.0800726         2038.28          2099.6 
       0.096163         1566.54         1523.44 
       0.111083         1267.43         1215.14 
       0.126058         1069.34         1076.86 
       0.142273         912.089         912.336 
       0.158546         744.166         720.554 
        0.17375         643.245         607.066 
       0.188953         586.132         549.685 
       0.204907         498.853         486.359 
       0.220756         443.899         411.489 
        0.23588         391.143          357.96 
         0.2514         351.358         325.203 
       0.267535         334.271         294.253 
       0.283568         291.567         259.491 
       0.299022         273.201         231.193 
       0.314451         265.085         211.295 
       0.330372         230.929          193.84 
       0.346141         213.189         175.939 
       0.361624         200.271         159.904 
       0.377134         183.394         147.137 
       0.392932         178.516         136.143 
       0.408854         167.621         125.498 
       0.424564         159.899         115.673 
       0.440253         144.884         107.242 
       0.455999         135.249         99.9115 
       0.471626         130.942         93.1745 
        0.48727         126.505         86.8725 
       0.502856         115.901          81.211 
       0.518488         113.143         76.1595 
       0.534347         106.302         71.4634 
       0.550082         103.385         67.1333 
       0.565732         100.708         63.1719 
       0.581496         92.8907         59.5438 
       0.597222         90.3258         56.2164 
       0.612804         87.2558         53.1567 
       0.628434         85.1015         50.3049 
       0.644267         80.5588         47.6387 
       0.660051         77.7898         45.1813 
       0.675724         75.8105         42.9123 
       0.691403           74.32         40.7971 
       0.707174         71.7201         38.8126 
       0.722871         69.9539          36.968 
        0.73838           67.38          35.263 
       0.754018         63.7234         33.6527 
       0.769845         63.1176         32.1254 
        0.78569         60.9753         30.6917 
       0.801365         59.3049         29.3597 
       0.817031         57.1589          28.108 
       0.832809         56.1775         26.9216 
       0.848511         54.6977         25.8094 
       0.864097         53.6197          24.768 
       0.879701         52.4959         23.7833 
       0.895507          50.585         22.8408 
       0.911279         49.6316         21.9515 
        0.92691         48.3403         21.1172 
       0.942635         47.3635         20.3218 
       0.958396         46.9937         19.5659 
       0.974128         45.7507           18.85 
       0.989692         44.3647         18.1771 
        1.00528         43.6957         17.5363 
        1.02113          42.689         16.9164 
        1.03692         42.2784         16.3288 
        1.05264         41.2625          15.772 
        1.06832         40.4058         15.2422 
        1.08405         39.4886         14.7354 
        1.09979         39.3036         14.2514 
        1.11537         38.1068          13.794 
        1.13105         37.2538          13.354 
        1.14679         36.6952         12.9317 
        1.16256         36.2139         12.5268 
        1.17828         35.7189         12.1406 
        1.19395         34.8622         11.7721 
         1.2097         34.5981         11.4171 
        1.22537         33.8498         11.0785 
          1.241         33.2585         10.7547 
        1.25666         32.7478         10.4431 
        1.27241         32.4601         10.1424 
        1.28819         31.3612         9.85303 
        1.30392         31.4469         9.57586 
        1.31957         30.9305         9.31063 
        1.33529         30.3077          9.0545 
        1.35108         29.8797         8.80702 
        1.36674         29.5697         8.57059 
         1.3824         29.0373         8.34308 
        1.39811         28.4201          8.1231 
        1.41389         28.1393         7.91023 
        1.42964         27.9276         7.70537 
        1.44531         27.3418         7.50879 
        1.46101         27.1223         7.31866 
        1.47667          26.779         7.13571 
        1.49229         26.2363         6.95951 
        1.50793         26.0395         6.78908 
        1.52367         25.6038         6.62327 
        1.53953          25.436         6.46191 
        1.55526         24.9828         6.30722 
        1.57092         24.7877         6.15825 
        1.58662         24.4239         6.01374 
        1.60235         24.0738         5.87361 
        1.61809         23.8419         5.73788 
        1.63369          23.617         5.60765 
        1.64941         23.2956         5.48054 
        1.66519         22.9136         5.35692 
        1.68085         22.5342         5.23801 
        1.69652         22.4763         5.12267 
        1.71228         22.2059         5.01016 
        1.72806         21.8447         4.90095 
        1.74368         21.6329          4.7961 
        1.75933         21.4248         4.69411 
        1.77505         21.2131         4.59461 
        1.79081         20.9787         4.49783 
         1.8065         20.7166         4.40425 
        1.82218          20.515         4.31343 
        1.83797         20.3839         4.22454 
        1.85367         20.2019         4.13866 
        1.86928          20.025         4.05569 
        1.88497         19.7209         3.97454 
        1.90073         19.4991         3.89531 
        1.91647         19.1993         3.81832 
        1.93218         19.2874         3.74358 
        1.94787         18.9207         3.67095 
        1.96363         18.7967         3.59996 
        1.97935         18.4934           3.531 
        1.99499         18.3203         3.46424 
        2.01064         18.1441         3.39911 
         2.0264         17.9659         3.33525 
        2.04216         17.8867         3.27306 
        2.05781          17.653         3.21285 
        2.07353         17.4991         3.15394 
        2.08928         17.2409         3.09639 
        2.10499         17.0808         3.04042 
        2.12065         16.9517         2.98601 
        2.13633         16.8344         2.93289 
        2.15211         16.5927         2.88072 
        2.16785         16.5536         2.82996 
        2.18349         16.3027         2.78074 
        2.19916         16.1625          2.7326 
        2.21489         15.9689         2.68543 
        2.23063         15.9245         2.63935 
         2.2463         15.6848         2.59456 
        2.26194         15.5788         2.55092 
        2.27765         15.3237         2.50806 
        2.29341         15.2685         2.46607 
        2.30914         15.0865         2.42514 
        2.32486         15.0379         2.38515 
        2.34061         14.8761           2.346 
        2.35635         14.7131         2.30777 
        2.37203         14.5854         2.27052 
        2.38768         14.4154         2.23417 
        2.40339         14.3835         2.19849 
        2.41914         14.1863          2.1635 
        2.43483         14.0325          2.1294 
         2.4505         13.8964         2.09609 
        2.46622         13.8616         2.06338 
        2.48195         13.7094         2.03137 
        2.49759         13.5086          2.0002 
        2.51328         13.5288         1.96961 
        2.52906         13.3343         1.93947 
        2.54479         13.2045         1.91007 
        2.56049         13.0551         1.88134 
        2.57618         13.0475         1.85322 
        2.59189         12.9394         1.82564 
        2.60758         12.7428         1.79866 
        2.62325         12.6623         1.77225 
        2.63898         12.6117         1.74629 
        2.65468         12.3945          1.7209 
        2.67044         12.3791         1.69591 
        2.68618         12.2841         1.67147 
        2.70184         12.1414         1.64762 
        2.71755         12.0529         1.62416 
        2.73329          11.931         1.60113 
        2.74897         11.8526         1.57862 
        2.76462         11.7655          1.5566 
        2.78034         11.6365          1.5349 
        2.79607         11.5774         1.51359 
        2.81179         11.4561         1.49272 
        2.82749         11.3779         1.47226 
        2.84321         11.2872         1.45216 
        2.85893         11.1772         1.43244 
        2.87462         11.1281         1.41312 
        2.89033         10.9949         1.39414 
        2.90605           10.94          1.3755 
        2.92176         10.8275          1.3572 
        2.93747         10.7399         1.33924 
        2.95318         10.6517         1.32161 
        2.96891         10.5985         1.30429 
        2.98456         10.4715         1.28735 
        3.00023          10.411         1.27069 
        3.01596         10.3116         1.25427 
        3.03164         10.2802         1.23819 
        3.04738         10.1616         1.22235 
         3.0631         10.0299         1.20679 
        3.07883         9.98373         1.19149 
        3.09456         9.92502         1.17647 
        3.11026         9.86937         1.16173 
        3.12596          9.7615         1.14724 
        3.14163         9.71924         1.13303 
        3.15734         9.60752         1.11903 
        3.17308         9.55518         1.10523 
        3.18879         9.47603          1.0917 
        3.20447         9.38194         1.07842 
         3.2202         9.32055         1.06532 
         3.2359          9.2156         1.05246 
        3.25157         9.20471         1.03984 
        3.26729         9.10562         1.02739 
        3.28304         9.00863         1.01512 
        3.29877         8.97245         1.00307 
        3.31446         8.90267         0.99124 
        3.33014         8.82957         0.97961 
        3.34585         8.77913        0.968149 
        3.36158         8.71322        0.956854 
        3.37727         8.66668        0.945774 
        3.39294         8.57637         0.93488 
        3.40867         8.53061        0.924119 
        3.42439           8.437        0.913533 
        3.44008         8.37498        0.903133 
        3.45578         8.31724        0.892887 
        3.47153         8.24474        0.882778 
        3.48724         8.18113        0.872843 
        3.50292         8.10073        0.863084 
        3.51859         8.07846        0.853478 
        3.53431         7.99995        0.843989 
        3.55007          7.9245        0.834622 
        3.56577         7.87209        0.825433 
        3.58146         7.83849        0.816386 
        3.59719          7.7607        0.807454 
        3.61292         7.72675        0.798659 
        3.62859         7.67918        0.790028 
        3.64429         7.60388        0.781508 
        3.66003         7.55638        0.773087 
        3.67578         7.48044        0.764794 
        3.69146         7.46197        0.756653 
        3.70712         7.39071        0.748646 
        3.72284         7.31305        0.740725 
        3.73853         7.29198        0.732932 
        3.75422         7.21678        0.725249 
        3.76993         7.16786        0.717669 
        3.78564         7.11581          0.7102 
        3.80137         7.08976        0.702825 
        3.81707         7.00017        0.695571 
        3.83279         6.95743        0.688412 
        3.84853         6.90171        0.681344 
        3.86424         6.87134        0.674388 
        3.87992          6.8169        0.667539 
        3.89561         6.76431        0.660785 
        3.91134         6.69229        0.654111 
        3.92704         6.66468        0.647537 
        3.94273         6.61805         0.64106 
        3.95845         6.58642        0.634659 
        3.97418         6.52588        0.628344 
        3.98988         6.48877        0.622124 
        4.00554         6.43617        0.616005 
        4.02125         6.39133         0.60995 
        4.03698         6.34223        0.603968 
        4.05268         6.28023        0.598079 
        4.06839         6.22885        0.592264 
         4.0841         6.20414        0.586529 
        4.09983         6.15203        0.580861 
        4.11555         6.10196        0.575271 
        4.13124         6.05914        0.569769 
        4.14693         6.01696        0.564335 
        4.16266         5.98695        0.558959 
        4.17839         5.94786        0.553656 
        4.19408         5.89455        0.548434 
        4.20977         5.86012        0.543277 
        4.22551         5.82421        0.538174 
        4.24123         5.76739        0.533142 
        4.25691         5.72902        0.528187 
        4.27259         5.68049        0.523294 
        4.28831           5.644        0.518454 
        4.30404         5.59686        0.513669 
        4.31974         5.56393        0.508956 
        4.33543         5.52022        0.504304 
        4.35116         5.48388          0.4997 
        4.36688          5.4446        0.495154 
        4.38255         5.41611        0.490682 
        4.39825         5.37432        0.486255 
        4.41398          5.3312        0.481875 
         4.4297         5.31591        0.477553 
        4.44541         5.25901        0.473284 
        4.46111         5.22297        0.469071 
        4.47683         5.19983        0.464906 
        4.49251         5.16653          0.4608 
        4.50819         5.13165        0.456745 
         4.5239         5.09073        0.452733 
        4.53962         5.05012        0.448764 
        4.55535         5.02382        0.444841 
        4.57106         4.99066         0.44097 
        4.58678         4.95138        0.437144 
         4.6025         4.92524        0.433363 
        4.61821         4.88408        0.429627 
        4.63391         4.84377         0.42594 
         4.6496         4.81541        0.422298 
        4.66532         4.78338        0.418692 
        4.68103         4.74907        0.415131 
        4.69673         4.72736        0.411614 
        4.71241         4.70105        0.408141 
        4.72811         4.65759        0.404703 
        4.74384         4.63761          0.4013 
        4.75955         4.59609        0.397941 
        4.77525         4.56124        0.394622 
        4.79096         4.54677        0.391337 
        4.80669         4.52022        0.388088 
         4.8224         4.47467         0.38488 
        4.83809         4.45154        0.381711 
        4.85379         4.41035        0.378576 
         4.8695           4.394        0.375473 
        4.88521         4.36535        0.372407 
        4.90093          4.3336        0.369374 
        4.91663         4.32026        0.366378 
        4.93234         4.27784        0.363412 
        4.94807         4.25343        0.360477 
        4.96377         4.23036        0.357579 
        4.97943         4.19903         0.35472 
        4.99514         4.17463        0.351884 
        5.01086         4.15103        0.349077 
        5.02654         4.12216        0.346308 
        5.04227         4.09761        0.343561 
          5.058          4.0646        0.340843 
        5.07371         4.04229        0.338159 
        5.08942         4.01396        0.335503 
        5.10513         3.98624        0.332876 
        5.12084         3.96836        0.330276 
        5.13656          3.9446        0.327703 
        5.15225          3.9199        0.325163 
        5.16796         3.89898        0.322645 
        5.18369         3.86319        0.320152 
         5.1994         3.84616         0.31769 
        5.21509         3.81399        0.315256 
        5.23079         3.79374        0.312844 
        5.24649         3.76899        0.310459 
        5.26217          3.7435        0.308101 
        5.27788         3.73284        0.305765 
        5.29359          3.7079        0.303451 
        5.30933         3.68726        0.301159 
        5.32504         3.65738        0.298894 
        5.34073         3.63812        0.296655 
        5.35646         3.61343        0.294434 
        5.37218         3.59838        0.292235 
        5.38789         3.57752        0.290063 
        5.40357         3.55144        0.287915 
        5.41929         3.52188        0.285784 
        5.43502         3.50616        0.283674 
         5.4507         3.48714        0.281591 
        5.46639         3.45591        0.279528 
        5.48212         3.44089        0.277481 
        5.49786         3.42293        0.275452 
        5.51353         3.39754        0.273453 
        5.52921         3.37655        0.271473 
        5.54495         3.36226        0.269506 
        5.56066         3.34771         0.26756 
        5.57637         3.31866        0.265634 
        5.59207          3.3026        0.263729 
        5.60778         3.28317        0.261842 
        5.62346         3.26809        0.259976 
        5.63916         3.23885        0.258126 
        5.65487         3.22396        0.256293 
         5.6706         3.19832        0.254476 
        5.68633         3.19233        0.252676 
        5.70203         3.17576        0.250896 
        5.71773         3.14091        0.249135 
        5.73344          3.1286        0.247389 
        5.74916         3.11265        0.245658 
        5.76486         3.09546        0.243947 
        5.78054         3.07741        0.242254 
        5.79626         3.06232        0.240572 
          5.812         3.03676        0.238905 
         5.8277         3.02473        0.237259 
        5.84339         3.00866        0.235628 
        5.85911         2.98984        0.234009 
        5.87484         2.96741        0.232406 
        5.89053         2.95314         0.23082 
        5.90623         2.94024        0.229249 
        5.92195         2.92605         0.22769 
        5.93767         2.90452        0.226146 
        5.95336         2.88849        0.224619 
        5.96905         2.87222        0.223107 
        5.98476         2.85292        0.221606 
        6.00048         2.84252        0.220119 
        6.01617         2.82646        0.218647 
        6.03185         2.80798        0.217191 
        6.04756         2.78797        0.215744 
        6.06331         2.77548        0.214308 
        6.07903         2.76408        0.212887 
        6.09473         2.74481        0.211481 
        6.11044         2.72943        0.210086 
        6.12616         2.71893        0.208704 
        6.14186         2.70127        0.207335 
        6.15755         2.69049         0.20598 
        6.17326         2.67565        0.204635 
        6.18898         2.65261        0.203301 
        6.20467         2.64401        0.201982 
        6.22036         2.63323        0.200674 
         6.2361         2.61503        0.199375 
         6.2518         2.60133        0.198089 
        6.26748         2.58796        0.196818 
        6.28319          2.5732        0.195554 
        6.29893          2.5577          0.1943 
        6.31463         2.54812        0.193059 
        6.33033         2.53989        0.191829 
        6.34604         2.51732        0.190609 
        6.36177         2.51132        0.189399 
        6.37747          2.4955        0.188201 
